    t post max Lbol   log_Lbol (erg/s)   log_Lnuc (erg/s)
     -1.965288E-01       4.171000E+01       4.149776E+01
     -1.903520E-01       4.185100E+01       4.149762E+01
     -1.841751E-01       4.196500E+01       4.149734E+01
     -1.840847E-01       4.196700E+01       4.149734E+01
     -1.834545E-01       4.197800E+01       4.149734E+01
     -1.823573E-01       4.199600E+01       4.149721E+01
     -1.808558E-01       4.202200E+01       4.149721E+01
     -1.790932E-01       4.205400E+01       4.149707E+01
     -1.773307E-01       4.208400E+01       4.149707E+01
     -1.755681E-01       4.211500E+01       4.149693E+01
     -1.736828E-01       4.214700E+01       4.149693E+01
     -1.717976E-01       4.218000E+01       4.149679E+01
     -1.707371E-01       4.219700E+01       4.149679E+01
     -1.692207E-01       4.222100E+01       4.149679E+01
     -1.653677E-01       4.228500E+01       4.149651E+01
     -1.622732E-01       4.233600E+01       4.149651E+01
     -1.607258E-01       4.236000E+01       4.149638E+01
     -1.584049E-01       4.239600E+01       4.149624E+01
     -1.553103E-01       4.244300E+01       4.149624E+01
     -1.527050E-01       4.248300E+01       4.149610E+01
     -1.505890E-01       4.251500E+01       4.149596E+01
     -1.490020E-01       4.254000E+01       4.149596E+01
     -1.474149E-01       4.256500E+01       4.149582E+01
     -1.460924E-01       4.258500E+01       4.149582E+01
     -1.434855E-01       4.262700E+01       4.149568E+01
     -1.414077E-01       4.266000E+01       4.149568E+01
     -1.398506E-01       4.268500E+01       4.149554E+01
     -1.384492E-01       4.270800E+01       4.149554E+01
     -1.356716E-01       4.274800E+01       4.149541E+01
     -1.335170E-01       4.277800E+01       4.149527E+01
     -1.313624E-01       4.280900E+01       4.149527E+01
     -1.307693E-01       4.281700E+01       4.149527E+01
     -1.294584E-01       4.283500E+01       4.149513E+01
     -1.278425E-01       4.285700E+01       4.149513E+01
     -1.256385E-01       4.288700E+01       4.149499E+01
     -1.234860E-01       4.291600E+01       4.149485E+01
     -1.199160E-01       4.296500E+01       4.149471E+01
     -1.169609E-01       4.300400E+01       4.149471E+01
     -1.140059E-01       4.304300E+01       4.149457E+01
     -1.082979E-01       4.311400E+01       4.149429E+01
     -1.037087E-01       4.317000E+01       4.149415E+01
     -9.911990E-02       4.322400E+01       4.149402E+01
     -9.453154E-02       4.327600E+01       4.149374E+01
     -8.994365E-02       4.332700E+01       4.149360E+01
     -8.242857E-02       4.340500E+01       4.149332E+01
     -7.491529E-02       4.347800E+01       4.149304E+01
     -6.740391E-02       4.354500E+01       4.149276E+01
     -5.989468E-02       4.360200E+01       4.149234E+01
     -4.884017E-02       4.367400E+01       4.149192E+01
     -3.779078E-02       4.373100E+01       4.149150E+01
     -2.674675E-02       4.377300E+01       4.149108E+01
      0.000000E+00       4.381800E+01       4.148996E+01
      4.706645E-02       4.374400E+01       4.148813E+01
      6.273913E-02       4.369300E+01       4.148756E+01
      7.989454E-02       4.363200E+01       4.148686E+01
      9.275651E-02       4.358500E+01       4.148629E+01
      1.099010E-01       4.352000E+01       4.148572E+01
      1.270401E-01       4.345900E+01       4.148501E+01
      1.464148E-01       4.339500E+01       4.148416E+01
      1.645741E-01       4.334000E+01       4.148344E+01
      1.799889E-01       4.329700E+01       4.148287E+01
      1.929810E-01       4.326300E+01       4.148230E+01
      2.245338E-01       4.318800E+01       4.148116E+01
      2.430933E-01       4.314900E+01       4.148044E+01
      2.668850E-01       4.310500E+01       4.147943E+01
      2.912691E-01       4.306700E+01       4.147842E+01
      3.093543E-01       4.303900E+01       4.147770E+01
      3.346703E-01       4.300200E+01       4.147669E+01
      3.639073E-01       4.296400E+01       4.147553E+01
      3.859098E-01       4.293700E+01       4.147465E+01
      4.079106E-01       4.290800E+01       4.147378E+01
      4.299092E-01       4.288200E+01       4.147290E+01
      4.577792E-01       4.285300E+01       4.147188E+01
      4.856467E-01       4.282700E+01       4.147070E+01
      5.135119E-01       4.280400E+01       4.146967E+01
      5.413749E-01       4.278200E+01       4.146850E+01
      5.761373E-01       4.275800E+01       4.146716E+01
      6.108968E-01       4.273700E+01       4.146583E+01
      6.499982E-01       4.271300E+01       4.146434E+01
      6.827648E-01       4.269500E+01       4.146300E+01
      7.162669E-01       4.267700E+01       4.146165E+01
      7.296672E-01       4.267100E+01       4.146120E+01
      7.966073E-01       4.264100E+01       4.145849E+01
      8.367450E-01       4.262400E+01       4.145697E+01
      8.768804E-01       4.260900E+01       4.145530E+01
      9.170139E-01       4.259300E+01       4.145378E+01
      9.652972E-01       4.257500E+01       4.145194E+01
      1.001508E+00       4.256400E+01       4.145056E+01
      1.049787E+00       4.254900E+01       4.144855E+01
      1.098063E+00       4.253300E+01       4.144669E+01
      1.169988E+00       4.251100E+01       4.144389E+01
      1.217774E+00       4.249800E+01       4.144201E+01
      1.265558E+00       4.248600E+01       4.144012E+01
      1.267277E+00       4.248500E+01       4.144012E+01
      1.338509E+00       4.247000E+01       4.143727E+01
      1.405846E+00       4.245700E+01       4.143473E+01
      1.452846E+00       4.244800E+01       4.143297E+01
      1.499845E+00       4.243900E+01       4.143104E+01
      1.546842E+00       4.243100E+01       4.142927E+01
      1.614273E+00       4.242000E+01       4.142667E+01
      1.664845E+00       4.241200E+01       4.142472E+01
      1.731480E+00       4.240200E+01       4.142210E+01
      1.797322E+00       4.239200E+01       4.141963E+01
      1.897050E+00       4.237900E+01       4.141581E+01
      1.947155E+00       4.237300E+01       4.141380E+01
      1.993992E+00       4.236700E+01       4.141212E+01
      2.054264E+00       4.236000E+01       4.140976E+01
      2.054554E+00       4.236000E+01       4.140976E+01
      2.138839E+00       4.235100E+01       4.140654E+01
      2.211185E+00       4.234300E+01       4.140381E+01
      2.300352E+00       4.233400E+01       4.140037E+01
      2.367224E+00       4.232800E+01       4.139794E+01
      2.456385E+00       4.231400E+01       4.139445E+01
      2.545544E+00       4.230300E+01       4.139111E+01
      2.685045E+00       4.228900E+01       4.138596E+01
      2.756236E+00       4.228400E+01       4.138328E+01
      2.851155E+00       4.227600E+01       4.137967E+01
      2.898613E+00       4.227300E+01       4.137785E+01
      2.898826E+00       4.227300E+01       4.137785E+01
      3.014166E+00       4.226600E+01       4.137365E+01
      3.077718E+00       4.226200E+01       4.137125E+01
      3.141269E+00       4.225800E+01       4.136884E+01
      3.204819E+00       4.225200E+01       4.136642E+01
      3.268369E+00       4.224600E+01       4.136418E+01
      3.343835E+00       4.223800E+01       4.136135E+01
      3.419300E+00       4.223200E+01       4.135851E+01
      3.469610E+00       4.222800E+01       4.135660E+01
      3.519919E+00       4.222500E+01       4.135488E+01
      3.570228E+00       4.222100E+01       4.135295E+01
      3.676679E+00       4.221300E+01       4.134908E+01
      3.729904E+00       4.220900E+01       4.134713E+01
      3.783129E+00       4.220500E+01       4.134518E+01
      3.836353E+00       4.220100E+01       4.134321E+01
      3.889577E+00       4.219700E+01       4.134124E+01
      3.942801E+00       4.219400E+01       4.133945E+01
      3.996024E+00       4.219000E+01       4.133746E+01
      4.055818E+00       4.218600E+01       4.133526E+01
      4.115610E+00       4.218200E+01       4.133304E+01
      4.175403E+00       4.217800E+01       4.133102E+01
      4.235195E+00       4.217200E+01       4.132879E+01
      4.294987E+00       4.216600E+01       4.132654E+01
      4.295321E+00       4.216600E+01       4.132654E+01
      4.434716E+00       4.215500E+01       4.132160E+01
      4.574290E+00       4.214500E+01       4.131660E+01
      4.672002E+00       4.213900E+01       4.131302E+01
      4.769714E+00       4.213400E+01       4.130963E+01
      4.867425E+00       4.212800E+01       4.130621E+01
      4.942769E+00       4.212400E+01       4.130341E+01
      5.018111E+00       4.212000E+01       4.130081E+01
      5.131124E+00       4.211400E+01       4.129688E+01
      5.131930E+00       4.211400E+01       4.129688E+01
      5.262616E+00       4.210600E+01       4.129226E+01
      5.358463E+00       4.210100E+01       4.128892E+01
      5.454309E+00       4.209600E+01       4.128556E+01
      5.589904E+00       4.208800E+01       4.128081E+01
      5.691600E+00       4.208200E+01       4.127738E+01
      5.793295E+00       4.207700E+01       4.127393E+01
      5.928887E+00       4.207100E+01       4.126928E+01
      6.085358E+00       4.206400E+01       4.126387E+01
      6.262704E+00       4.205500E+01       4.125768E+01
      6.440049E+00       4.204700E+01       4.125188E+01
      6.528722E+00       4.204300E+01       4.124871E+01
      6.530122E+00       4.204300E+01       4.124871E+01
      6.703004E+00       4.203400E+01       4.124304E+01
      6.874834E+00       4.202700E+01       4.123729E+01
      6.989109E+00       4.202300E+01       4.123350E+01
      7.103383E+00       4.201700E+01       4.122968E+01
      7.217657E+00       4.201200E+01       4.122583E+01
      7.431880E+00       4.200300E+01       4.121880E+01
      7.646102E+00       4.199500E+01       4.121192E+01
      7.806767E+00       4.199000E+01       4.120683E+01
      7.967433E+00       4.198400E+01       4.120167E+01
      8.241338E+00       4.197500E+01       4.119285E+01
      8.498434E+00       4.196600E+01       4.118469E+01
      8.686541E+00       4.196000E+01       4.117898E+01
      8.941849E+00       4.195100E+01       4.117114E+01
      9.104628E+00       4.194600E+01       4.116613E+01
      9.307281E+00       4.193900E+01       4.115987E+01
      9.628381E+00       4.192900E+01       4.115014E+01
      9.814377E+00       4.192300E+01       4.114457E+01
      1.000037E+01       4.191800E+01       4.113893E+01
      1.018637E+01       4.191200E+01       4.113354E+01
      1.041406E+01       4.190700E+01       4.112678E+01
      1.064175E+01       4.190000E+01       4.112024E+01
      1.064465E+01       4.190000E+01       4.112024E+01
      1.094768E+01       4.189200E+01       4.111160E+01
      1.127943E+01       4.188300E+01       4.110209E+01
      1.156882E+01       4.187800E+01       4.109412E+01
      1.191995E+01       4.187300E+01       4.108458E+01
      1.219307E+01       4.186800E+01       4.107700E+01
      1.243085E+01       4.186300E+01       4.107078E+01
      1.271412E+01       4.185700E+01       4.106333E+01
      1.299323E+01       4.185000E+01       4.105614E+01
      1.336538E+01       4.184300E+01       4.104650E+01
      1.373753E+01       4.183700E+01       4.103703E+01
      1.403698E+01       4.183000E+01       4.102979E+01
      1.433644E+01       4.182300E+01       4.102243E+01
      1.516090E+01       4.180700E+01       4.100260E+01
      1.567725E+01       4.179900E+01       4.099074E+01
      1.606417E+01       4.179200E+01       4.098204E+01
      1.685557E+01       4.177700E+01       4.096483E+01
      1.729959E+01       4.176900E+01       4.095545E+01
      1.774361E+01       4.176000E+01       4.094630E+01
      1.843636E+01       4.174700E+01       4.093247E+01
      1.946064E+01       4.173100E+01       4.091302E+01
      2.024386E+01       4.171800E+01       4.089889E+01
      2.127969E+01       4.170300E+01       4.088110E+01
      2.228263E+01       4.168900E+01       4.086493E+01
      2.330732E+01       4.167700E+01       4.084936E+01
      2.437343E+01       4.166400E+01       4.083410E+01
      2.558300E+01       4.164900E+01       4.081796E+01
      2.665307E+01       4.163700E+01       4.080462E+01
      2.760888E+01       4.162500E+01       4.079337E+01
      2.870833E+01       4.161300E+01       4.078118E+01
      2.903542E+01       4.163000E+01       4.077772E+01
      3.017711E+01       4.158300E+01       4.076604E+01
      3.127781E+01       4.157700E+01       4.075549E+01
      3.238669E+01       4.158000E+01       4.074547E+01
      3.319565E+01       4.158400E+01       4.073854E+01
      3.335550E+01       4.158500E+01       4.073719E+01
      3.437959E+01       4.158900E+01       4.072884E+01
      3.539213E+01       4.159200E+01       4.072099E+01
      3.645156E+01       4.159200E+01       4.071315E+01
      3.746776E+01       4.157700E+01       4.070603E+01
      3.808938E+01       4.157800E+01       4.070183E+01
      3.821554E+01       4.157800E+01       4.070096E+01
      3.840990E+01       4.157900E+01       4.069966E+01
      3.863950E+01       4.158600E+01       4.069810E+01
      3.909548E+01       4.157500E+01       4.069513E+01
      3.935365E+01       4.157500E+01       4.069346E+01
      3.955044E+01       4.157500E+01       4.069223E+01
      3.978966E+01       4.157400E+01       4.069073E+01
      4.005370E+01       4.157500E+01       4.068913E+01
      4.036277E+01       4.157600E+01       4.068717E+01
      4.068257E+01       4.157600E+01       4.068520E+01
      4.094668E+01       4.157900E+01       4.068359E+01
      4.110561E+01       4.157900E+01       4.068269E+01
      4.145179E+01       4.157600E+01       4.068061E+01
      4.161867E+01       4.157600E+01       4.067961E+01
      4.163427E+01       4.157500E+01       4.067952E+01
      4.185831E+01       4.157500E+01       4.067815E+01
      4.209706E+01       4.157500E+01       4.067679E+01
      4.256385E+01       4.157500E+01       4.067413E+01
      4.274014E+01       4.157500E+01       4.067311E+01
      4.307333E+01       4.157600E+01       4.067127E+01
      4.337719E+01       4.157600E+01       4.066950E+01
      4.350117E+01       4.157500E+01       4.066885E+01
      4.358701E+01       4.157400E+01       4.066839E+01
      4.387556E+01       4.157200E+01       4.066680E+01
      4.414191E+01       4.157300E+01       4.066530E+01
      4.431697E+01       4.157300E+01       4.066436E+01
      4.454790E+01       4.157300E+01       4.066314E+01
      4.479105E+01       4.157300E+01       4.066181E+01
      4.513768E+01       4.157300E+01       4.066001E+01
      4.528293E+01       4.157300E+01       4.065916E+01
      4.563101E+01       4.157500E+01       4.065734E+01
      4.604255E+01       4.157600E+01       4.065523E+01
      4.628084E+01       4.157600E+01       4.065398E+01
      4.644265E+01       4.157600E+01       4.065312E+01
      4.667988E+01       4.157700E+01       4.065196E+01
      4.715209E+01       4.157700E+01       4.064953E+01
      4.728307E+01       4.157700E+01       4.064885E+01
      4.755557E+01       4.157800E+01       4.064748E+01
      4.770523E+01       4.157800E+01       4.064680E+01
      4.790350E+01       4.157900E+01       4.064582E+01
      4.818642E+01       4.158100E+01       4.064434E+01
      4.840494E+01       4.158100E+01       4.064326E+01
      4.863443E+01       4.158000E+01       4.064217E+01
      4.879512E+01       4.157900E+01       4.064137E+01
      4.910133E+01       4.157900E+01       4.063988E+01
      4.935880E+01       4.157900E+01       4.063869E+01
      4.970703E+01       4.157900E+01       4.063699E+01
      4.976143E+01       4.157900E+01       4.063669E+01
      5.001164E+01       4.158200E+01       4.063548E+01
      5.013211E+01       4.158300E+01       4.063498E+01
      5.033520E+01       4.158500E+01       4.063397E+01
      5.051784E+01       4.158400E+01       4.063317E+01
      5.074758E+01       4.158400E+01       4.063205E+01
      5.106595E+01       4.158500E+01       4.063053E+01
      5.118744E+01       4.158500E+01       4.063002E+01
      5.150244E+01       4.158500E+01       4.062849E+01
      5.168597E+01       4.158400E+01       4.062767E+01
      5.187028E+01       4.158400E+01       4.062675E+01
      5.212617E+01       4.158300E+01       4.062562E+01
      5.234308E+01       4.158300E+01       4.062459E+01
      5.258802E+01       4.158300E+01       4.062346E+01
      5.276537E+01       4.158300E+01       4.062263E+01
      5.302088E+01       4.158400E+01       4.062149E+01
      5.319003E+01       4.158400E+01       4.062076E+01
      5.344909E+01       4.158200E+01       4.061951E+01
      5.372381E+01       4.158000E+01       4.061826E+01
      5.389909E+01       4.158000E+01       4.061752E+01
      5.404481E+01       4.158000E+01       4.061690E+01
      5.423269E+01       4.158000E+01       4.061606E+01
      5.445395E+01       4.158100E+01       4.061511E+01
      5.463466E+01       4.158200E+01       4.061426E+01
      5.467922E+01       4.158200E+01       4.061405E+01
      5.479911E+01       4.158300E+01       4.061352E+01
      5.504105E+01       4.158300E+01       4.061247E+01
      5.524566E+01       4.158200E+01       4.061151E+01
      5.544184E+01       4.158300E+01       4.061066E+01
      5.568552E+01       4.158400E+01       4.060959E+01
      5.592870E+01       4.158400E+01       4.060853E+01
      5.605562E+01       4.158400E+01       4.060799E+01
      5.631408E+01       4.158500E+01       4.060681E+01
      5.668967E+01       4.158500E+01       4.060520E+01
      5.680959E+01       4.158500E+01       4.060466E+01
      5.704218E+01       4.158500E+01       4.060369E+01
      5.704218E+01       4.158500E+01       4.060369E+01
      5.704223E+01       4.158500E+01       4.060369E+01
      5.725747E+01       4.158600E+01       4.060271E+01
      5.734577E+01       4.158600E+01       4.060239E+01
      5.754746E+01       4.158700E+01       4.060152E+01
      5.788911E+01       4.159000E+01       4.059999E+01
      5.813729E+01       4.159000E+01       4.059890E+01
      5.822762E+01       4.159000E+01       4.059857E+01
      5.851204E+01       4.159100E+01       4.059726E+01
      5.874367E+01       4.159200E+01       4.059616E+01
      5.899417E+01       4.159100E+01       4.059528E+01
      5.930531E+01       4.159100E+01       4.059395E+01
      5.946050E+01       4.159100E+01       4.059329E+01
      5.964066E+01       4.159100E+01       4.059251E+01
      5.987585E+01       4.159200E+01       4.059151E+01
      6.014998E+01       4.159200E+01       4.059040E+01
      6.054974E+01       4.159100E+01       4.058861E+01
      6.077186E+01       4.159200E+01       4.058771E+01
      6.099722E+01       4.159200E+01       4.058681E+01
      6.126171E+01       4.159200E+01       4.058569E+01
      6.160281E+01       4.159200E+01       4.058422E+01
      6.175933E+01       4.159200E+01       4.058354E+01
      6.196393E+01       4.159200E+01       4.058274E+01
      6.220150E+01       4.159300E+01       4.058172E+01
      6.249220E+01       4.159200E+01       4.058047E+01
      6.262342E+01       4.159200E+01       4.058001E+01
      6.289268E+01       4.159200E+01       4.057887E+01
      6.324217E+01       4.159200E+01       4.057738E+01
      6.349310E+01       4.159200E+01       4.057634E+01
      6.376275E+01       4.159200E+01       4.057519E+01
      6.399359E+01       4.159300E+01       4.057426E+01
      6.431577E+01       4.159300E+01       4.057299E+01
      6.458169E+01       4.159300E+01       4.057183E+01
      6.484444E+01       4.159300E+01       4.057078E+01
      6.507170E+01       4.159300E+01       4.056984E+01
      6.522481E+01       4.159300E+01       4.056914E+01
      6.536635E+01       4.159300E+01       4.056855E+01
      6.568324E+01       4.159300E+01       4.056726E+01
      6.583160E+01       4.159200E+01       4.056667E+01
      6.599279E+01       4.159300E+01       4.056597E+01
      6.634065E+01       4.159300E+01       4.056455E+01
