# Black Body
# teff = 197000 K (value for the effective temperature for the model. Temperatures are given in K)
#
# column 1: WAVELENGTH (ANGSTROM), Wavelength in Angstrom
# column 2: FLUX (ERG/CM2/S/A), Flux in erg/cm2/s/A
              1               0 
              2    9.52077e-134 
              3      9.1675e-82 
              4     5.88268e-56 
              5     1.39391e-40 
              6     2.09477e-30 
              7     3.45467e-23 
              8     8.17431e-18 
              9     1.15352e-13 
             10     2.27775e-10 
             11      1.08152e-7 
             12      1.77012e-5 
             13      0.00128064 
             14       0.0488959 
             15         1.12165 
             16         17.0339 
             17         184.411 
             18         1507.37 
             19         9733.15 
             20         51471.5 
             21          229520 
             22          883792 
             23      2.99689e+6 
             24      9.09625e+6 
             25       2.5053e+7 
             26      6.33385e+7 
             27      1.48438e+8 
             28      3.25184e+8 
             29      6.70735e+8 
             30      1.31073e+9 
             31      2.43989e+9 
             32      4.34681e+9 
             33      7.44243e+9 
             34      1.2291e+10 
             35     1.96418e+10 
             36     3.04609e+10 
             37     4.59592e+10 
             38     6.76171e+10 
             39     9.72022e+10 
             40      1.3678e+11 
             41     1.88716e+11 
             42     2.55668e+11 
             43     3.40571e+11 
             44     4.46614e+11 
             45     5.77201e+11 
             46     7.35918e+11 
             47     9.26484e+11 
             48      1.1527e+12 
             49      1.4184e+12 
             50      1.7274e+12 
             51     2.08343e+12 
             52     2.49009e+12 
             53     2.95081e+12 
             54     3.46879e+12 
             55     4.04696e+12 
             56     4.68797e+12 
             57      5.3941e+12 
             58     6.16731e+12 
             59     7.00915e+12 
             60     7.92082e+12 
             61     8.90307e+12 
             62      9.9563e+12 
             63     1.10805e+13 
             64     1.22752e+13 
             65     1.35397e+13 
             66     1.48728e+13 
             67      1.6273e+13 
             68     1.77386e+13 
             69     1.92673e+13 
             70     2.08568e+13 
             71     2.25044e+13 
             72     2.42073e+13 
             73     2.59623e+13 
             74     2.77663e+13 
             75     2.96158e+13 
             76     3.15074e+13 
             77     3.34373e+13 
             78      3.5402e+13 
             79     3.73976e+13 
             80     3.94205e+13 
             81     4.14668e+13 
             82     4.35328e+13 
             83     4.56148e+13 
             84     4.77091e+13 
             85     4.98120e+13 
             86     5.19201e+13 
             87     5.40298e+13 
             88     5.61379e+13 
             89     5.82409e+13 
             90     6.03359e+13 
             91     6.24197e+13 
             92     6.44895e+13 
             93     6.65424e+13 
             94     6.85759e+13 
             95     7.05874e+13 
             96     7.25746e+13 
             97     7.45352e+13 
             98     7.64672e+13 
             99     7.83686e+13 
            100     8.02376e+13 
            101     8.20724e+13 
            102     8.38716e+13 
            103     8.56337e+13 
            104     8.73574e+13 
            105     8.90416e+13 
            106     9.06852e+13 
            107     9.22873e+13 
            108      9.3847e+13 
            109     9.53636e+13 
            110     9.68366e+13 
            111     9.82654e+13 
            112     9.96495e+13 
            113     1.00989e+14 
            114     1.02283e+14 
            115     1.03532e+14 
            116     1.04735e+14 
            117     1.05893e+14 
            118     1.07006e+14 
            119     1.08073e+14 
            120     1.09096e+14 
            121     1.10074e+14 
            122     1.11007e+14 
            123     1.11896e+14 
            124     1.12742e+14 
            125     1.13544e+14 
            126     1.14304e+14 
            127     1.15021e+14 
            128     1.15697e+14 
            129     1.16332e+14 
            130     1.16926e+14 
            131     1.17481e+14 
            132     1.17996e+14 
            133     1.18473e+14 
            134     1.18912e+14 
            135     1.19314e+14 
            136      1.1968e+14 
            137      1.2001e+14 
            138     1.20306e+14 
            139     1.20567e+14 
            140     1.20795e+14 
            141      1.2099e+14 
            142     1.21154e+14 
            143     1.21286e+14 
            144     1.21389e+14 
            145     1.21462e+14 
            146     1.21506e+14 
            147     1.21522e+14 
            148     1.21511e+14 
            149     1.21474e+14 
            150     1.21411e+14 
            151     1.21323e+14 
            152     1.21211e+14 
            153     1.21076e+14 
            154     1.20917e+14 
            155     1.20737e+14 
            156     1.20535e+14 
            157     1.20313e+14 
            158     1.20071e+14 
            159     1.19809e+14 
            160     1.19529e+14 
            161     1.19230e+14 
            162     1.18915e+14 
            163     1.18583e+14 
            164     1.18234e+14 
            165      1.1787e+14 
            166     1.17491e+14 
            167     1.17098e+14 
            168     1.16691e+14 
            169     1.16271e+14 
            170     1.15838e+14 
            171     1.15392e+14 
            172     1.14936e+14 
            173     1.14468e+14 
            174     1.13989e+14 
            175       1.135e+14 
            176     1.13002e+14 
            177     1.12494e+14 
            178     1.11977e+14 
            179     1.11452e+14 
            180     1.10919e+14 
            181     1.10379e+14 
            182     1.09831e+14 
            183     1.09276e+14 
            184     1.08716e+14 
            185     1.08149e+14 
            186     1.07576e+14 
            187     1.06999e+14 
            188     1.06416e+14 
            189     1.05829e+14 
            190     1.05237e+14 
            191     1.04641e+14 
            192     1.04042e+14 
            193     1.03439e+14 
            194     1.02833e+14 
            195     1.02224e+14 
            196     1.01613e+14 
            197     1.00999e+14 
            198     1.00383e+14 
            199      9.9765e+13 
            200     9.91456e+13 
            202     9.79028e+13 
            204      9.6656e+13 
            206     9.54068e+13 
            208     9.41568e+13 
            210     9.29073e+13 
            212     9.16596e+13 
            214     9.04148e+13 
            216     8.91741e+13 
            218     8.79385e+13 
            220     8.67089e+13 
            222     8.54862e+13 
            224     8.42711e+13 
            226     8.30644e+13 
            228     8.18668e+13 
            230     8.06789e+13 
            232     7.95012e+13 
            234     7.83341e+13 
            236     7.71782e+13 
            238     7.60339e+13 
            240     7.49015e+13 
            242     7.37813e+13 
            244     7.26737e+13 
            246     7.15788e+13 
            248     7.04968e+13 
            250      6.9428e+13 
            252     6.83726e+13 
            254     6.73305e+13 
            256      6.6302e+13 
            258     6.52871e+13 
            260     6.42859e+13 
            262     6.32984e+13 
            264     6.23246e+13 
            266     6.13645e+13 
            268     6.04182e+13 
            270     5.94855e+13 
            272     5.85664e+13 
            274      5.7661e+13 
            276     5.67691e+13 
            278     5.58906e+13 
            280     5.50254e+13 
            282     5.41736e+13 
            284     5.33348e+13 
            286     5.25092e+13 
            288     5.16964e+13 
            290     5.08965e+13 
            292     5.01092e+13 
            294     4.93345e+13 
            296     4.85722e+13 
            298     4.78222e+13 
            300     4.70843e+13 
            303     4.59998e+13 
            306     4.49418e+13 
            309     4.39097e+13 
            312     4.29031e+13 
            315     4.19213e+13 
            318     4.09638e+13 
            321     4.00302e+13 
            324     3.91199e+13 
            327     3.82323e+13 
            330      3.7367e+13 
            333     3.65234e+13 
            336      3.5701e+13 
            339     3.48993e+13 
            342     3.41177e+13 
            345     3.33558e+13 
            348     3.26132e+13 
            351     3.18892e+13 
            354     3.11835e+13 
            357     3.04955e+13 
            360     2.98249e+13 
            363     2.91711e+13 
            366     2.85338e+13 
            369     2.79124e+13 
            372     2.73066e+13 
            375     2.67160e+13 
            378     2.61402e+13 
            381     2.55788e+13 
            384     2.50313e+13 
            387     2.44975e+13 
            390     2.39769e+13 
            393     2.34692e+13 
            396     2.29741e+13 
            399     2.24912e+13 
            402     2.20202e+13 
            406     2.14102e+13 
            410       2.082e+13 
            414      2.0249e+13 
            418     1.96964e+13 
            422     1.91616e+13 
            426     1.86439e+13 
            430     1.81428e+13 
            434     1.76577e+13 
            438      1.7188e+13 
            442     1.67331e+13 
            446     1.62926e+13 
            450     1.58658e+13 
            454     1.54524e+13 
            458     1.50519e+13 
            462     1.46637e+13 
            466     1.42876e+13 
            470     1.39229e+13 
            474     1.35695e+13 
            478     1.32268e+13 
            482     1.28945e+13 
            486     1.25722e+13 
            490     1.22596e+13 
            494     1.19564e+13 
            498     1.16622e+13 
            502     1.13767e+13 
            507     1.10317e+13 
            512     1.06993e+13 
            517      1.0379e+13 
            522     1.00702e+13 
            527     9.77259e+12 
            532     9.48559e+12 
            537     9.20879e+12 
            542     8.94178e+12 
            547     8.68414e+12 
            552     8.43552e+12 
            557     8.19552e+12 
            562     7.96382e+12 
            567     7.74007e+12 
            572     7.52397e+12 
            577      7.3152e+12 
            582     7.11348e+12 
            587     6.91853e+12 
            592     6.73009e+12 
            597     6.54791e+12 
            602     6.37173e+12 
            608     6.16793e+12 
            614     5.97208e+12 
            620     5.78381e+12 
            626     5.60278e+12 
            632     5.42866e+12 
            638     5.26116e+12 
            644     5.09996e+12 
            650      4.9448e+12 
            656     4.79542e+12 
            662     4.65155e+12 
            668     4.51296e+12 
            674     4.37943e+12 
            680     4.25073e+12 
            686     4.12667e+12 
            692     4.00704e+12 
            698     3.89166e+12 
            704     3.78036e+12 
            711     3.65543e+12 
            718     3.53556e+12 
            725      3.4205e+12 
            732     3.31004e+12 
            739     3.20395e+12 
            746     3.10204e+12 
            753      3.0041e+12 
            760     2.90996e+12 
            767     2.81945e+12 
            774     2.73239e+12 
            781     2.64864e+12 
            788     2.56804e+12 
            795     2.49046e+12 
            802     2.41575e+12 
            810     2.33375e+12 
            818     2.25517e+12 
            826     2.17984e+12 
            834      2.1076e+12 
            842     2.03831e+12 
            850     1.97182e+12 
            858       1.908e+12 
            866     1.84672e+12 
            874     1.78787e+12 
            882     1.73132e+12 
            890     1.67698e+12 
            898     1.62474e+12 
            906     1.57451e+12 
            915     1.52028e+12 
            924     1.46835e+12 
            933      1.4186e+12 
            942     1.37093e+12 
            951     1.32524e+12 
            960     1.28142e+12 
            969     1.23939e+12 
            978     1.19906e+12 
            987     1.16034e+12 
            996     1.12317e+12 
           1005     1.08747e+12 
           1015     1.04944e+12 
           1025     1.01305e+12 
           1035      9.7822e+11 
           1045     9.44864e+11 
           1055     9.12911e+11 
           1065     8.82291e+11 
           1075      8.5294e+11 
           1085     8.24793e+11 
           1095     7.97793e+11 
           1105     7.71884e+11 
           1116     7.44583e+11 
           1127     7.18474e+11 
           1138     6.93494e+11 
           1149     6.69587e+11 
           1160     6.46698e+11 
           1171     6.24774e+11 
           1182     6.03769e+11 
           1193     5.83636e+11 
           1204     5.64332e+11 
           1216     5.44172e+11 
           1228     5.24902e+11 
           1240     5.06474e+11 
           1252     4.88845e+11 
           1264     4.71975e+11 
           1276     4.55824e+11 
           1288     4.40356e+11 
           1300     4.25536e+11 
           1313     4.10176e+11 
           1326     3.95502e+11 
           1339     3.81476e+11 
           1352     3.68064e+11 
           1365     3.55236e+11 
           1378      3.4296e+11 
           1391     3.31208e+11 
           1404     3.19955e+11 
           1418     3.08364e+11 
           1432     2.97292e+11 
           1446     2.86711e+11 
           1460     2.76596e+11 
           1474     2.66922e+11 
           1488     2.57666e+11 
           1502     2.48807e+11 
           1517     2.39733e+11 
           1532     2.31068e+11 
           1547     2.22791e+11 
           1562      2.1488e+11 
           1577     2.07316e+11 
           1592     2.00082e+11 
           1607      1.9316e+11 
           1623     1.86103e+11 
           1639     1.79364e+11 
           1655     1.72927e+11 
           1671     1.66776e+11 
           1687     1.60896e+11 
           1703     1.55272e+11 
           1720     1.49563e+11 
           1737     1.44113e+11 
           1754     1.38909e+11 
           1771     1.33938e+11 
           1788     1.29186e+11 
           1805     1.24644e+11 
           1823     1.20049e+11 
           1841     1.15664e+11 
           1859     1.11476e+11 
           1877     1.07477e+11 
           1895     1.03655e+11 
           1913     1.00001e+11 
           1932     9.63168e+10 
           1951     9.28006e+10 
           1970     8.94432e+10 
           1989     8.62361e+10 
           2008     8.31714e+10 
           2028     8.00908e+10 
           2048     7.71514e+10 
           2068     7.43455e+10 
           2088     7.16659e+10 
           2108     6.91058e+10 
           2129     6.65394e+10 
           2150     6.40909e+10 
           2171     6.17539e+10 
           2192     5.95224e+10 
           2213     5.73907e+10 
           2235     5.52588e+10 
           2257     5.32248e+10 
           2279     5.12835e+10 
           2301     4.94298e+10 
           2324     4.75805e+10 
           2347     4.58168e+10 
           2370      4.4134e+10 
           2393     4.25277e+10 
           2416     4.09938e+10 
           2440     3.94661e+10 
           2464     3.80089e+10 
           2488     3.66183e+10 
           2512     3.52906e+10 
           2537      3.3971e+10 
           2562     3.27124e+10 
           2587     3.15115e+10 
           2612     3.03652e+10 
           2638     2.92278e+10 
           2664     2.81431e+10 
           2690     2.71083e+10 
           2716     2.61205e+10 
           2743     2.51419e+10 
           2770     2.42086e+10 
           2797     2.33183e+10 
           2824     2.24684e+10 
           2852     2.16276e+10 
           2880     2.08257e+10 
           2908     2.00607e+10 
           2937     1.93049e+10 
           2966     1.85844e+10 
           2995     1.78972e+10 
           3024     1.72414e+10 
           3054     1.65944e+10 
           3084     1.59773e+10 
           3114     1.53887e+10 
           3145     1.48086e+10 
           3176     1.42556e+10 
           3207     1.37282e+10 
           3239     1.32091e+10 
           3271     1.27143e+10 
           3303     1.22424e+10 
           3336     1.17785e+10 
           3369     1.13363e+10 
           3402     1.09147e+10 
           3436     1.05006e+10 
           3470      1.0106e+10 
           3504      9.72966e+9 
           3539      9.36041e+9 
           3574      9.00850e+9 
           3609      8.67298e+9 
           3645        8.344e+9 
           3681      8.03047e+9 
           3717      7.73152e+9 
           3754      7.43862e+9 
           3791      7.15945e+9 
           3828      6.89326e+9 
           3866      6.63262e+9 
           3904      6.38418e+9 
           3943      6.14117e+9 
           3982      5.90962e+9 
           4021      5.68887e+9 
           4061      5.47306e+9 
           4101      5.26739e+9 
           4142      5.06651e+9 
           4183       4.8751e+9 
           4224      4.69265e+9 
           4266      4.51451e+9 
           4308      4.34474e+9 
           4351      4.17912e+9 
           4394      4.02131e+9 
           4437      3.87088e+9 
           4481      3.72415e+9 
           4525      3.58432e+9 
           4570      3.44802e+9 
           4615      3.31815e+9 
           4661      3.19164e+9 
           4707      3.07111e+9 
           4754      2.95377e+9 
           4801      2.84198e+9 
           4849      2.73322e+9 
           4897      2.62961e+9 
           4945      2.53087e+9 
           4994       2.4348e+9 
           5043      2.34324e+9 
           5093      2.25421e+9 
           5143      2.16936e+9 
           5194       2.0869e+9 
           5245      2.00831e+9 
           5297      1.93195e+9 
           5349      1.85919e+9 
           5402      1.78852e+9 
           5456      1.71993e+9 
           5510       1.6546e+9 
           5565      1.59122e+9 
           5620      1.53084e+9 
           5676      1.47228e+9 
           5732      1.41649e+9 
           5789      1.36239e+9 
           5846      1.31085e+9 
           5904      1.26089e+9 
           5963      1.21248e+9 
           6022      1.16637e+9 
           6082       1.1217e+9 
           6142      1.07916e+9 
           6203      1.03795e+9 
           6265      9.98058e+8 
           6327      9.60068e+8 
           6390      9.23297e+8 
           6453      8.88270e+8 
           6517      8.54372e+8 
           6582      8.21582e+8 
           6647      7.90351e+8 
           6713      7.60142e+8 
           6780      7.30938e+8 
           6847      7.03122e+8 
           6915      6.76231e+8 
           6984      6.50246e+8 
           7053      6.25496e+8 
           7123       6.0158e+8 
           7194      5.78478e+8 
           7265      5.56474e+8 
           7337      5.35219e+8 
           7410      5.14694e+8 
           7484      4.94882e+8 
           7558      4.76015e+8 
           7633      4.57800e+8 
           7709      4.40224e+8 
           7786      4.23267e+8 
           7863      4.07119e+8 
           7941      3.91539e+8 
           8020      3.76511e+8 
           8100      3.62021e+8 
           8181      3.48053e+8 
