# Black Body
# teff = 198000 K (value for the effective temperature for the model. Temperatures are given in K)
#
# column 1: WAVELENGTH (ANGSTROM), Wavelength in Angstrom
# column 2: FLUX (ERG/CM2/S/A), Flux in erg/cm2/s/A
              1               0 
              2    6.02064e-133 
              3     3.13495e-81 
              4     1.47931e-55 
              5      2.9149e-40 
              6      3.8737e-30 
              7     5.85135e-23 
              8     1.29626e-17 
              9     1.73787e-13 
             10     3.29382e-10 
             11       1.5124e-7 
             12      2.40713e-5 
             13      0.00170079 
             14       0.0636351 
             15         1.43434 
             16         21.4504 
             17         229.097 
             18         1850.19 
             19         11818.6 
             20         61896.2 
             21          273592 
             22      1.04512e+6 
             23       3.5182e+6 
             24      1.06074e+7 
             25       2.9036e+7 
             26       7.2993e+7 
             27      1.70167e+8 
             28      3.70973e+8 
             29      7.61711e+8 
             30      1.48222e+9 
             31      2.74818e+9 
             32      4.87788e+9 
             33      8.32259e+9 
             34     1.36994e+10 
             35     2.18248e+10 
             36     3.37474e+10 
             37     5.07771e+10 
             38     7.45097e+10 
             39     1.06844e+11 
             40     1.49993e+11 
             41     2.06481e+11 
             42     2.79137e+11 
             43     3.71076e+11 
             44     4.85668e+11 
             45     6.26506e+11 
             46      7.9736e+11 
             47     1.00212e+12 
             48     1.24478e+12 
             49      1.5293e+12 
             50     1.85965e+12 
             51      2.2397e+12 
             52     2.67314e+12 
             53     3.16349e+12 
             54     3.71401e+12 
             55     4.32768e+12 
             56     5.00715e+12 
             57     5.75471e+12 
             58     6.57227e+12 
             59     7.46135e+12 
             60     8.42304e+12 
             61     9.45804e+12 
             62     1.05666e+13 
             63     1.17486e+13 
             64     1.30035e+13 
             65     1.43303e+13 
             66     1.57277e+13 
             67     1.71941e+13 
             68     1.87274e+13 
             69     2.03253e+13 
             70     2.19853e+13 
             71     2.37045e+13 
             72     2.54798e+13 
             73     2.73079e+13 
             74     2.91855e+13 
             75     3.11089e+13 
             76     3.30744e+13 
             77     3.50782e+13 
             78     3.71165e+13 
             79     3.91853e+13 
             80     4.12808e+13 
             81      4.3399e+13 
             82     4.55361e+13 
             83      4.7688e+13 
             84     4.98512e+13 
             85     5.20217e+13 
             86      5.4196e+13 
             87     5.63704e+13 
             88     5.85416e+13 
             89     6.07062e+13 
             90     6.28609e+13 
             91     6.50027e+13 
             92     6.71286e+13 
             93     6.92358e+13 
             94     7.13216e+13 
             95     7.33834e+13 
             96     7.54189e+13 
             97     7.74258e+13 
             98      7.9402e+13 
             99     8.13455e+13 
            100     8.32546e+13 
            101     8.51275e+13 
            102     8.69626e+13 
            103     8.87587e+13 
            104     9.05143e+13 
            105     9.22284e+13 
            106     9.38998e+13 
            107     9.55278e+13 
            108     9.71115e+13 
            109     9.86502e+13 
            110     1.00143e+14 
            111      1.0159e+14 
            112     1.02991e+14 
            113     1.04345e+14 
            114     1.05652e+14 
            115     1.06912e+14 
            116     1.08126e+14 
            117     1.09292e+14 
            118     1.10411e+14 
            119     1.11483e+14 
            120     1.12509e+14 
            121     1.13489e+14 
            122     1.14423e+14 
            123     1.15312e+14 
            124     1.16156e+14 
            125     1.16955e+14 
            126      1.1771e+14 
            127     1.18422e+14 
            128     1.19091e+14 
            129     1.19718e+14 
            130     1.20304e+14 
            131     1.20849e+14 
            132     1.21354e+14 
            133     1.21819e+14 
            134     1.22246e+14 
            135     1.22634e+14 
            136     1.22986e+14 
            137     1.23302e+14 
            138     1.23582e+14 
            139     1.23827e+14 
            140     1.24038e+14 
            141     1.24216e+14 
            142     1.24361e+14 
            143     1.24476e+14 
            144     1.24559e+14 
            145     1.24612e+14 
            146     1.24636e+14 
            147     1.24632e+14 
            148     1.24601e+14 
            149     1.24542e+14 
            150     1.24458e+14 
            151     1.24348e+14 
            152     1.24214e+14 
            153     1.24056e+14 
            154     1.23875e+14 
            155     1.23672e+14 
            156     1.23447e+14 
            157     1.23201e+14 
            158     1.22936e+14 
            159      1.2265e+14 
            160     1.22346e+14 
            161     1.22024e+14 
            162     1.21685e+14 
            163     1.21328e+14 
            164     1.20956e+14 
            165     1.20568e+14 
            166     1.20165e+14 
            167     1.19747e+14 
            168     1.19316e+14 
            169     1.18872e+14 
            170     1.18414e+14 
            171     1.17945e+14 
            172     1.17464e+14 
            173     1.16972e+14 
            174     1.16469e+14 
            175     1.15956e+14 
            176     1.15434e+14 
            177     1.14902e+14 
            178     1.14362e+14 
            179     1.13813e+14 
            180     1.13257e+14 
            181     1.12693e+14 
            182     1.12122e+14 
            183     1.11544e+14 
            184      1.1096e+14 
            185     1.10371e+14 
            186     1.09775e+14 
            187     1.09175e+14 
            188      1.0857e+14 
            189      1.0796e+14 
            190     1.07346e+14 
            191     1.06728e+14 
            192     1.06107e+14 
            193     1.05482e+14 
            194     1.04855e+14 
            195     1.04224e+14 
            196     1.03592e+14 
            197     1.02957e+14 
            198      1.0232e+14 
            199     1.01681e+14 
            200     1.01041e+14 
            202     9.97578e+13 
            204     9.84711e+13 
            206     9.71827e+13 
            208     9.58943e+13 
            210      9.4607e+13 
            212     9.33223e+13 
            214     9.20413e+13 
            216      9.0765e+13 
            218     8.94946e+13 
            220     8.82309e+13 
            222     8.69748e+13 
            224     8.57271e+13 
            226     8.44884e+13 
            228     8.32596e+13 
            230      8.2041e+13 
            232     8.08334e+13 
            234     7.96371e+13 
            236     7.84526e+13 
            238     7.72803e+13 
            240     7.61206e+13 
            242     7.49737e+13 
            244       7.384e+13 
            246     7.27196e+13 
            248     7.16128e+13 
            250     7.05197e+13 
            252     6.94404e+13 
            254     6.83752e+13 
            256     6.73241e+13 
            258      6.6287e+13 
            260     6.52642e+13 
            262     6.42556e+13 
            264     6.32612e+13 
            266     6.22810e+13 
            268     6.13151e+13 
            270     6.03632e+13 
            272     5.94255e+13 
            274     5.85018e+13 
            276      5.7592e+13 
            278     5.66961e+13 
            280      5.5814e+13 
            282     5.49455e+13 
            284     5.40906e+13 
            286     5.32491e+13 
            288     5.24209e+13 
            290     5.16059e+13 
            292     5.08039e+13 
            294     5.00148e+13 
            296     4.92385e+13 
            298     4.84748e+13 
            300     4.77235e+13 
            303     4.66195e+13 
            306     4.55427e+13 
            309     4.44925e+13 
            312     4.34683e+13 
            315     4.24697e+13 
            318     4.14959e+13 
            321     4.05465e+13 
            324      3.9621e+13 
            327     3.87188e+13 
            330     3.78392e+13 
            333     3.69819e+13 
            336     3.61463e+13 
            339     3.53318e+13 
            342     3.45379e+13 
            345     3.37641e+13 
            348     3.30099e+13 
            351     3.22747e+13 
            354     3.15582e+13 
            357     3.08598e+13 
            360     3.01791e+13 
            363     2.95156e+13 
            366     2.88688e+13 
            369     2.82383e+13 
            372     2.76237e+13 
            375     2.70246e+13 
            378     2.64405e+13 
            381      2.5871e+13 
            384     2.53158e+13 
            387     2.47744e+13 
            390     2.42466e+13 
            393     2.37319e+13 
            396       2.323e+13 
            399     2.27405e+13 
            402     2.22631e+13 
            406     2.16448e+13 
            410     2.10467e+13 
            414     2.04681e+13 
            418     1.99082e+13 
            422     1.93664e+13 
            426     1.88420e+13 
            430     1.83345e+13 
            434     1.78432e+13 
            438     1.73675e+13 
            442     1.69069e+13 
            446     1.64609e+13 
            450     1.60288e+13 
            454     1.56103e+13 
            458     1.52049e+13 
            462      1.4812e+13 
            466     1.44313e+13 
            470     1.40623e+13 
            474     1.37047e+13 
            478     1.33579e+13 
            482     1.30217e+13 
            486     1.26957e+13 
            490     1.23794e+13 
            494     1.20727e+13 
            498     1.17751e+13 
            502     1.14864e+13 
            507     1.11375e+13 
            512     1.08013e+13 
            517     1.04774e+13 
            522     1.01653e+13 
            527     9.86434e+12 
            532      9.5742e+12 
            537     9.29438e+12 
            542     9.02448e+12 
            547     8.76408e+12 
            552     8.51279e+12 
            557     8.27025e+12 
            562      8.0361e+12 
            567        7.81e+12 
            572     7.59164e+12 
            577     7.38071e+12 
            582     7.17691e+12 
            587     6.97996e+12 
            592     6.78959e+12 
            597     6.60556e+12 
            602      6.4276e+12 
            608     6.22176e+12 
            614     6.02395e+12 
            620     5.83381e+12 
            626     5.65099e+12 
            632     5.47517e+12 
            638     5.30603e+12 
            644     5.14327e+12 
            650     4.98661e+12 
            656     4.83579e+12 
            662     4.69055e+12 
            668     4.55065e+12 
            674     4.41585e+12 
            680     4.28595e+12 
            686     4.16072e+12 
            692     4.03998e+12 
            698     3.92354e+12 
            704     3.81121e+12 
            711     3.68513e+12 
            718     3.56416e+12 
            725     3.44807e+12 
            732     3.33661e+12 
            739     3.22957e+12 
            746     3.12674e+12 
            753     3.02794e+12 
            760     2.93296e+12 
            767     2.84165e+12 
            774     2.75383e+12 
            781     2.66934e+12 
            788     2.58804e+12 
            795     2.50979e+12 
            802     2.43444e+12 
            810     2.35174e+12 
            818     2.27248e+12 
            826     2.19651e+12 
            834     2.12366e+12 
            842     2.05379e+12 
            850     1.98674e+12 
            858     1.92239e+12 
            866      1.8606e+12 
            874     1.80126e+12 
            882     1.74425e+12 
            890     1.68946e+12 
            898      1.6368e+12 
            906     1.58615e+12 
            915     1.53148e+12 
            924     1.47913e+12 
            933     1.42899e+12 
            942     1.38094e+12 
            951     1.33488e+12 
            960     1.29071e+12 
            969     1.24835e+12 
            978      1.2077e+12 
            987     1.16868e+12 
            996     1.13122e+12 
           1005     1.09524e+12 
           1015     1.05692e+12 
           1025     1.02024e+12 
           1035     9.85143e+11 
           1045     9.51531e+11 
           1055     9.19334e+11 
           1065     8.88481e+11 
           1075     8.58906e+11 
           1085     8.30547e+11 
           1095     8.03343e+11 
           1105      7.7724e+11 
           1116     7.49734e+11 
           1127      7.2343e+11 
           1138     6.98265e+11 
           1149     6.74181e+11 
           1160     6.51122e+11 
           1171     6.29038e+11 
           1182     6.07878e+11 
           1193     5.87598e+11 
           1204     5.68154e+11 
           1216     5.47847e+11 
           1228     5.28437e+11 
           1240     5.09876e+11 
           1252     4.92121e+11 
           1264      4.7513e+11 
           1276     4.58863e+11 
           1288     4.43284e+11 
           1300      4.2836e+11 
           1313     4.12891e+11 
           1326     3.98113e+11 
           1339     3.83988e+11 
           1352     3.70483e+11 
           1365     3.57565e+11 
           1378     3.45203e+11 
           1391      3.3337e+11 
           1404     3.22038e+11 
           1418     3.10367e+11 
           1432     2.99218e+11 
           1446     2.88565e+11 
           1460      2.7838e+11 
           1474      2.6864e+11 
           1488     2.59321e+11 
           1502     2.50402e+11 
           1517     2.41267e+11 
           1532     2.32543e+11 
           1547      2.2421e+11 
           1562     2.16246e+11 
           1577     2.08631e+11 
           1592     2.01348e+11 
           1607      1.9438e+11 
           1623     1.87276e+11 
           1639     1.80493e+11 
           1655     1.74013e+11 
           1671     1.67822e+11 
           1687     1.61902e+11 
           1703     1.56241e+11 
           1720     1.50495e+11 
           1737      1.4501e+11 
           1754     1.39772e+11 
           1771     1.34768e+11 
           1788     1.29985e+11 
           1805     1.25413e+11 
           1823     1.20788e+11 
           1841     1.16375e+11 
           1859     1.12161e+11 
           1877     1.08135e+11 
           1895     1.04289e+11 
           1913     1.00612e+11 
           1932     9.69039e+10 
           1951     9.33653e+10 
           1970     8.99866e+10 
           1989     8.67592e+10 
           2008      8.3675e+10 
           2028      8.0575e+10 
           2048     7.76170e+10 
           2068     7.47935e+10 
           2088      7.2097e+10 
           2108     6.95208e+10 
           2129     6.69384e+10 
           2150     6.44746e+10 
           2171     6.21231e+10 
           2192     5.98777e+10 
           2213     5.77328e+10 
           2235     5.55876e+10 
           2257     5.35410e+10 
           2279     5.15878e+10 
           2301     4.97227e+10 
           2324      4.7862e+10 
           2347     4.60874e+10 
           2370     4.43943e+10 
           2393     4.27782e+10 
           2416     4.12349e+10 
           2440     3.96979e+10 
           2464     3.82318e+10 
           2488     3.68328e+10 
           2512     3.54971e+10 
           2537     3.41694e+10 
           2562     3.29032e+10 
           2587     3.16952e+10 
           2612      3.0542e+10 
           2638     2.93977e+10 
           2664     2.83065e+10 
           2690     2.72654e+10 
           2716     2.62717e+10 
           2743     2.52872e+10 
           2770     2.43484e+10 
           2797     2.34528e+10 
           2824     2.25979e+10 
           2852     2.17521e+10 
           2880     2.09454e+10 
           2908     2.01758e+10 
           2937     1.94156e+10 
           2966     1.86908e+10 
           2995     1.79996e+10 
           3024       1.734e+10 
           3054     1.66891e+10 
           3084     1.60684e+10 
           3114     1.54763e+10 
           3145     1.48929e+10 
           3176     1.43367e+10 
           3207     1.38062e+10 
           3239      1.3284e+10 
           3271     1.27863e+10 
           3303     1.23117e+10 
           3336     1.18451e+10 
           3369     1.14003e+10 
           3402     1.09763e+10 
           3436     1.05598e+10 
           3470     1.01628e+10 
           3504      9.78437e+9 
           3539        9.413e+9 
           3574      9.05907e+9 
           3609      8.72161e+9 
           3645      8.39074e+9 
           3681      8.07541e+9 
           3717      7.77475e+9 
           3754      7.48017e+9 
           3791      7.19941e+9 
           3828      6.93169e+9 
           3866      6.66956e+9 
           3904      6.41971e+9 
           3943      6.17532e+9 
           3982      5.94245e+9 
           4021      5.72045e+9 
           4061      5.50342e+9 
           4101      5.29658e+9 
           4142      5.09456e+9 
           4183      4.90207e+9 
           4224      4.71859e+9 
           4266      4.53944e+9 
           4308      4.36872e+9 
           4351      4.20216e+9 
           4394      4.04346e+9 
           4437      3.89219e+9 
           4481      3.74464e+9 
           4525      3.60402e+9 
           4570      3.46696e+9 
           4615      3.33636e+9 
           4661      3.20915e+9 
           4707      3.08794e+9 
           4754      2.96994e+9 
           4801      2.85754e+9 
           4849      2.74817e+9 
           4897      2.64398e+9 
           4945      2.54468e+9 
           4994      2.44808e+9 
           5043      2.35602e+9 
           5093      2.26649e+9 
           5143      2.18118e+9 
           5194      2.09825e+9 
           5245      2.01923e+9 
           5297      1.94245e+9 
           5349      1.86928e+9 
           5402      1.79822e+9 
           5456      1.72926e+9 
           5510      1.66357e+9 
           5565      1.59984e+9 
           5620      1.53913e+9 
           5676      1.48024e+9 
           5732      1.42415e+9 
           5789      1.36976e+9 
           5846      1.31793e+9 
           5904      1.26769e+9 
           5963      1.21902e+9 
           6022      1.17266e+9 
           6082      1.12775e+9 
           6142      1.08497e+9 
           6203      1.04353e+9 
           6265      1.00343e+9 
           6327      9.65228e+8 
           6390      9.28257e+8 
           6453      8.93039e+8 
           6517      8.58956e+8 
           6582      8.25988e+8 
           6647      7.94587e+8 
           6713      7.64214e+8 
           6780      7.34851e+8 
           6847      7.06885e+8 
           6915      6.79848e+8 
           6984      6.53722e+8 
           7053      6.28839e+8 
           7123      6.04793e+8 
           7194      5.81566e+8 
           7265      5.59444e+8 
           7337      5.38073e+8 
           7410      5.17438e+8 
           7484      4.97519e+8 
           7558       4.7855e+8 
           7633      4.60237e+8 
           7709      4.42566e+8 
           7786      4.25518e+8 
           7863      4.09283e+8 
           7941      3.93619e+8 
           8020      3.78511e+8 
           8100      3.63943e+8 
           8181        3.499e+8 
