# Black Body
# teff = 193000 K (value for the effective temperature for the model. Temperatures are given in K)
#
# column 1: WAVELENGTH (ANGSTROM), Wavelength in Angstrom
# column 2: FLUX (ERG/CM2/S/A), Flux in erg/cm2/s/A
              1               0 
              2    4.91801e-137 
              3     5.90195e-84 
              4     1.33701e-57 
              5     6.75277e-42 
              6     1.68077e-31 
              7     3.97464e-24 
              8     1.23234e-18 
              9     2.14588e-14 
             10     5.01337e-11 
             11      2.73162e-8 
             12      5.01406e-6 
             13     0.000399715 
             14       0.0165851 
             15         0.40889 
             16         6.61384 
             17            75.7 
             18         650.146 
             19         4387.99 
             20         24147.9 
             21          111631 
             22          444163 
             23      1.55187e+6 
             24      4.84123e+6 
             25      1.36744e+7 
             26      3.53859e+7 
             27      8.47369e+7 
             28      1.89388e+8 
             29      3.97987e+8 
             30      7.91386e+8 
             31      1.49732e+9 
             32      2.70857e+9 
             33      4.70446e+9 
             34       7.8748e+9 
             35     1.27456e+10 
             36      2.0005e+10 
             37     3.05283e+10 
             38     4.54007e+10 
             39     6.59353e+10 
             40     9.36867e+10 
             41     1.30458e+11 
             42     1.78303e+11 
             43     2.39513e+11 
             44     3.16613e+11 
             45     4.12328e+11 
             46     5.29568e+11 
             47     6.71383e+11 
             48     8.40937e+11 
             49     1.04146e+12 
             50      1.2762e+12 
             51     1.54839e+12 
             52     1.86121e+12 
             53     2.21772e+12 
             54     2.62084e+12 
             55     3.07331e+12 
             56     3.57763e+12 
             57     4.13609e+12 
             58     4.75067e+12 
             59     5.42307e+12 
             60      6.1547e+12 
             61      6.9466e+12 
             62     7.79954e+12 
             63      8.7139e+12 
             64     9.68976e+12 
             65     1.07269e+13 
             66     1.18247e+13 
             67     1.29823e+13 
             68     1.41985e+13 
             69      1.5472e+13 
             70     1.68009e+13 
             71     1.81834e+13 
             72     1.96173e+13 
             73     2.11003e+13 
             74     2.26297e+13 
             75      2.4203e+13 
             76     2.58172e+13 
             77     2.74696e+13 
             78     2.91569e+13 
             79     3.08762e+13 
             80     3.26243e+13 
             81     3.43981e+13 
             82     3.61942e+13 
             83     3.80096e+13 
             84      3.9841e+13 
             85     4.16853e+13 
             86     4.35394e+13 
             87     4.54002e+13 
             88     4.72647e+13 
             89     4.91301e+13 
             90     5.09934e+13 
             91     5.28519e+13 
             92      5.4703e+13 
             93     5.65441e+13 
             94     5.83728e+13 
             95     6.01867e+13 
             96     6.19836e+13 
             97     6.37613e+13 
             98     6.55179e+13 
             99     6.72515e+13 
            100     6.89603e+13 
            101     7.06426e+13 
            102     7.22969e+13 
            103     7.39218e+13 
            104     7.55158e+13 
            105      7.7078e+13 
            106      7.8607e+13 
            107     8.01018e+13 
            108     8.15617e+13 
            109     8.29858e+13 
            110     8.43733e+13 
            111     8.57236e+13 
            112     8.70362e+13 
            113     8.83107e+13 
            114     8.95466e+13 
            115     9.07437e+13 
            116     9.19017e+13 
            117     9.30206e+13 
            118     9.41001e+13 
            119     9.51403e+13 
            120     9.61412e+13 
            121     9.71029e+13 
            122     9.80256e+13 
            123     9.89094e+13 
            124     9.97545e+13 
            125     1.00561e+14 
            126      1.0133e+14 
            127     1.02061e+14 
            128     1.02755e+14 
            129     1.03412e+14 
            130     1.04033e+14 
            131     1.04618e+14 
            132     1.05167e+14 
            133     1.05682e+14 
            134     1.06162e+14 
            135     1.06608e+14 
            136     1.07022e+14 
            137     1.07402e+14 
            138     1.07751e+14 
            139     1.08068e+14 
            140     1.08355e+14 
            141     1.08612e+14 
            142     1.08839e+14 
            143     1.09038e+14 
            144     1.09208e+14 
            145     1.09351e+14 
            146     1.09467e+14 
            147     1.09557e+14 
            148     1.09621e+14 
            149     1.09660e+14 
            150     1.09676e+14 
            151     1.09668e+14 
            152     1.09636e+14 
            153     1.09583e+14 
            154     1.09508e+14 
            155     1.09411e+14 
            156     1.09295e+14 
            157     1.09158e+14 
            158     1.09003e+14 
            159     1.08828e+14 
            160     1.08636e+14 
            161     1.08426e+14 
            162       1.082e+14 
            163     1.07957e+14 
            164     1.07698e+14 
            165     1.07424e+14 
            166     1.07136e+14 
            167     1.06833e+14 
            168     1.06517e+14 
            169     1.06187e+14 
            170     1.05845e+14 
            171     1.05490e+14 
            172     1.05124e+14 
            173     1.04747e+14 
            174     1.04359e+14 
            175     1.03961e+14 
            176     1.03552e+14 
            177     1.03135e+14 
            178     1.02708e+14 
            179     1.02272e+14 
            180     1.01828e+14 
            181     1.01377e+14 
            182     1.00918e+14 
            183     1.00451e+14 
            184     9.99782e+13 
            185     9.94987e+13 
            186      9.9013e+13 
            187     9.85216e+13 
            188     9.80247e+13 
            189     9.75226e+13 
            190     9.70157e+13 
            191     9.65043e+13 
            192     9.59886e+13 
            193     9.54688e+13 
            194     9.49454e+13 
            195     9.44185e+13 
            196     9.38884e+13 
            197     9.33554e+13 
            198     9.28196e+13 
            199     9.22813e+13 
            200     9.17408e+13 
            202     9.06537e+13 
            204     8.95602e+13 
            206     8.84616e+13 
            208     8.73595e+13 
            210     8.62552e+13 
            212     8.51499e+13 
            214      8.4045e+13 
            216     8.29414e+13 
            218     8.18401e+13 
            220     8.07422e+13 
            222     7.96485e+13 
            224     7.85598e+13 
            226     7.74769e+13 
            228     7.64004e+13 
            230      7.5331e+13 
            232     7.42693e+13 
            234     7.32158e+13 
            236     7.21709e+13 
            238     7.11351e+13 
            240     7.01088e+13 
            242     6.90924e+13 
            244     6.80862e+13 
            246     6.70904e+13 
            248     6.61054e+13 
            250     6.51313e+13 
            252     6.41684e+13 
            254     6.32167e+13 
            256     6.22765e+13 
            258     6.13479e+13 
            260      6.0431e+13 
            262     5.95258e+13 
            264     5.86324e+13 
            266     5.77509e+13 
            268     5.68812e+13 
            270     5.60235e+13 
            272     5.51776e+13 
            274     5.43436e+13 
            276     5.35215e+13 
            278     5.27111e+13 
            280     5.19126e+13 
            282     5.11257e+13 
            284     5.03504e+13 
            286     4.95867e+13 
            288     4.88345e+13 
            290     4.80937e+13 
            292     4.73642e+13 
            294     4.66458e+13 
            296     4.59386e+13 
            298     4.52423e+13 
            300     4.45569e+13 
            303      4.3549e+13 
            306     4.25648e+13 
            309     4.16040e+13 
            312     4.06662e+13 
            315     3.97509e+13 
            318     3.88576e+13 
            321      3.7986e+13 
            324     3.71356e+13 
            327     3.63058e+13 
            330     3.54964e+13 
            333     3.47067e+13 
            336     3.39365e+13 
            339     3.31852e+13 
            342     3.24523e+13 
            345     3.17376e+13 
            348     3.10404e+13 
            351     3.03604e+13 
            354     2.96973e+13 
            357     2.90505e+13 
            360     2.84197e+13 
            363     2.78044e+13 
            366     2.72044e+13 
            369     2.66191e+13 
            372     2.60482e+13 
            375     2.54914e+13 
            378     2.49483e+13 
            381     2.44185e+13 
            384     2.39017e+13 
            387     2.33976e+13 
            390     2.29058e+13 
            393      2.2426e+13 
            396     2.19579e+13 
            399     2.15011e+13 
            402     2.10555e+13 
            406     2.04781e+13 
            410     1.99192e+13 
            414     1.93782e+13 
            418     1.88544e+13 
            422     1.83473e+13 
            426     1.78562e+13 
            430     1.73807e+13 
            434     1.69201e+13 
            438      1.6474e+13 
            442     1.60418e+13 
            446      1.5623e+13 
            450     1.52173e+13 
            454     1.48241e+13 
            458      1.4443e+13 
            462     1.40735e+13 
            466     1.37154e+13 
            470     1.33681e+13 
            474     1.30313e+13 
            478     1.27048e+13 
            482      1.2388e+13 
            486     1.20806e+13 
            490     1.17825e+13 
            494     1.14932e+13 
            498     1.12124e+13 
            502     1.09398e+13 
            507     1.06104e+13 
            512     1.02928e+13 
            517     9.98675e+12 
            522     9.69164e+12 
            527     9.40706e+12 
            532     9.13256e+12 
            537     8.86775e+12 
            542     8.61222e+12 
            547     8.36561e+12 
            552     8.12755e+12 
            557     7.89769e+12 
            562     7.67572e+12 
            567     7.46132e+12 
            572     7.25419e+12 
            577     7.05405e+12 
            582     6.86062e+12 
            587     6.67363e+12 
            592     6.49285e+12 
            597     6.31803e+12 
            602     6.14894e+12 
            608     5.95329e+12 
            614     5.76522e+12 
            620     5.58439e+12 
            626     5.41048e+12 
            632     5.24316e+12 
            638     5.08216e+12 
            644      4.9272e+12 
            650       4.778e+12 
            656     4.63433e+12 
            662     4.49593e+12 
            668     4.36259e+12 
            674     4.23408e+12 
            680     4.11021e+12 
            686     3.99077e+12 
            692     3.87558e+12 
            698     3.76446e+12 
            704     3.65725e+12 
            711     3.53688e+12 
            718     3.42137e+12 
            725     3.31048e+12 
            732       3.204e+12 
            739     3.10171e+12 
            746     3.00343e+12 
            753     2.90897e+12 
            760     2.81816e+12 
            767     2.73082e+12 
            774     2.64681e+12 
            781     2.56597e+12 
            788     2.48817e+12 
            795     2.41326e+12 
            802     2.34113e+12 
            810     2.26193e+12 
            818     2.18603e+12 
            826     2.11325e+12 
            834     2.04345e+12 
            842     1.97649e+12 
            850     1.91222e+12 
            858     1.85053e+12 
            866     1.79129e+12 
            874     1.73438e+12 
            882     1.67969e+12 
            890     1.62713e+12 
            898     1.57659e+12 
            906     1.52799e+12 
            915     1.47552e+12 
            924     1.42526e+12 
            933     1.37711e+12 
            942     1.33097e+12 
            951     1.28673e+12 
            960      1.2443e+12 
            969      1.2036e+12 
            978     1.16453e+12 
            987     1.12703e+12 
            996     1.09102e+12 
           1005     1.05643e+12 
           1015     1.01958e+12 
           1025     9.84317e+11 
           1035     9.50555e+11 
           1045     9.18222e+11 
           1055     8.87245e+11 
           1065     8.57558e+11 
           1075     8.29096e+11 
           1085       8.018e+11 
           1095     7.75613e+11 
           1105     7.50482e+11 
           1116     7.23997e+11 
           1127     6.98666e+11 
           1138     6.74428e+11 
           1149     6.51229e+11 
           1160     6.29014e+11 
           1171     6.07735e+11 
           1182     5.87345e+11 
           1193     5.67800e+11 
           1204     5.49059e+11 
           1216     5.29484e+11 
           1228     5.10771e+11 
           1240     4.92874e+11 
           1252     4.75752e+11 
           1264     4.59365e+11 
           1276     4.43675e+11 
           1288     4.28647e+11 
           1300     4.14249e+11 
           1313     3.99324e+11 
           1326     3.85063e+11 
           1339     3.71432e+11 
           1352     3.58396e+11 
           1365     3.45927e+11 
           1378     3.33993e+11 
           1391     3.22568e+11 
           1404     3.11627e+11 
           1418     3.00356e+11 
           1432     2.89589e+11 
           1446     2.79299e+11 
           1460     2.69461e+11 
           1474     2.60052e+11 
           1488     2.51048e+11 
           1502     2.42430e+11 
           1517     2.33603e+11 
           1532     2.25172e+11 
           1547     2.17118e+11 
           1562      2.0942e+11 
           1577     2.02059e+11 
           1592     1.95018e+11 
           1607     1.88281e+11 
           1623     1.81412e+11 
           1639     1.74852e+11 
           1655     1.68586e+11 
           1671     1.62598e+11 
           1687     1.56872e+11 
           1703     1.51396e+11 
           1720     1.45837e+11 
           1737      1.4053e+11 
           1754     1.35462e+11 
           1771      1.3062e+11 
           1788     1.25992e+11 
           1805     1.21567e+11 
           1823     1.17091e+11 
           1841     1.12819e+11 
           1859      1.0874e+11 
           1877     1.04843e+11 
           1895     1.01119e+11 
           1913     9.75588e+10 
           1932     9.39688e+10 
           1951     9.05422e+10 
           1970     8.72702e+10 
           1989     8.41445e+10 
           2008     8.11574e+10 
           2028     7.81547e+10 
           2048     7.52894e+10 
           2068     7.25541e+10 
           2088     6.99418e+10 
           2108     6.74459e+10 
           2129     6.49437e+10 
           2150     6.25564e+10 
           2171     6.02776e+10 
           2192     5.81016e+10 
           2213     5.60228e+10 
           2235     5.39437e+10 
           2257     5.19600e+10 
           2279     5.00667e+10 
           2301     4.82587e+10 
           2324     4.64548e+10 
           2347     4.47344e+10 
           2370     4.30929e+10 
           2393     4.15259e+10 
           2416     4.00294e+10 
           2440      3.8539e+10 
           2464     3.71172e+10 
           2488     3.57604e+10 
           2512      3.4465e+10 
           2537     3.31773e+10 
           2562     3.19491e+10 
           2587     3.07773e+10 
           2612     2.96586e+10 
           2638     2.85485e+10 
           2664     2.74899e+10 
           2690     2.64798e+10 
           2716     2.55157e+10 
           2743     2.45605e+10 
           2770     2.36495e+10 
           2797     2.27804e+10 
           2824     2.19508e+10 
           2852     2.11299e+10 
           2880     2.03470e+10 
           2908     1.96001e+10 
           2937     1.88622e+10 
           2966     1.81588e+10 
           2995     1.74877e+10 
           3024     1.68474e+10 
           3054     1.62156e+10 
           3084      1.5613e+10 
           3114     1.50382e+10 
           3145     1.44717e+10 
           3176     1.39317e+10 
           3207     1.34166e+10 
           3239     1.29096e+10 
           3271     1.24263e+10 
           3303     1.19654e+10 
           3336     1.15122e+10 
           3369     1.10803e+10 
           3402     1.06685e+10 
           3436      1.0264e+10 
           3470      9.87842e+9 
           3504      9.51082e+9 
           3539      9.15008e+9 
           3574      8.80628e+9 
           3609      8.47847e+9 
           3645      8.15705e+9 
           3681      7.85071e+9 
           3717      7.55862e+9 
           3754      7.27242e+9 
           3791      6.99964e+9 
           3828      6.73952e+9 
           3866      6.48483e+9 
           3904      6.24205e+9 
           3943      6.00458e+9 
           3982      5.77829e+9 
           4021      5.56256e+9 
           4061      5.35165e+9 
           4101      5.15064e+9 
           4142       4.9543e+9 
           4183      4.76723e+9 
           4224       4.5889e+9 
           4266      4.41478e+9 
           4308      4.24884e+9 
           4351      4.08694e+9 
           4394      3.93269e+9 
           4437      3.78564e+9 
           4481      3.64221e+9 
           4525      3.50551e+9 
           4570      3.37227e+9 
           4615      3.24531e+9 
           4661      3.12163e+9 
           4707      3.00379e+9 
           4754      2.88907e+9 
           4801      2.77978e+9 
           4849      2.67344e+9 
           4897      2.57214e+9 
           4945      2.47559e+9 
           4994      2.38166e+9 
           5043      2.29214e+9 
           5093      2.20508e+9 
           5143      2.12212e+9 
           5194      2.04148e+9 
           5245      1.96463e+9 
           5297      1.88996e+9 
           5349       1.8188e+9 
           5402      1.74969e+9 
           5456      1.68262e+9 
           5510      1.61873e+9 
           5565      1.55674e+9 
           5620       1.4977e+9 
           5676      1.44042e+9 
           5732      1.38586e+9 
           5789      1.33295e+9 
           5846      1.28254e+9 
           5904      1.23367e+9 
           5963      1.18632e+9 
           6022      1.14122e+9 
           6082      1.09753e+9 
           6142      1.05592e+9 
           6203      1.01561e+9 
           6265       9.7659e+8 
           6327      9.39428e+8 
           6390      9.03459e+8 
           6453      8.69195e+8 
           6517      8.36034e+8 
           6582      8.03958e+8 
           6647      7.73406e+8 
           6713      7.43853e+8 
           6780      7.15283e+8 
           6847      6.88071e+8 
           6915      6.61763e+8 
           6984      6.36341e+8 
           7053      6.12127e+8 
           7123      5.88728e+8 
           7194      5.66126e+8 
           7265      5.44598e+8 
           7337      5.23802e+8 
           7410       5.0372e+8 
           7484      4.84336e+8 
           7558      4.65875e+8 
           7633      4.48053e+8 
           7709      4.30855e+8 
           7786      4.14264e+8 
           7863      3.98463e+8 
           7941      3.83218e+8 
           8020      3.68513e+8 
           8100      3.54334e+8 
           8181      3.40666e+8 
