# Black Body
# teff = 200000 K (value for the effective temperature for the model. Temperatures are given in K)
#
# column 1: WAVELENGTH (ANGSTROM), Wavelength in Angstrom
# column 2: FLUX (ERG/CM2/S/A), Flux in erg/cm2/s/A
              1               0 
              2      2.278e-131 
              3     3.53323e-80 
              4     9.09946e-55 
              5     1.24677e-39 
              6     1.30046e-29 
              7     1.65229e-22 
              8     3.21493e-17 
              9     3.89642e-13 
             10     6.81213e-10 
             11      2.92792e-7 
             12      4.41046e-5 
             13      0.00297445 
             14        0.106933 
             15         2.32831 
             16         33.7812 
             17         351.283 
             18         2770.38 
             19         17324.6 
             20         89013.3 
             21          386706 
             22      1.45416e+6 
             23      4.82536e+6 
             24      1.43583e+7 
             25      3.88302e+7 
             26      9.65292e+7 
             27       2.2272e+8 
             28      4.80894e+8 
             29      9.78614e+8 
             30      1.88845e+9 
             31      3.47413e+9 
             32       6.1214e+9 
             33     1.03726e+10 
             34     1.69637e+10 
             35     2.68607e+10 
             36     4.12955e+10 
             37     6.17960e+10 
             38     9.02113e+10 
             39     1.28727e+11 
             40     1.79873e+11 
             41     2.46519e+11 
             42     3.31861e+11 
             43     4.39394e+11 
             44     5.72879e+11 
             45       7.363e+11 
             46     9.33811e+11 
             47     1.16968e+12 
             48     1.44823e+12 
             49     1.77377e+12 
             50     2.15055e+12 
             51     2.58266e+12 
             52     3.07404e+12 
             53     3.62836e+12 
             54     4.24898e+12 
             55     4.93894e+12 
             56     5.70092e+12 
             57     6.53716e+12 
             58     7.44949e+12 
             59     8.43929e+12 
             60      9.5075e+12 
             61     1.06546e+13 
             62     1.18806e+13 
             63      1.3185e+13 
             64      1.4567e+13 
             65     1.60253e+13 
             66     1.75583e+13 
             67     1.91638e+13 
             68     2.08395e+13 
             69     2.25827e+13 
             70     2.43903e+13 
             71     2.62591e+13 
             72     2.81857e+13 
             73     3.01663e+13 
             74      3.2197e+13 
             75      3.4274e+13 
             76     3.63931e+13 
             77     3.85501e+13 
             78     4.07408e+13 
             79     4.29611e+13 
             80     4.52065e+13 
             81     4.74729e+13 
             82     4.97562e+13 
             83      5.2052e+13 
             84     5.43565e+13 
             85     5.66656e+13 
             86     5.89754e+13 
             87     6.12821e+13 
             88     6.35822e+13 
             89     6.58722e+13 
             90     6.81485e+13 
             91     7.04082e+13 
             92     7.26479e+13 
             93     7.48649e+13 
             94     7.70564e+13 
             95     7.92197e+13 
             96     8.13525e+13 
             97     8.34524e+13 
             98     8.55173e+13 
             99     8.75452e+13 
            100     8.95343e+13 
            101     9.14829e+13 
            102     9.33895e+13 
            103     9.52527e+13 
            104     9.70713e+13 
            105     9.88441e+13 
            106      1.0057e+14 
            107     1.02249e+14 
            108     1.03879e+14 
            109      1.0546e+14 
            110     1.06992e+14 
            111     1.08474e+14 
            112     1.09906e+14 
            113     1.11288e+14 
            114     1.12619e+14 
            115     1.13899e+14 
            116      1.1513e+14 
            117      1.1631e+14 
            118      1.1744e+14 
            119      1.1852e+14 
            120      1.1955e+14 
            121     1.20532e+14 
            122     1.21465e+14 
            123      1.2235e+14 
            124     1.23187e+14 
            125     1.23978e+14 
            126     1.24722e+14 
            127      1.2542e+14 
            128     1.26073e+14 
            129     1.26682e+14 
            130     1.27248e+14 
            131      1.2777e+14 
            132     1.28251e+14 
            133     1.28690e+14 
            134      1.2909e+14 
            135     1.29449e+14 
            136      1.2977e+14 
            137     1.30054e+14 
            138       1.303e+14 
            139      1.3051e+14 
            140     1.30685e+14 
            141     1.30825e+14 
            142     1.30932e+14 
            143     1.31007e+14 
            144      1.3105e+14 
            145     1.31061e+14 
            146     1.31043e+14 
            147     1.30996e+14 
            148      1.3092e+14 
            149     1.30817e+14 
            150     1.30687e+14 
            151     1.30531e+14 
            152      1.3035e+14 
            153     1.30145e+14 
            154     1.29917e+14 
            155     1.29665e+14 
            156     1.29392e+14 
            157     1.29098e+14 
            158     1.28783e+14 
            159     1.28449e+14 
            160     1.28095e+14 
            161     1.27723e+14 
            162     1.27334e+14 
            163     1.26928e+14 
            164     1.26505e+14 
            165     1.26066e+14 
            166     1.25613e+14 
            167     1.25146e+14 
            168     1.24664e+14 
            169     1.24169e+14 
            170     1.23662e+14 
            171     1.23142e+14 
            172     1.22611e+14 
            173      1.2207e+14 
            174     1.21517e+14 
            175     1.20955e+14 
            176     1.20383e+14 
            177     1.19802e+14 
            178     1.19212e+14 
            179     1.18615e+14 
            180      1.1801e+14 
            181     1.17398e+14 
            182     1.16778e+14 
            183     1.16153e+14 
            184     1.15522e+14 
            185     1.14884e+14 
            186     1.14242e+14 
            187     1.13595e+14 
            188     1.12943e+14 
            189     1.12288e+14 
            190     1.11628e+14 
            191     1.10965e+14 
            192     1.10298e+14 
            193     1.09629e+14 
            194     1.08957e+14 
            195     1.08283e+14 
            196     1.07606e+14 
            197     1.06928e+14 
            198     1.06248e+14 
            199     1.05567e+14 
            200     1.04885e+14 
            202     1.03518e+14 
            204      1.0215e+14 
            206     1.00782e+14 
            208     9.94144e+13 
            210       9.805e+13 
            212     9.66896e+13 
            214     9.53345e+13 
            216     9.39857e+13 
            218     9.26442e+13 
            220     9.13109e+13 
            222     8.99867e+13 
            224     8.86723e+13 
            226     8.73685e+13 
            228     8.60759e+13 
            230     8.47950e+13 
            232     8.35265e+13 
            234     8.22706e+13 
            236      8.1028e+13 
            238     7.97988e+13 
            240     7.85835e+13 
            242     7.73824e+13 
            244     7.61956e+13 
            246     7.50234e+13 
            248      7.3866e+13 
            250     7.27235e+13 
            252     7.15960e+13 
            254     7.04837e+13 
            256     6.93866e+13 
            258     6.83047e+13 
            260      6.7238e+13 
            262     6.61866e+13 
            264     6.51505e+13 
            266     6.41296e+13 
            268     6.31238e+13 
            270     6.21331e+13 
            272     6.11574e+13 
            274     6.01967e+13 
            276     5.92508e+13 
            278     5.83197e+13 
            280     5.74031e+13 
            282     5.65011e+13 
            284     5.56134e+13 
            286     5.47398e+13 
            288     5.38804e+13 
            290     5.30349e+13 
            292     5.22032e+13 
            294      5.1385e+13 
            296     5.05803e+13 
            298     4.97889e+13 
            300     4.90105e+13 
            303     4.78672e+13 
            306     4.67524e+13 
            309     4.56656e+13 
            312      4.4606e+13 
            315     4.35732e+13 
            318     4.25665e+13 
            321     4.15853e+13 
            324     4.06291e+13 
            327     3.96972e+13 
            330     3.87891e+13 
            333     3.79041e+13 
            336     3.70418e+13 
            339     3.62015e+13 
            342     3.53826e+13 
            345     3.45848e+13 
            348     3.38073e+13 
            351     3.30497e+13 
            354     3.23114e+13 
            357      3.1592e+13 
            360      3.0891e+13 
            363     3.02078e+13 
            366      2.9542e+13 
            369     2.88931e+13 
            372     2.82607e+13 
            375     2.76444e+13 
            378     2.70436e+13 
            381      2.6458e+13 
            384     2.58872e+13 
            387     2.53307e+13 
            390     2.47882e+13 
            393     2.42594e+13 
            396     2.37437e+13 
            399     2.32409e+13 
            402     2.27506e+13 
            406     2.21157e+13 
            410     2.15018e+13 
            414     2.09079e+13 
            418     2.03334e+13 
            422     1.97775e+13 
            426     1.92397e+13 
            430     1.87192e+13 
            434     1.82154e+13 
            438     1.77278e+13 
            442     1.72557e+13 
            446     1.67986e+13 
            450     1.63559e+13 
            454     1.59272e+13 
            458     1.55119e+13 
            462     1.51095e+13 
            466     1.47197e+13 
            470      1.4342e+13 
            474     1.39758e+13 
            478     1.36209e+13 
            482     1.32769e+13 
            486     1.29433e+13 
            490     1.26198e+13 
            494      1.2306e+13 
            498     1.20016e+13 
            502     1.17064e+13 
            507     1.13496e+13 
            512     1.10059e+13 
            517     1.06748e+13 
            522     1.03558e+13 
            527     1.00483e+13 
            532     9.75181e+12 
            537     9.46595e+12 
            542     9.19024e+12 
            547     8.92428e+12 
            552     8.66766e+12 
            557     8.42001e+12 
            562     8.18095e+12 
            567     7.95014e+12 
            572     7.72726e+12 
            577     7.51198e+12 
            582       7.304e+12 
            587     7.10304e+12 
            592     6.90881e+12 
            597     6.72107e+12 
            602     6.53954e+12 
            608     6.32959e+12 
            614     6.12786e+12 
            620     5.93398e+12 
            626     5.74758e+12 
            632     5.56833e+12 
            638     5.39591e+12 
            644     5.23002e+12 
            650     5.07036e+12 
            656     4.91667e+12 
            662     4.76868e+12 
            668     4.62614e+12 
            674     4.48881e+12 
            680     4.35648e+12 
            686     4.22893e+12 
            692     4.10596e+12 
            698     3.98737e+12 
            704     3.87299e+12 
            711     3.74461e+12 
            718     3.62145e+12 
            725     3.50326e+12 
            732     3.38980e+12 
            739     3.28086e+12 
            746      3.1762e+12 
            753     3.07565e+12 
            760     2.97901e+12 
            767      2.8861e+12 
            774     2.79675e+12 
            781      2.7108e+12 
            788     2.62809e+12 
            795     2.54849e+12 
            802     2.47186e+12 
            810     2.38774e+12 
            818     2.30714e+12 
            826     2.22989e+12 
            834     2.15582e+12 
            842     2.08478e+12 
            850     2.01661e+12 
            858      1.9512e+12 
            866     1.88839e+12 
            874     1.82807e+12 
            882     1.77013e+12 
            890     1.71445e+12 
            898     1.66092e+12 
            906     1.60946e+12 
            915     1.55391e+12 
            924     1.50072e+12 
            933     1.44978e+12 
            942     1.40096e+12 
            951     1.35417e+12 
            960     1.30931e+12 
            969     1.26628e+12 
            978       1.225e+12 
            987     1.18537e+12 
            996     1.14732e+12 
           1005     1.11079e+12 
           1015     1.07187e+12 
           1025     1.03464e+12 
           1035     9.98998e+11 
           1045     9.64874e+11 
           1055     9.32187e+11 
           1065     9.00868e+11 
           1075     8.70847e+11 
           1085     8.42061e+11 
           1095      8.1445e+11 
           1105     7.87957e+11 
           1116     7.60042e+11 
           1127     7.33348e+11 
           1138     7.07811e+11 
           1149     6.83373e+11 
           1160     6.59976e+11 
           1171     6.37568e+11 
           1182     6.16100e+11 
           1193     5.95526e+11 
           1204       5.758e+11 
           1216     5.55200e+11 
           1228     5.35511e+11 
           1240     5.16684e+11 
           1252     4.98675e+11 
           1264     4.81442e+11 
           1276     4.64944e+11 
           1288     4.49145e+11 
           1300      4.3401e+11 
           1313     4.18323e+11 
           1326     4.03338e+11 
           1339     3.89015e+11 
           1352     3.75322e+11 
           1365     3.62224e+11 
           1378     3.49691e+11 
           1391     3.37694e+11 
           1404     3.26206e+11 
           1418     3.14374e+11 
           1432     3.03073e+11 
           1446     2.92274e+11 
           1460      2.8195e+11 
           1474     2.72078e+11 
           1488     2.62633e+11 
           1502     2.53593e+11 
           1517     2.44334e+11 
           1532     2.35494e+11 
           1547     2.27048e+11 
           1562     2.18978e+11 
           1577     2.11262e+11 
           1592     2.03882e+11 
           1607     1.96821e+11 
           1623     1.89623e+11 
           1639      1.8275e+11 
           1655     1.76185e+11 
           1671     1.69912e+11 
           1687     1.63915e+11 
           1703     1.58180e+11 
           1720     1.52359e+11 
           1737     1.46802e+11 
           1754     1.41496e+11 
           1771     1.36427e+11 
           1788     1.31583e+11 
           1805     1.26952e+11 
           1823     1.22268e+11 
           1841     1.17798e+11 
           1859      1.1353e+11 
           1877     1.09453e+11 
           1895     1.05557e+11 
           1913     1.01833e+11 
           1932     9.80785e+10 
           1951     9.44950e+10 
           1970     9.10736e+10 
           1989     8.78055e+10 
           2008     8.46825e+10 
           2028     8.15435e+10 
           2048     7.85485e+10 
           2068     7.56896e+10 
           2088     7.29594e+10 
           2108     7.03511e+10 
           2129     6.77366e+10 
           2150     6.52422e+10 
           2171     6.28615e+10 
           2192     6.05884e+10 
           2213     5.84169e+10 
           2235     5.62454e+10 
           2257     5.41736e+10 
           2279     5.21964e+10 
           2301     5.03084e+10 
           2324      4.8425e+10 
           2347     4.66288e+10 
           2370      4.4915e+10 
           2393     4.32792e+10 
           2416     4.17172e+10 
           2440     4.01616e+10 
           2464     3.86778e+10 
           2488     3.72618e+10 
           2512       3.591e+10 
           2537     3.45664e+10 
           2562      3.3285e+10 
           2587     3.20624e+10 
           2612     3.08954e+10 
           2638     2.97374e+10 
           2664     2.86332e+10 
           2690     2.75797e+10 
           2716     2.65742e+10 
           2743      2.5578e+10 
           2770     2.46281e+10 
           2797     2.37218e+10 
           2824     2.28568e+10 
           2852      2.2001e+10 
           2880     2.11848e+10 
           2908     2.04062e+10 
           2937      1.9637e+10 
           2966     1.89037e+10 
           2995     1.82044e+10 
           3024      1.7537e+10 
           3054     1.68785e+10 
           3084     1.62506e+10 
           3114     1.56516e+10 
           3145     1.50614e+10 
           3176     1.44987e+10 
           3207      1.3962e+10 
           3239     1.34338e+10 
           3271     1.29303e+10 
           3303     1.24502e+10 
           3336     1.19782e+10 
           3369     1.15284e+10 
           3402     1.10994e+10 
           3436     1.06781e+10 
           3470     1.02766e+10 
           3504      9.89381e+9 
           3539      9.51818e+9 
           3574      9.16019e+9 
           3609      8.81888e+9 
           3645      8.48423e+9 
           3681       8.1653e+9 
           3717      7.86121e+9 
           3754      7.56328e+9 
           3791      7.27932e+9 
           3828      7.00857e+9 
           3866      6.74347e+9 
           3904      6.49078e+9 
           3943      6.24362e+9 
           3982      6.00812e+9 
           4021      5.78361e+9 
           4061      5.56413e+9 
           4101      5.35496e+9 
           4142      5.15067e+9 
           4183      4.95602e+9 
           4224      4.77047e+9 
           4266      4.58932e+9 
           4308      4.41668e+9 
           4351      4.24825e+9 
           4394      4.08778e+9 
           4437      3.93481e+9 
           4481      3.78562e+9 
           4525      3.64343e+9 
           4570      3.50484e+9 
           4615      3.37278e+9 
           4661      3.24416e+9 
           4707       3.1216e+9 
           4754       3.0023e+9 
           4801      2.88864e+9 
           4849      2.77806e+9 
           4897      2.67272e+9 
           4945      2.57232e+9 
           4994      2.47465e+9 
           5043      2.38157e+9 
           5093      2.29106e+9 
           5143       2.2048e+9 
           5194      2.12096e+9 
           5245      2.04107e+9 
           5297      1.96345e+9 
           5349      1.88948e+9 
           5402      1.81764e+9 
           5456      1.74792e+9 
           5510      1.68150e+9 
           5565      1.61708e+9 
           5620       1.5557e+9 
           5676      1.49617e+9 
           5732      1.43947e+9 
           5789      1.38448e+9 
           5846      1.33209e+9 
           5904       1.2813e+9 
           5963       1.2321e+9 
           6022      1.18523e+9 
           6082      1.13983e+9 
           6142      1.09659e+9 
           6203       1.0547e+9 
           6265      1.01416e+9 
           6327      9.75548e+8 
           6390      9.38177e+8 
           6453      9.02578e+8 
           6517      8.68125e+8 
           6582      8.34801e+8 
           6647       8.0306e+8 
           6713      7.72359e+8 
           6780      7.42679e+8 
           6847      7.14411e+8 
           6915      6.87082e+8 
           6984      6.60675e+8 
           7053      6.35524e+8 
           7123      6.11219e+8 
           7194      5.87742e+8 
           7265      5.65382e+8 
           7337      5.43782e+8 
           7410      5.22925e+8 
           7484      5.02792e+8 
           7558       4.8362e+8 
           7633      4.65111e+8 
           7709       4.4725e+8 
           7786       4.3002e+8 
           7863      4.13611e+8 
           7941       3.9778e+8 
           8020       3.8251e+8 
           8100      3.67786e+8 
           8181      3.53593e+8 
