#Teff(K)| Pgas@  log g = 0.00   log g = 0.50   log g = 1.00   log g = 1.50   log g = 2.00   log g = 2.50   log g = 3.00   log g = 3.50   log g = 4.00   log g = 4.50   log g = 5.00   log g = 5.50   log g = 6.00 
  0.1000000E+03  0.2903558E+05  0.8294704E+05  0.2117041E+06  0.4426275E+06  0.7694927E+06  0.1112342E+07  0.1980927E+07  0.3530101E+07  0.6267509E+07  0.1104872E+08  0.1951508E+08  0.3455526E+08  0.6099744E+08
  0.2000000E+03  0.3494477E+05  0.9107368E+05  0.2193896E+06  0.4481256E+06  0.8049338E+06  0.1381326E+07  0.2686871E+07  0.4955077E+07  0.8826144E+07  0.1552846E+08  0.2717165E+08  0.4881846E+08  0.8326079E+08
  0.3000000E+03  0.3537915E+05  0.8674751E+05  0.1988159E+06  0.3871812E+06  0.6487608E+06  0.9446472E+06  0.2430617E+07  0.6047908E+07  0.1571808E+08  0.3525961E+08  0.4027738E+08  0.5580249E+08  0.9645099E+08
  0.4000000E+03  0.3159160E+05  0.7423748E+05  0.1633729E+06  0.3044778E+06  0.4813914E+06  0.6470206E+06  0.1704658E+07  0.4569081E+07  0.1212914E+08  0.3492912E+08  0.9152519E+08  0.1907937E+09  0.3524597E+09
  0.5000000E+03  0.2590074E+05  0.5919551E+05  0.1264753E+06  0.2278510E+06  0.3440137E+06  0.4298819E+06  0.1153322E+07  0.3074948E+07  0.8089402E+07  0.2151464E+08  0.5440251E+08  0.1284119E+09  0.2892184E+09
  0.6000000E+03  0.2024387E+05  0.4561971E+05  0.9592552E+05  0.1698583E+06  0.2518375E+06  0.3124050E+06  0.8207765E+06  0.2137194E+07  0.5569783E+07  0.1469451E+08  0.3686862E+08  0.8529254E+08  0.1820023E+09
  0.7000000E+03  0.1563507E+05  0.3517181E+05  0.7375226E+05  0.1302936E+06  0.1929017E+06  0.2383531E+06  0.6159170E+06  0.1588970E+07  0.4155010E+07  0.1099876E+08  0.2884410E+08  0.6759945E+08  0.1424029E+09
  0.8000000E+03  0.1231584E+05  0.2792177E+05  0.5907790E+05  0.1057860E+06  0.1605900E+06  0.2096206E+06  0.5362688E+06  0.1347785E+07  0.3392993E+07  0.8792481E+07  0.2308832E+08  0.5683595E+08  0.1247923E+09
  0.9000000E+03  0.1005827E+05  0.2305943E+05  0.4946616E+05  0.9033079E+05  0.1417569E+06  0.1970703E+06  0.5074884E+06  0.1275176E+07  0.3112184E+07  0.7593524E+07  0.1937053E+08  0.4892662E+08  0.1119362E+09
  0.1000000E+04  0.8476969E+04  0.1958540E+05  0.4243190E+05  0.7849642E+05  0.1254160E+06  0.1782594E+06  0.4668549E+06  0.1199152E+07  0.2980572E+07  0.7118501E+07  0.1708729E+08  0.4273715E+08  0.1007700E+09
  0.1100000E+04  0.7252929E+04  0.1678160E+05  0.3646032E+05  0.6768465E+05  0.1084912E+06  0.1541442E+06  0.4106444E+06  0.1080062E+07  0.2790675E+07  0.6858811E+07  0.1607354E+08  0.3835218E+08  0.9148547E+08
  0.1200000E+04  0.6209985E+04  0.1430360E+05  0.3097158E+05  0.5727503E+05  0.9120198E+05  0.1278109E+06  0.3474882E+06  0.9368892E+06  0.2539770E+07  0.6535288E+07  0.1567965E+08  0.3611008E+08  0.8432403E+08
  0.1300000E+04  0.5292886E+04  0.1207430E+05  0.2594532E+05  0.4760422E+05  0.7497732E+05  0.1031829E+06  0.2832226E+06  0.7806910E+06  0.2210248E+07  0.6010684E+07  0.1510503E+08  0.3497360E+08  0.7938781E+08
  0.1400000E+04  0.4508264E+04  0.1013102E+05  0.2154157E+05  0.3916763E+05  0.6102729E+05  0.8254241E+05  0.2303410E+06  0.6462700E+06  0.1872384E+07  0.5279101E+07  0.1397911E+08  0.3372717E+08  0.7593064E+08
  0.1500000E+04  0.3869537E+04  0.8509151E+04  0.1786033E+05  0.3221584E+05  0.4997437E+05  0.6782335E+05  0.1909609E+06  0.5411222E+06  0.1570402E+07  0.4532156E+07  0.1250368E+08  0.3159655E+08  0.7255348E+08
  0.1600000E+04  0.3367714E+04  0.7191304E+04  0.1484492E+05  0.2652313E+05  0.4090876E+05  0.5535680E+05  0.1579454E+06  0.4516933E+06  0.1306223E+07  0.3808071E+07  0.1092086E+08  0.2915727E+08  0.6946188E+08
  0.1700000E+04  0.2975815E+04  0.6133667E+04  0.1240484E+05  0.2189528E+05  0.3345964E+05  0.4475289E+05  0.1295484E+06  0.3761489E+06  0.1105973E+07  0.3273369E+07  0.9592347E+07  0.2662327E+08  0.6629562E+08
  0.1800000E+04  0.2663627E+04  0.5290701E+04  0.1046415E+05  0.1823360E+05  0.2763322E+05  0.3670010E+05  0.1089396E+06  0.3204011E+06  0.9512028E+06  0.2842477E+07  0.8438991E+07  0.2408499E+08  0.6215551E+08
  0.1900000E+04  0.2407480E+04  0.4619328E+04  0.8939391E+04  0.1539476E+05  0.2322940E+05  0.3104556E+05  0.9234458E+05  0.2767624E+06  0.8275294E+06  0.2485910E+07  0.7426943E+07  0.2155367E+08  0.5759176E+08
  0.2000000E+04  0.2193198E+04  0.4081907E+04  0.7739917E+04  0.1317274E+05  0.1973118E+05  0.2613572E+05  0.7882008E+05  0.2379880E+06  0.7132384E+06  0.2147838E+07  0.6442483E+07  0.1888518E+08  0.5216048E+08
  0.2100000E+04  0.2016411E+04  0.3656202E+04  0.6810584E+04  0.1147873E+05  0.1712305E+05  0.2273648E+05  0.6886476E+05  0.2067012E+06  0.6170767E+06  0.1846365E+07  0.5520256E+07  0.1634012E+08  0.4621165E+08
  0.2200000E+04  0.1881042E+04  0.3333086E+04  0.6113190E+04  0.1021790E+05  0.1517516E+05  0.2007666E+05  0.5985450E+05  0.1795947E+06  0.5350980E+06  0.1590526E+07  0.4719290E+07  0.1395009E+08  0.4007672E+08
  0.2300000E+04  0.1798308E+04  0.3116049E+04  0.5633470E+04  0.9349604E+04  0.1384116E+05  0.1828790E+05  0.5283651E+05  0.1565669E+06  0.4648705E+06  0.1369320E+07  0.4011183E+07  0.1179925E+08  0.3416545E+08
  0.2400000E+04  0.1782375E+04  0.3014457E+04  0.5367993E+04  0.8847609E+04  0.1306550E+05  0.1727373E+05  0.4740110E+05  0.1372142E+06  0.4057931E+06  0.1174280E+07  0.3393378E+07  0.9896381E+07  0.2875505E+08
  0.2500000E+04  0.1844320E+04  0.3035332E+04  0.5312902E+04  0.8687784E+04  0.1278642E+05  0.1683476E+05  0.4340927E+05  0.1208219E+06  0.3499625E+06  0.1005612E+07  0.2863744E+07  0.8241844E+07  0.2391180E+08
  0.2600000E+04  0.1985637E+04  0.3174597E+04  0.5453288E+04  0.8848222E+04  0.1302809E+05  0.1730402E+05  0.4102036E+05  0.1077924E+06  0.3042541E+06  0.8587446E+06  0.2415668E+07  0.6843402E+07  0.1969572E+08
  0.2700000E+04  0.2192041E+04  0.3407508E+04  0.5741851E+04  0.9241842E+04  0.1363168E+05  0.1833039E+05  0.4043309E+05  0.1010263E+06  0.2704902E+06  0.7331479E+06  0.2034836E+07  0.5686897E+07  0.1629117E+08
  0.2800000E+04  0.2432329E+04  0.3689329E+04  0.6104193E+04  0.9739349E+04  0.1437237E+05  0.1955425E+05  0.4044098E+05  0.9381971E+05  0.2388874E+06  0.6246998E+06  0.1706537E+07  0.4700389E+07  0.1321235E+08
  0.2900000E+04  0.2665600E+04  0.3967003E+04  0.6459921E+04  0.1020670E+05  0.1499705E+05  0.2037869E+05  0.4111345E+05  0.8963190E+05  0.2143055E+06  0.5365980E+06  0.1433451E+07  0.3884747E+07  0.1078031E+08
  0.3000000E+04  0.2854131E+04  0.4194440E+04  0.6747716E+04  0.1056804E+05  0.1544725E+05  0.2093497E+05  0.4170982E+05  0.8745224E+05  0.1964472E+06  0.4680137E+06  0.1211903E+07  0.3221424E+07  0.8792095E+07
  0.3100000E+04  0.2967868E+04  0.4330785E+04  0.6912695E+04  0.1076226E+05  0.1568055E+05  0.2121359E+05  0.4148353E+05  0.8604800E+05  0.1844703E+06  0.4257247E+06  0.1051790E+07  0.2706140E+07  0.7219616E+07
  0.3200000E+04  0.2963198E+04  0.4310794E+04  0.6865578E+04  0.1069333E+05  0.1564582E+05  0.2132037E+05  0.4132231E+05  0.8445389E+05  0.1760283E+06  0.3870884E+06  0.9144545E+06  0.2282931E+07  0.5950397E+07
  0.3300000E+04  0.2735556E+04  0.3995992E+04  0.6423516E+04  0.1015267E+05  0.1516227E+05  0.2108817E+05  0.4149789E+05  0.8226172E+05  0.1689666E+06  0.3596691E+06  0.8130667E+06  0.1958639E+07  0.4961257E+07
  0.3400000E+04  0.2035337E+04  0.3088328E+04  0.5132344E+04  0.8461445E+04  0.1346484E+05  0.2067544E+05  0.4063526E+05  0.8008114E+05  0.1614110E+06  0.3355127E+06  0.7333112E+06  0.1544793E+07  0.3546538E+07
  0.3500000E+04  0.1335119E+04  0.2180664E+04  0.3841172E+04  0.6770222E+04  0.1176742E+05  0.2026272E+05  0.3977263E+05  0.7790057E+05  0.1538555E+06  0.3113564E+06  0.6535556E+06  0.1130946E+07  0.2131819E+07
  0.3750000E+04  0.6349000E+03  0.1273000E+04  0.2550000E+04  0.5079000E+04  0.1007000E+05  0.1985000E+05  0.3891000E+05  0.7572000E+05  0.1463000E+06  0.2872000E+06  0.5738000E+06  0.7171000E+06  0.7171000E+06
  0.4000000E+04  0.5571000E+03  0.1088000E+04  0.2144000E+04  0.4257000E+04  0.8508000E+04  0.1706000E+05  0.3414000E+05  0.6794000E+05  0.1340000E+06  0.2614000E+06  0.5171000E+06  0.6449500E+06  0.6449500E+06
  0.4250000E+04  0.5271000E+03  0.1006000E+04  0.1923000E+04  0.3708000E+04  0.7245000E+04  0.1433000E+05  0.2866000E+05  0.5754000E+05  0.1156000E+06  0.2302000E+06  0.4517000E+06  0.5624500E+06  0.5624500E+06
  0.4500000E+04  0.5040000E+03  0.9684000E+03  0.1839000E+04  0.3482000E+04  0.6618000E+04  0.1271000E+05  0.2475000E+05  0.4880000E+05  0.9699000E+05  0.1943000E+06  0.3884000E+06  0.4854500E+06  0.4854500E+06
  0.4750000E+04  0.4591000E+03  0.9040000E+03  0.1748000E+04  0.3339000E+04  0.6333000E+04  0.1200000E+05  0.2286000E+05  0.4395000E+05  0.8534000E+05  0.1675000E+06  0.3324000E+06  0.4148500E+06  0.4148500E+06
  0.5000000E+04  0.3945000E+03  0.8022000E+03  0.1593000E+04  0.3109000E+04  0.5995000E+04  0.1147000E+05  0.2183000E+05  0.4155000E+05  0.7933000E+05  0.1525000E+06  0.2963000E+06  0.3682000E+06  0.3682000E+06
  0.5250000E+04  0.3182000E+03  0.6731000E+03  0.1380000E+04  0.2768000E+04  0.5464000E+04  0.1065000E+05  0.2056000E+05  0.3945000E+05  0.7532000E+05  0.1438000E+06  0.2753000E+06  0.3410500E+06  0.3410500E+06
  0.5500000E+04  0.2407000E+03  0.5320000E+03  0.1132000E+04  0.2345000E+04  0.4760000E+04  0.9505000E+04  0.1874000E+05  0.3655000E+05  0.7064000E+05  0.1358000E+06  0.2599000E+06  0.3219500E+06  0.3219500E+06
  0.5750000E+04  0.1729000E+03  0.3987000E+03  0.8802000E+03  0.1886000E+04  0.3950000E+04  0.8115000E+04  0.1641000E+05  0.3270000E+05  0.6438000E+05  0.1255000E+06  0.2427000E+06  0.3013000E+06  0.3013000E+06
  0.6000000E+04  0.2164147E+03  0.2882000E+03  0.6572000E+03  0.1451000E+04  0.3129000E+04  0.6619000E+04  0.1376000E+05  0.2814000E+05  0.5671000E+05  0.1127000E+06  0.2214000E+06  0.2757500E+06  0.2757500E+06
  0.6250000E+04  0.1880809E+03  0.2037000E+03  0.4788000E+03  0.1084000E+04  0.2395000E+04  0.5195000E+04  0.1109000E+05  0.2330000E+05  0.4818000E+05  0.9803000E+05  0.1965000E+06  0.2457350E+06  0.2457350E+06
  0.6500000E+04  0.1440339E+03  0.1409000E+03  0.3440000E+03  0.7965000E+03  0.1796000E+04  0.3976000E+04  0.8672000E+04  0.1866000E+05  0.3958000E+05  0.8257000E+05  0.1695000E+06  0.2129650E+06  0.2129650E+06
  0.6750000E+04  0.1030003E+03  0.9391000E+02  0.2430000E+03  0.5794000E+03  0.1331000E+04  0.2999000E+04  0.6664000E+04  0.1462000E+05  0.3168000E+05  0.6769000E+05  0.1422000E+06  0.1794550E+06  0.1794550E+06
  0.7000000E+04  0.7090074E+02  0.5919000E+02  0.1662000E+03  0.4155000E+03  0.9780000E+03  0.2241000E+04  0.5066000E+04  0.1131000E+05  0.2496000E+05  0.5442000E+05  0.1168000E+06  0.1479900E+06  0.1479900E+06
  0.7250000E+04  0.5029031E+02  0.3369000E+02  0.1088000E+03  0.2889000E+03  0.7091000E+03  0.1661000E+04  0.3817000E+04  0.8672000E+04  0.1948000E+05  0.4323000E+05  0.9458000E+05  0.1202550E+06  0.1202550E+06
  0.7500000E+04  0.4593290E+02  0.4633162E+02  0.6655000E+02  0.1937000E+03  0.4991000E+03  0.1215000E+04  0.2851000E+04  0.6592000E+04  0.1507000E+05  0.3405000E+05  0.7586000E+05  0.9676500E+05  0.9676500E+05
  0.7750000E+04  0.4058904E+02  0.3896992E+02  0.3699000E+02  0.1231000E+03  0.3377000E+03  0.8600000E+03  0.2099000E+04  0.4963000E+04  0.1156000E+05  0.2661000E+05  0.6037000E+05  0.7725000E+05  0.7725000E+05
  0.8000000E+04  0.3613440E+02  0.3173038E+02  0.1818000E+02  0.7512000E+02  0.2226000E+03  0.5931000E+03  0.1501000E+04  0.3676000E+04  0.8769000E+04  0.2060000E+05  0.4768000E+05  0.6122000E+05  0.6122000E+05
  0.8250000E+04  0.3529017E+02  0.3335735E+02  0.3204871E+02  0.4494000E+02  0.1440000E+03  0.4016000E+03  0.1054000E+04  0.2671000E+04  0.6579000E+04  0.1580000E+05  0.3735000E+05  0.4812500E+05  0.4812500E+05
  0.8500000E+04  0.3557047E+02  0.3399758E+02  0.3158255E+02  0.2873000E+02  0.9509000E+02  0.2718000E+03  0.7324000E+03  0.1909000E+04  0.4851000E+04  0.1200000E+05  0.2902000E+05  0.3753000E+05  0.3753000E+05
  0.8750000E+04  0.3666872E+02  0.3511297E+02  0.3140305E+02  0.2131000E+02  0.6809000E+02  0.1921000E+03  0.5178000E+03  0.1366000E+04  0.3541000E+04  0.9008000E+04  0.2235000E+05  0.2902100E+05  0.2902100E+05
  0.9000000E+04  0.3865870E+02  0.3804341E+02  0.3745446E+02  0.3909700E+02  0.5442000E+02  0.1463000E+03  0.3839000E+03  0.1003000E+04  0.2610000E+04  0.6741000E+04  0.1712000E+05  0.2230950E+05  0.2230950E+05
  0.9250000E+04  0.4070544E+02  0.4064753E+02  0.4110394E+02  0.4314566E+02  0.4814000E+02  0.1214000E+03  0.3034000E+03  0.7706000E+03  0.1982000E+04  0.5120000E+04  0.1315000E+05  0.1716500E+05  0.1716500E+05
  0.9500000E+04  0.4237701E+02  0.4250311E+02  0.4302679E+02  0.4419037E+02  0.4574000E+02  0.1090000E+03  0.2565000E+03  0.6225000E+03  0.1562000E+04  0.3993000E+04  0.1026000E+05  0.1339350E+05  0.1339350E+05
  0.9750000E+04  0.4365220E+02  0.4382578E+02  0.4423097E+02  0.4482310E+02  0.4527000E+02  0.1041000E+03  0.2316000E+03  0.5309000E+03  0.1280000E+04  0.3207000E+04  0.8180000E+04  0.1066650E+05  0.1066650E+05
  0.1000000E+05  0.4470621E+02  0.4492238E+02  0.4526449E+02  0.4561563E+02  0.4575000E+02  0.1033000E+03  0.2206000E+03  0.4784000E+03  0.1096000E+04  0.2656000E+04  0.6671000E+04  0.8678500E+04  0.8678500E+04
  0.1025000E+05  0.4580198E+02  0.4609202E+02  0.4643666E+02  0.4669554E+02  0.4672000E+02  0.1048000E+03  0.2182000E+03  0.4528000E+03  0.9824000E+03  0.2277000E+04  0.5572000E+04  0.7219500E+04  0.7219500E+04
  0.1050000E+05  0.4727287E+02  0.4765964E+02  0.4801306E+02  0.4815241E+02  0.4798000E+02  0.1076000E+03  0.2210000E+03  0.4448000E+03  0.9209000E+03  0.2028000E+04  0.4780000E+04  0.6156000E+04  0.6156000E+04
  0.1075000E+05  0.4953528E+02  0.5002485E+02  0.5032899E+02  0.5014960E+02  0.4939000E+02  0.1113000E+03  0.2270000E+03  0.4480000E+03  0.8954000E+03  0.1879000E+04  0.4233000E+04  0.5410000E+04  0.5410000E+04
  0.1100000E+05  0.5308012E+02  0.5369007E+02  0.5388400E+02  0.5305011E+02  0.5089000E+02  0.1155000E+03  0.2351000E+03  0.4587000E+03  0.8945000E+03  0.1804000E+04  0.3878000E+04  0.4915000E+04  0.4915000E+04
  0.1125000E+05  0.5839715E+02  0.5923677E+02  0.5945300E+02  0.5769587E+02  0.5242000E+02  0.1202000E+03  0.2448000E+03  0.4745000E+03  0.9102000E+03  0.1782000E+04  0.3671000E+04  0.4615500E+04  0.4615500E+04
  0.1150000E+05  0.6579155E+02  0.6717658E+02  0.6818951E+02  0.6637509E+02  0.5395000E+02  0.1252000E+03  0.2556000E+03  0.4940000E+03  0.9376000E+03  0.1797000E+04  0.3575000E+04  0.4464000E+04  0.4464000E+04
  0.1175000E+05  0.7509172E+02  0.7747849E+02  0.8112357E+02  0.8629839E+02  0.9633818E+02  0.1304000E+03  0.2674000E+03  0.5162000E+03  0.9733000E+03  0.1838000E+04  0.3561000E+04  0.4422500E+04  0.4422500E+04
  0.1200000E+05  0.8546961E+02  0.8863660E+02  0.9405129E+02  0.1022382E+03  0.1150264E+03  0.1356000E+03  0.2798000E+03  0.5408000E+03  0.1016000E+04  0.1900000E+04  0.3610000E+04  0.4465000E+04  0.4465000E+04
  0.1225000E+05  0.9615290E+02  0.9970421E+02  0.1058156E+03  0.1145758E+03  0.1263256E+03  0.1410000E+03  0.2929000E+03  0.5671000E+03  0.1064000E+04  0.1976000E+04  0.3703000E+04  0.4566500E+04  0.4566500E+04
  0.1250000E+05  0.1067211E+03  0.1104074E+03  0.1166194E+03  0.1250128E+03  0.1351469E+03  0.1463000E+03  0.3063000E+03  0.5950000E+03  0.1116000E+04  0.2065000E+04  0.3833000E+04  0.4717000E+04  0.4717000E+04
  0.1275000E+05  0.1171458E+03  0.1209344E+03  0.1271017E+03  0.1349420E+03  0.1434668E+03  0.1515000E+03  0.3201000E+03  0.6244000E+03  0.1172000E+04  0.2164000E+04  0.3990000E+04  0.4903000E+04  0.4903000E+04
  0.1300000E+05  0.1277940E+03  0.1318374E+03  0.1381365E+03  0.1456864E+03  0.1529170E+03  0.1566000E+03  0.3342000E+03  0.6550000E+03  0.1232000E+04  0.2271000E+04  0.4169000E+04  0.5118000E+04  0.5118000E+04
  0.1400000E+05  0.1394528E+03  0.1440127E+03  0.1507864E+03  0.1586869E+03  0.1667422E+03  0.1750000E+03  0.3904000E+03  0.7841000E+03  0.1494000E+04  0.2764000E+04  0.5046000E+04  0.6187000E+04  0.6187000E+04
  0.1500000E+05  0.1533587E+03  0.1586998E+03  0.1661166E+03  0.1740868E+03  0.1814495E+03  0.1889000E+03  0.4437000E+03  0.9170000E+03  0.1778000E+04  0.3327000E+04  0.6100000E+04  0.7486500E+04  0.7486500E+04
  0.1600000E+05  0.1711724E+03  0.1776059E+03  0.1858906E+03  0.1934079E+03  0.1974641E+03  0.1981000E+03  0.4935000E+03  0.1050000E+04  0.2072000E+04  0.3923000E+04  0.7244000E+04  0.8904500E+04  0.8904500E+04
  0.1700000E+05  0.1946797E+03  0.2027185E+03  0.2127384E+03  0.2203374E+03  0.2186411E+03  0.2007000E+03  0.5385000E+03  0.1184000E+04  0.2379000E+04  0.4545000E+04  0.8449000E+04  0.1040100E+05  0.1040100E+05
  0.1800000E+05  0.2251420E+03  0.2356153E+03  0.2495960E+03  0.2615664E+03  0.2582070E+03  0.1971000E+03  0.5769000E+03  0.1313000E+04  0.2678000E+04  0.5174000E+04  0.9711000E+04  0.1197950E+05  0.1197950E+05
  0.1900000E+05  0.2625285E+03  0.2762336E+03  0.2972404E+03  0.3240545E+03  0.3582713E+03  0.4181657E+03  0.6070000E+03  0.1434000E+04  0.2963000E+04  0.5802000E+04  0.1102000E+05  0.1362900E+05  0.1362900E+05
  0.2000000E+05  0.3053910E+03  0.3220203E+03  0.3490296E+03  0.3862225E+03  0.4367873E+03  0.5118413E+03  0.6312000E+03  0.1552000E+04  0.3255000E+04  0.6425000E+04  0.1231000E+05  0.1525250E+05  0.1525250E+05
  0.2100000E+05  0.3523405E+03  0.3712084E+03  0.4019402E+03  0.4433875E+03  0.4960447E+03  0.5633290E+03  0.6491000E+03  0.1665000E+04  0.3561000E+04  0.7055000E+04  0.1356000E+05  0.1681250E+05  0.1681250E+05
  0.2200000E+05  0.4032860E+03  0.4241997E+03  0.4573120E+03  0.4993594E+03  0.5471202E+03  0.5989992E+03  0.6570000E+03  0.1772000E+04  0.3884000E+04  0.7743000E+04  0.1490000E+05  0.1847850E+05  0.1847850E+05
  0.2300000E+05  0.4599162E+03  0.4836038E+03  0.5196297E+03  0.5618661E+03  0.6020709E+03  0.6318984E+03  0.6510000E+03  0.1868000E+04  0.4216000E+04  0.8517000E+04  0.1641000E+05  0.2035650E+05  0.2035650E+05
  0.2400000E+05  0.5253646E+03  0.5535315E+03  0.5953280E+03  0.6416224E+03  0.6774353E+03  0.6797915E+03  0.6258000E+03  0.1943000E+04  0.4526000E+04  0.9302000E+04  0.1799000E+05  0.2233400E+05  0.2233400E+05
  0.2500000E+05  0.6031732E+03  0.6382133E+03  0.6908778E+03  0.7509085E+03  0.7990144E+03  0.7896325E+03  0.5762000E+03  0.1988000E+04  0.4797000E+04  0.1005000E+05  0.1957000E+05  0.2433000E+05  0.2433000E+05
  0.2600000E+05  0.6960842E+03  0.7402567E+03  0.8091881E+03  0.8959513E+03  0.9944813E+03  0.1111327E+04  0.1317263E+04  0.1998000E+04  0.5021000E+04  0.1074000E+05  0.2111000E+05  0.2629500E+05  0.2629500E+05
  0.2700000E+05  0.8056450E+03  0.8600014E+03  0.9464510E+03  0.1058697E+04  0.1192718E+04  0.1356287E+04  0.1588180E+04  0.1969000E+04  0.5185000E+04  0.1134000E+05  0.2257000E+05  0.2818500E+05  0.2818500E+05
  0.2800000E+05  0.9331723E+03  0.9982208E+03  0.1101852E+04  0.1235012E+04  0.1387031E+04  0.1548592E+04  0.1716380E+04  0.1898000E+04  0.5279000E+04  0.1184000E+05  0.2390000E+05  0.2993000E+05  0.2993000E+05
  0.2900000E+05  0.1080187E+04  0.1156777E+04  0.1278690E+04  0.1433254E+04  0.1601315E+04  0.1752847E+04  0.1838030E+04  0.1795000E+04  0.5307000E+04  0.1223000E+05  0.2508000E+05  0.3150500E+05  0.3150500E+05
  0.3000000E+05  0.1247631E+04  0.1336898E+04  0.1480097E+04  0.1663325E+04  0.1864768E+04  0.2043710E+04  0.2096222E+04  0.1672000E+04  0.5277000E+04  0.1251000E+05  0.2607000E+05  0.3285000E+05  0.3285000E+05
  0.3100000E+05  0.1434493E+04  0.1536872E+04  0.1703886E+04  0.1924348E+04  0.2186395E+04  0.2483850E+04  0.2841468E+04  0.3434862E+04  0.5193000E+04  0.1267000E+05  0.2686000E+05  0.3395500E+05  0.3395500E+05
  0.3200000E+05  0.1637167E+04  0.1751590E+04  0.1941339E+04  0.2197340E+04  0.2512780E+04  0.2891462E+04  0.3366976E+04  0.4039134E+04  0.5076000E+04  0.1274000E+05  0.2748000E+05  0.3485000E+05  0.3485000E+05
  0.3300000E+05  0.1850388E+04  0.1975376E+04  0.2185458E+04  0.2471394E+04  0.2823875E+04  0.3237585E+04  0.3718302E+04  0.4288063E+04  0.4958000E+04  0.1274000E+05  0.2793000E+05  0.3552500E+05  0.3552500E+05
