#Teff(K)| Pgas@  log g = 0.00   log g = 0.50   log g = 1.00   log g = 1.50   log g = 2.00   log g = 2.50   log g = 3.00   log g = 3.50   log g = 4.00   log g = 4.50   log g = 5.00   log g = 5.50   log g = 6.00 
  0.1000000E+03  0.1159217E+06  0.3289535E+06  0.8374724E+06  0.1751312E+07  0.3056702E+07  0.4484228E+07  0.7935907E+07  0.1415148E+08  0.2520387E+08  0.4433321E+08  0.7763065E+08  0.1375048E+09  0.2425493E+09
  0.2000000E+03  0.1387802E+06  0.3594859E+06  0.8629754E+06  0.1757174E+07  0.3135918E+07  0.5277409E+07  0.1444196E+08  0.3710234E+08  0.8238820E+08  0.1023230E+09  0.1000968E+09  0.2851146E+09  0.3066830E+09
  0.3000000E+03  0.1399199E+06  0.3411848E+06  0.7800376E+06  0.1519449E+07  0.2561725E+07  0.3835321E+07  0.1019374E+08  0.2458984E+08  0.6088518E+08  0.1549091E+09  0.2831876E+09  0.5101777E+09  0.9347149E+09
  0.4000000E+03  0.1243895E+06  0.2905714E+06  0.6365792E+06  0.1179981E+07  0.1846592E+07  0.2415547E+07  0.5981863E+07  0.1427184E+08  0.3209133E+08  0.7459629E+08  0.1619411E+09  0.3419982E+09  0.7134502E+09
  0.5000000E+03  0.1021979E+06  0.2322933E+06  0.4936865E+06  0.8815650E+06  0.1302548E+07  0.1519911E+07  0.3885275E+07  0.9718590E+07  0.2338605E+08  0.5581557E+08  0.1239304E+09  0.2532253E+09  0.4940505E+09
  0.6000000E+03  0.8131060E+05  0.1826366E+06  0.3839685E+06  0.6819873E+06  0.1020990E+07  0.1306459E+07  0.3211571E+07  0.7710917E+07  0.1859933E+08  0.4522247E+08  0.1054980E+09  0.2245707E+09  0.4389328E+09
  0.7000000E+03  0.6469192E+05  0.1448846E+06  0.3048948E+06  0.5465162E+06  0.8398336E+06  0.1140696E+07  0.2882458E+07  0.7019944E+07  0.1653751E+08  0.3901950E+08  0.9094098E+08  0.2020477E+09  0.4121563E+09
  0.8000000E+03  0.5212554E+05  0.1164458E+06  0.2455016E+06  0.4429152E+06  0.6884082E+06  0.9462166E+06  0.2499624E+07  0.6337567E+07  0.1553100E+08  0.3603048E+08  0.8250283E+08  0.1836800E+09  0.3880210E+09
  0.9000000E+03  0.4254997E+05  0.9437498E+05  0.1984818E+06  0.3578166E+06  0.5543734E+06  0.7497664E+06  0.2023216E+07  0.5368847E+07  0.1388645E+08  0.3348720E+08  0.7651851E+08  0.1704313E+09  0.3639072E+09
  0.1000000E+04  0.3511984E+05  0.7692579E+05  0.1607827E+06  0.2887150E+06  0.4452515E+06  0.5981256E+06  0.1632127E+07  0.4450380E+07  0.1200425E+08  0.3044515E+08  0.7127170E+08  0.1587295E+09  0.3410286E+09
  0.1100000E+04  0.2930575E+05  0.6312358E+05  0.1308071E+06  0.2337102E+06  0.3588553E+06  0.4796919E+06  0.1324074E+07  0.3677624E+07  0.1032599E+08  0.2751298E+08  0.6717503E+08  0.1514497E+09  0.3243210E+09
  0.1200000E+04  0.2477287E+05  0.5233370E+05  0.1073870E+06  0.1909025E+06  0.2921532E+06  0.3892476E+06  0.1093696E+07  0.3095937E+07  0.8921394E+07  0.2470665E+08  0.6289109E+08  0.1451507E+09  0.3125449E+09
  0.1300000E+04  0.2128837E+05  0.4404592E+05  0.8944950E+05  0.1583412E+06  0.2421179E+06  0.3232953E+06  0.9260231E+06  0.2655299E+07  0.7758711E+07  0.2206730E+08  0.5796252E+08  0.1374804E+09  0.3004984E+09
  0.1400000E+04  0.1867237E+05  0.3778465E+05  0.7588880E+05  0.1338492E+06  0.2049501E+06  0.2754240E+06  0.8013696E+06  0.2315850E+07  0.6797281E+07  0.1945059E+08  0.5241362E+08  0.1277021E+09  0.2842310E+09
  0.1500000E+04  0.1677227E+05  0.3309685E+05  0.6561192E+05  0.1152453E+06  0.1769206E+06  0.2403825E+06  0.7061666E+06  0.2041153E+07  0.5918723E+07  0.1688754E+08  0.4606285E+08  0.1157446E+09  0.2639443E+09
  0.1600000E+04  0.1544556E+05  0.2957021E+05  0.5763040E+05  0.1005144E+06  0.1542154E+06  0.2104381E+06  0.6218388E+06  0.1791864E+07  0.5103451E+07  0.1439685E+08  0.3978902E+08  0.1023824E+09  0.2390437E+09
  0.1700000E+04  0.1454692E+05  0.2686153E+05  0.5120876E+05  0.8833937E+05  0.1349509E+06  0.1841338E+06  0.5438730E+06  0.1560234E+07  0.4408398E+07  0.1231320E+08  0.3398849E+08  0.8905335E+08  0.2129821E+09
  0.1800000E+04  0.1391348E+05  0.2468466E+05  0.4583447E+05  0.7791717E+05  0.1181118E+06  0.1606652E+06  0.4760110E+06  0.1357023E+07  0.3797592E+07  0.1047861E+08  0.2872637E+08  0.7629092E+08  0.1852801E+09
  0.1900000E+04  0.1336985E+05  0.2280284E+05  0.4117056E+05  0.6879811E+05  0.1030956E+06  0.1387563E+06  0.4115237E+06  0.1176047E+07  0.3269687E+07  0.8921333E+07  0.2419867E+08  0.6457747E+08  0.1610016E+09
  0.2000000E+04  0.1276407E+05  0.2105096E+05  0.3705513E+05  0.6091689E+05  0.9023004E+05  0.1201432E+06  0.3507803E+06  0.9990355E+06  0.2760527E+07  0.7451066E+07  0.2006915E+08  0.5366707E+08  0.1381061E+09
  0.2100000E+04  0.1201383E+05  0.1935232E+05  0.3343752E+05  0.5431165E+05  0.7976019E+05  0.1053093E+06  0.2999133E+06  0.8505729E+06  0.2327407E+07  0.6214244E+07  0.1657176E+08  0.4463420E+08  0.1174100E+09
  0.2200000E+04  0.1112867E+05  0.1771138E+05  0.3031442E+05  0.4899234E+05  0.7180616E+05  0.9467217E+05  0.2570302E+06  0.7160746E+06  0.1965504E+07  0.5225352E+07  0.1384199E+08  0.3708197E+08  0.9896947E+08
  0.2300000E+04  0.1018258E+05  0.1616588E+05  0.2764055E+05  0.4478162E+05  0.6614499E+05  0.8875910E+05  0.2257403E+06  0.6089545E+06  0.1672884E+07  0.4428941E+07  0.1162301E+08  0.3098117E+08  0.8295766E+08
  0.2400000E+04  0.9259384E+04  0.1473562E+05  0.2526754E+05  0.4113992E+05  0.6137628E+05  0.8434194E+05  0.1988360E+06  0.5233118E+06  0.1435864E+07  0.3766356E+07  0.9796484E+07  0.2591509E+08  0.6940632E+08
  0.2500000E+04  0.8422342E+04  0.1343386E+05  0.2306786E+05  0.3755882E+05  0.5585723E+05  0.7587413E+05  0.1819385E+06  0.4545908E+06  0.1221860E+07  0.3211253E+07  0.8295448E+07  0.2170468E+08  0.5795864E+08
  0.2600000E+04  0.7713866E+04  0.1230736E+05  0.2111951E+05  0.3427152E+05  0.5045474E+05  0.6663154E+05  0.1625549E+06  0.4026032E+06  0.1054731E+07  0.2744377E+07  0.7064650E+07  0.1828443E+08  0.4836126E+08
  0.2700000E+04  0.7148160E+04  0.1140001E+05  0.1956824E+05  0.3176249E+05  0.4676519E+05  0.6187638E+05  0.1579649E+06  0.3868125E+06  0.9597596E+06  0.2361200E+07  0.6043618E+07  0.1550765E+08  0.4082974E+08
  0.2800000E+04  0.6700856E+04  0.1069247E+05  0.1839997E+05  0.2999969E+05  0.4456281E+05  0.6027479E+05  0.1485900E+06  0.3548847E+06  0.8509291E+06  0.2036737E+07  0.5169385E+07  0.1314208E+08  0.3401574E+08
  0.2900000E+04  0.6325611E+04  0.1011961E+05  0.1747970E+05  0.2861963E+05  0.4271620E+05  0.5797949E+05  0.1294248E+06  0.3275489E+06  0.7641575E+06  0.1772820E+07  0.4438003E+07  0.1116870E+08  0.2861528E+08
  0.3000000E+04  0.5991127E+04  0.9633411E+04  0.1671303E+05  0.2746036E+05  0.4112918E+05  0.5604153E+05  0.1140364E+06  0.2982326E+06  0.6935725E+06  0.1561294E+07  0.3832465E+07  0.9533779E+07  0.2412902E+08
  0.3100000E+04  0.5696794E+04  0.9207803E+04  0.1602122E+05  0.2637872E+05  0.3963243E+05  0.5425328E+05  0.1049522E+06  0.2621370E+06  0.6323575E+06  0.1452094E+07  0.3434702E+07  0.8309486E+07  0.2060661E+08
  0.3200000E+04  0.5420939E+04  0.8758776E+04  0.1522721E+05  0.2511033E+05  0.3795058E+05  0.5244994E+05  0.1012543E+06  0.2223127E+06  0.5715459E+06  0.1307764E+07  0.3024217E+07  0.7195040E+07  0.1758462E+08
  0.3300000E+04  0.4982084E+04  0.7995856E+04  0.1388753E+05  0.2308631E+05  0.3554259E+05  0.5029907E+05  0.9791252E+05  0.1961849E+06  0.4996795E+06  0.1182094E+07  0.2700545E+07  0.6306205E+07  0.1514212E+08
  0.3400000E+04  0.3750722E+04  0.6188238E+04  0.1096402E+05  0.1877088E+05  0.3037173E+05  0.4671271E+05  0.9125501E+05  0.1823233E+06  0.4378197E+06  0.1010829E+07  0.2305363E+07  0.4850253E+07  0.1074087E+08
  0.3500000E+04  0.2519361E+04  0.4380619E+04  0.8040510E+04  0.1445544E+05  0.2520086E+05  0.4312636E+05  0.8459751E+05  0.1684616E+06  0.3759598E+06  0.8395646E+06  0.1910182E+07  0.3394302E+07  0.6339608E+07
  0.3750000E+04  0.1288000E+04  0.2573000E+04  0.5117000E+04  0.1014000E+05  0.2003000E+05  0.3954000E+05  0.7794000E+05  0.1546000E+06  0.3141000E+06  0.6683000E+06  0.1515000E+07  0.1938350E+07  0.1938350E+07
  0.4000000E+04  0.1053000E+04  0.2117000E+04  0.4239000E+04  0.8463000E+04  0.1688000E+05  0.3368000E+05  0.6715000E+05  0.1341000E+06  0.2707000E+06  0.5602000E+06  0.1184000E+07  0.1495900E+07  0.1495900E+07
  0.4250000E+04  0.8651000E+03  0.1749000E+04  0.3512000E+04  0.7031000E+04  0.1408000E+05  0.2820000E+05  0.5659000E+05  0.1139000E+06  0.2299000E+06  0.4701000E+06  0.9831000E+06  0.1239600E+07  0.1239600E+07
  0.4500000E+04  0.7119000E+03  0.1451000E+04  0.2927000E+04  0.5879000E+04  0.1179000E+05  0.2363000E+05  0.4751000E+05  0.9576000E+05  0.1937000E+06  0.3936000E+06  0.8074000E+06  0.1014300E+07  0.1014300E+07
  0.4750000E+04  0.5814000E+03  0.1201000E+04  0.2444000E+04  0.4936000E+04  0.9933000E+04  0.1997000E+05  0.4020000E+05  0.8106000E+05  0.1642000E+06  0.3337000E+06  0.6798000E+06  0.8528500E+06  0.8528500E+06
  0.5000000E+04  0.4648000E+03  0.9817000E+03  0.2028000E+04  0.4138000E+04  0.8384000E+04  0.1694000E+05  0.3420000E+05  0.6915000E+05  0.1402000E+06  0.2853000E+06  0.5821000E+06  0.7305000E+06  0.7305000E+06
  0.5250000E+04  0.3570000E+03  0.7808000E+03  0.1651000E+04  0.3426000E+04  0.7027000E+04  0.1433000E+05  0.2910000E+05  0.5910000E+05  0.1202000E+06  0.2450000E+06  0.5013000E+06  0.6294500E+06  0.6294500E+06
  0.5500000E+04  0.2598000E+03  0.5951000E+03  0.1301000E+04  0.2768000E+04  0.5787000E+04  0.1197000E+05  0.2458000E+05  0.5032000E+05  0.1029000E+06  0.2107000E+06  0.4326000E+06  0.5435500E+06  0.5435500E+06
  0.5750000E+04  0.1785000E+03  0.4330000E+03  0.9836000E+03  0.2158000E+04  0.4629000E+04  0.9774000E+04  0.2042000E+05  0.4235000E+05  0.8745000E+05  0.1804000E+06  0.3724000E+06  0.4684000E+06  0.4684000E+06
  0.6000000E+04  0.2218365E+03  0.3028000E+03  0.7175000E+03  0.1623000E+04  0.3577000E+04  0.7744000E+04  0.1654000E+05  0.3494000E+05  0.7328000E+05  0.1529000E+06  0.3185000E+06  0.4013000E+06  0.4013000E+06
  0.6250000E+04  0.1841534E+03  0.1998000E+03  0.5096000E+03  0.1189000E+04  0.2687000E+04  0.5957000E+04  0.1302000E+05  0.2812000E+05  0.6016000E+05  0.1276000E+06  0.2694000E+06  0.3403000E+06  0.3403000E+06
  0.6500000E+04  0.1307536E+03  0.1235000E+03  0.3493000E+03  0.8566000E+03  0.1983000E+04  0.4487000E+04  0.1001000E+05  0.2209000E+05  0.4826000E+05  0.1044000E+06  0.2243000E+06  0.2842500E+06  0.2842500E+06
  0.6750000E+04  0.8455040E+02  0.7049000E+02  0.2314000E+03  0.6040000E+03  0.1446000E+04  0.3338000E+04  0.7584000E+04  0.1705000E+05  0.3798000E+05  0.8386000E+05  0.1836000E+06  0.2334700E+06  0.2334700E+06
  0.7000000E+04  0.5239873E+02  0.3473000E+02  0.1490000E+03  0.4198000E+03  0.1043000E+04  0.2465000E+04  0.5698000E+04  0.1303000E+05  0.2952000E+05  0.6639000E+05  0.1480000E+06  0.1888050E+06  0.1888050E+06
  0.7250000E+04  0.3802255E+02  0.1503000E+02  0.9364000E+02  0.2900000E+03  0.7513000E+03  0.1810000E+04  0.4257000E+04  0.9890000E+04  0.2279000E+05  0.5210000E+05  0.1182000E+06  0.1512500E+06  0.1512500E+06
  0.7500000E+04  0.4701588E+02  0.4481867E+02  0.6208000E+02  0.2047000E+03  0.5453000E+03  0.1342000E+04  0.3174000E+04  0.7479000E+04  0.1750000E+05  0.4066000E+05  0.9374000E+05  0.1202800E+06  0.1202800E+06
  0.7750000E+04  0.5921520E+02  0.5554228E+02  0.4884000E+02  0.1571000E+03  0.4114000E+03  0.1010000E+04  0.2410000E+04  0.5655000E+04  0.1339000E+05  0.3160000E+05  0.7403000E+05  0.9524500E+05  0.9524500E+05
  0.8000000E+04  0.7694772E+02  0.7002193E+02  0.4480000E+02  0.1390000E+03  0.3439000E+03  0.8047000E+03  0.1876000E+04  0.4375000E+04  0.1025000E+05  0.2448000E+05  0.5826000E+05  0.7515000E+05  0.7515000E+05
  0.8250000E+04  0.1045673E+03  0.1040193E+03  0.1055907E+03  0.1361000E+03  0.3226000E+03  0.7091000E+03  0.1559000E+04  0.3520000E+04  0.8083000E+04  0.1900000E+05  0.4576000E+05  0.5914000E+05  0.5914000E+05
  0.8500000E+04  0.1369773E+03  0.1380168E+03  0.1383128E+03  0.1386000E+03  0.3255000E+03  0.6870000E+03  0.1422000E+04  0.3017000E+04  0.6681000E+04  0.1515000E+05  0.3600000E+05  0.4642500E+05  0.4642500E+05
  0.8750000E+04  0.1736520E+03  0.1755044E+03  0.1722395E+03  0.1424000E+03  0.3385000E+03  0.7056000E+03  0.1408000E+04  0.2818000E+04  0.5860000E+04  0.1282000E+05  0.2888000E+05  0.3691000E+05  0.3691000E+05
  0.9000000E+04  0.2144524E+03  0.2212845E+03  0.2342390E+03  0.2618998E+03  0.3549000E+03  0.7412000E+03  0.1457000E+04  0.2818000E+04  0.5552000E+04  0.1145000E+05  0.2482000E+05  0.3150500E+05  0.3150500E+05
  0.9250000E+04  0.2546595E+03  0.2644144E+03  0.2835953E+03  0.3168204E+03  0.3721000E+03  0.7841000E+03  0.1539000E+04  0.2931000E+04  0.5581000E+04  0.1093000E+05  0.2250000E+05  0.2828500E+05  0.2828500E+05
  0.9500000E+04  0.2912640E+03  0.3016669E+03  0.3211745E+03  0.3505923E+03  0.3893000E+03  0.8295000E+03  0.1633000E+04  0.3097000E+04  0.5799000E+04  0.1098000E+05  0.2152000E+05  0.2679000E+05  0.2679000E+05
  0.9750000E+04  0.3234503E+03  0.3333915E+03  0.3512162E+03  0.3760555E+03  0.4057000E+03  0.8760000E+03  0.1733000E+04  0.3288000E+04  0.6115000E+04  0.1137000E+05  0.2152000E+05  0.2659500E+05  0.2659500E+05
  0.1000000E+05  0.3518298E+03  0.3610436E+03  0.3768400E+03  0.3978154E+03  0.4220000E+03  0.9231000E+03  0.1838000E+04  0.3498000E+04  0.6488000E+04  0.1195000E+05  0.2215000E+05  0.2725000E+05  0.2725000E+05
  0.1025000E+05  0.3780441E+03  0.3866305E+03  0.4004091E+03  0.4177139E+03  0.4368000E+03  0.9702000E+03  0.1945000E+04  0.3709000E+04  0.6883000E+04  0.1264000E+05  0.2314000E+05  0.2839000E+05  0.2839000E+05
  0.1050000E+05  0.4047963E+03  0.4129298E+03  0.4245382E+03  0.4376001E+03  0.4508000E+03  0.1018000E+04  0.2054000E+04  0.3931000E+04  0.7301000E+04  0.1338000E+05  0.2437000E+05  0.2986500E+05  0.2986500E+05
  0.1075000E+05  0.4359690E+03  0.4437908E+03  0.4527237E+03  0.4597175E+03  0.4637000E+03  0.1064000E+04  0.2163000E+04  0.4155000E+04  0.7731000E+04  0.1416000E+05  0.2570000E+05  0.3147000E+05  0.3147000E+05
  0.1100000E+05  0.4764614E+03  0.4842901E+03  0.4901311E+03  0.4879462E+03  0.4747000E+03  0.1110000E+04  0.2273000E+04  0.4380000E+04  0.8179000E+04  0.1498000E+05  0.2714000E+05  0.3322000E+05  0.3322000E+05
  0.1125000E+05  0.5313413E+03  0.5404152E+03  0.5447260E+03  0.5311133E+03  0.4845000E+03  0.1155000E+04  0.2380000E+04  0.4609000E+04  0.8638000E+04  0.1583000E+05  0.2866000E+05  0.3507500E+05  0.3507500E+05
  0.1150000E+05  0.6039113E+03  0.6174719E+03  0.6281078E+03  0.6119338E+03  0.4928000E+03  0.1197000E+04  0.2482000E+04  0.4831000E+04  0.9095000E+04  0.1669000E+05  0.3022000E+05  0.3698500E+05  0.3698500E+05
  0.1175000E+05  0.6927171E+03  0.7153322E+03  0.7505144E+03  0.8012996E+03  0.9007997E+03  0.1237000E+04  0.2584000E+04  0.5053000E+04  0.9571000E+04  0.1759000E+05  0.3183000E+05  0.3895000E+05  0.3895000E+05
  0.1200000E+05  0.7896767E+03  0.8191750E+03  0.8705262E+03  0.9494845E+03  0.1074806E+04  0.1279000E+04  0.2690000E+04  0.5282000E+04  0.1003000E+05  0.1847000E+05  0.3345000E+05  0.4094000E+05  0.4094000E+05
  0.1225000E+05  0.8869921E+03  0.9193863E+03  0.9763125E+03  0.1059485E+04  0.1173127E+04  0.1317000E+04  0.2790000E+04  0.5503000E+04  0.1050000E+05  0.1937000E+05  0.3511000E+05  0.4298000E+05  0.4298000E+05
  0.1250000E+05  0.9799538E+03  0.1012579E+04  0.1069080E+04  0.1147400E+04  0.1244598E+04  0.1354000E+04  0.2890000E+04  0.5720000E+04  0.1096000E+05  0.2029000E+05  0.3681000E+05  0.4507000E+05  0.4507000E+05
  0.1275000E+05  0.1067176E+04  0.1099297E+04  0.1153559E+04  0.1225258E+04  0.1307510E+04  0.1391000E+04  0.2996000E+04  0.5946000E+04  0.1141000E+05  0.2118000E+05  0.3851000E+05  0.4717500E+05  0.4717500E+05
  0.1300000E+05  0.1150428E+04  0.1182821E+04  0.1235675E+04  0.1302579E+04  0.1373390E+04  0.1426000E+04  0.3101000E+04  0.6168000E+04  0.1186000E+05  0.2209000E+05  0.4024000E+05  0.4931500E+05  0.4931500E+05
  0.1400000E+05  0.1234702E+04  0.1268858E+04  0.1322136E+04  0.1388257E+04  0.1462643E+04  0.1548000E+04  0.3525000E+04  0.7105000E+04  0.1369000E+05  0.2581000E+05  0.4730000E+05  0.5804500E+05  0.5804500E+05
  0.1500000E+05  0.1328313E+04  0.1365495E+04  0.1419288E+04  0.1481181E+04  0.1547408E+04  0.1631000E+04  0.3937000E+04  0.8135000E+04  0.1578000E+05  0.2974000E+05  0.5454000E+05  0.6694000E+05  0.6694000E+05
  0.1600000E+05  0.1442531E+04  0.1484005E+04  0.1538157E+04  0.1589064E+04  0.1622750E+04  0.1649000E+04  0.4275000E+04  0.9114000E+04  0.1787000E+05  0.3371000E+05  0.6177000E+05  0.7580000E+05  0.7580000E+05
  0.1700000E+05  0.1589102E+04  0.1637392E+04  0.1696262E+04  0.1737027E+04  0.1714821E+04  0.1587000E+04  0.4503000E+04  0.9956000E+04  0.1982000E+05  0.3757000E+05  0.6897000E+05  0.8467000E+05  0.8467000E+05
  0.1800000E+05  0.1775085E+04  0.1834974E+04  0.1913175E+04  0.1973560E+04  0.1922977E+04  0.1444000E+04  0.4604000E+04  0.1062000E+05  0.2156000E+05  0.4123000E+05  0.7598000E+05  0.9335500E+05  0.9335500E+05
  0.1900000E+05  0.1996952E+04  0.2072884E+04  0.2191280E+04  0.2348679E+04  0.2571595E+04  0.3027650E+04  0.4577000E+04  0.1109000E+05  0.2304000E+05  0.4454000E+05  0.8260000E+05  0.1016300E+06  0.1016300E+06
  0.2000000E+05  0.2239987E+04  0.2327915E+04  0.2475269E+04  0.2688374E+04  0.3003714E+04  0.3524021E+04  0.4425000E+04  0.1137000E+05  0.2423000E+05  0.4748000E+05  0.8875000E+05  0.1093850E+06  0.1093850E+06
  0.2100000E+05  0.2490257E+04  0.2583958E+04  0.2741036E+04  0.2959688E+04  0.3251499E+04  0.3648035E+04  0.4177000E+04  0.1144000E+05  0.2512000E+05  0.4998000E+05  0.9432000E+05  0.1164900E+06  0.1164900E+06
  0.2200000E+05  0.2744291E+04  0.2842467E+04  0.2999949E+04  0.3199161E+04  0.3421248E+04  0.3650879E+04  0.3878000E+04  0.1136000E+05  0.2572000E+05  0.5203000E+05  0.9924000E+05  0.1228450E+06  0.1228450E+06
  0.2300000E+05  0.3012783E+04  0.3122085E+04  0.3286825E+04  0.3470535E+04  0.3620042E+04  0.3672051E+04  0.3591000E+04  0.1123000E+05  0.2614000E+05  0.5372000E+05  0.1035000E+06  0.1283900E+06  0.1283900E+06
  0.2400000E+05  0.3318600E+04  0.3453294E+04  0.3649247E+04  0.3851976E+04  0.3968078E+04  0.3849123E+04  0.3330000E+04  0.1109000E+05  0.2646000E+05  0.5517000E+05  0.1074000E+06  0.1335150E+06  0.1335150E+06
  0.2500000E+05  0.3690237E+04  0.3869434E+04  0.4134866E+04  0.4425772E+04  0.4624819E+04  0.4460047E+04  0.3088000E+04  0.1101000E+05  0.2684000E+05  0.5657000E+05  0.1110000E+06  0.1382150E+06  0.1382150E+06
  0.2600000E+05  0.4153990E+04  0.4396063E+04  0.4770871E+04  0.5236492E+04  0.5749535E+04  0.6330075E+04  0.7354775E+04  0.1098000E+05  0.2738000E+05  0.5820000E+05  0.1147000E+06  0.1429500E+06  0.1429500E+06
  0.2700000E+05  0.4730580E+04  0.5046736E+04  0.5547033E+04  0.6192970E+04  0.6951259E+04  0.7844383E+04  0.9055688E+04  0.1098000E+05  0.2806000E+05  0.6017000E+05  0.1190000E+06  0.1484150E+06  0.1484150E+06
  0.2800000E+05  0.5439433E+04  0.5837418E+04  0.6470010E+04  0.7283127E+04  0.8205041E+04  0.9159825E+04  0.1009255E+05  0.1100000E+05  0.2889000E+05  0.6250000E+05  0.1241000E+06  0.1549000E+06  0.1549000E+06
  0.2900000E+05  0.6300254E+04  0.6789417E+04  0.7568807E+04  0.8563945E+04  0.9654342E+04  0.1064505E+05  0.1121626E+05  0.1098000E+05  0.2981000E+05  0.6521000E+05  0.1299000E+06  0.1622450E+06  0.1622450E+06
  0.3000000E+05  0.7328144E+04  0.7919259E+04  0.8870421E+04  0.1010022E+05  0.1147210E+05  0.1272654E+05  0.1322368E+05  0.1089000E+05  0.3079000E+05  0.6819000E+05  0.1365000E+06  0.1706550E+06  0.1706550E+06
  0.3100000E+05  0.8525730E+04  0.9225577E+04  0.1037078E+05  0.1189557E+05  0.1371967E+05  0.1577889E+05  0.1816345E+05  0.2179109E+05  0.3181000E+05  0.7146000E+05  0.1439000E+06  0.1801200E+06  0.1801200E+06
  0.3200000E+05  0.9879565E+04  0.1068657E+05  0.1202781E+05  0.1384967E+05  0.1610068E+05  0.1877514E+05  0.2202288E+05  0.2636444E+05  0.3272000E+05  0.7490000E+05  0.1518000E+06  0.1902500E+06  0.1902500E+06
  0.3300000E+05  0.1136585E+05  0.1227663E+05  0.1380899E+05  0.1590757E+05  0.1850475E+05  0.2154096E+05  0.2501115E+05  0.2901679E+05  0.3366000E+05  0.7840000E+05  0.1604000E+06  0.2014000E+06  0.2014000E+06
