# Kurucz ODFNEW /NOVER (2003)
# teff = 7750 K (value for the effective temperature for the model. Temperatures are given in K)
# logg = 4 log(cm/s2) (value for Log(G) for the model.)
# meta = -4  (value for the Metallicity for the model.)
# lh = 1.25  (l/Hp where l is the  mixing length of the convective element and Hp is the pressure scale height)
# vtur = 2 km/s (Microturbulence velocity)
# alpha = 0.4  (Alpha)
#
# column 1: WAVELENGTH (ANGSTROM), Wavelength in Angstrom
# column 2: FLUX (ERG/CM2/S/A), Flux in erg/cm2/s/A
          147.2     1.73866e-35 
            151     1.65225e-35 
          155.2     1.56403e-35 
          158.8     1.49392e-35 
            162     1.43549e-35 
            166     1.36714e-35 
          170.3     1.29897e-35 
          173.4     1.25294e-35 
          176.8     1.20522e-35 
          180.2     1.16017e-35 
          181.7     1.14109e-35 
          186.1     1.08777e-35 
            191     1.03267e-35 
          193.9     1.00201e-35 
          198.4     9.57076e-36 
          201.8     9.25097e-36 
            205     8.96441e-36 
          210.5     8.50208e-36 
          216.2     8.05969e-36 
          219.8     7.79784e-36 
            223     7.57565e-36 
          226.8     7.32392e-36 
            230     7.12154e-36 
            234     6.88015e-36 
            240     6.54044e-36 
          246.5     6.20006e-36 
          252.4     5.91358e-36 
          256.8     5.71267e-36 
            260     5.57292e-36 
            264     5.40532e-36 
          268.5     5.22566e-36 
          273.5     5.03634e-36 
          278.5     4.85712e-36 
            284     4.67082e-36 
            290     2.07931e-23 
            296      1.5143e-22 
            301     5.87999e-22 
            308     3.53168e-21 
            318     3.95826e-20 
            328     3.80812e-19 
            338     3.19035e-18 
            348     2.35562e-17 
            357     1.28973e-16 
            366     6.47512e-16 
            375      2.9999e-15 
            385      1.5102e-14 
            395     6.98214e-14 
            405     2.98375e-13 
            414     1.03588e-12 
            422     2.98957e-12 
            430     8.27908e-12 
            441     3.15418e-11 
            451     1.00281e-10 
            460     2.71491e-10 
            470     7.83406e-10 
            480      2.15818e-9 
            490      5.69205e-9 
            500      1.44125e-8 
            506      2.42927e-8 
            512      4.17825e-8 
            520      8.25363e-8 
            530       1.8748e-7 
            540      4.12374e-7 
            550      8.79953e-7 
            560      1.82454e-6 
            570      3.68195e-6 
            580       7.2414e-6 
            590      1.38982e-5 
            600      2.60665e-5 
            610      4.78217e-5 
            620      8.59225e-5 
            630     0.000151337 
            640     0.000261558 
            650      0.00044397 
            658     0.000669564 
            665     0.000950886 
            675      0.00154843 
            685      0.00248305 
            695      0.00392394 
            705      0.00611484 
            716      0.00980815 
            726       0.0148704 
            735       0.0213998 
            745       0.0317117 
            755       0.0464639 
            765        0.067341 
            775       0.0965933 
            785        0.137169 
            795        0.192923 
            805         0.26884 
            815         0.37131 
            825        0.508461 
            835        0.690538 
            845        0.930394 
            855         1.24399 
            865         1.65102 
            875         2.17572 
            885         2.84746 
            895          3.7019 
            905         4.78188 
            915         8.32137 
            925         23.5519 
            935         37.6895 
            945         63.7427 
            955         90.7348 
            965         115.941 
            975         97.2393 
            985         206.342 
            995         266.706 
           1005         285.599 
           1015         266.326 
           1025         228.137 
           1035         406.473 
           1045         605.996 
           1055         757.808 
           1065         989.732 
           1075         1164.43 
           1085          1430.5 
           1095         1579.69 
           1105         1733.81 
           1115          1897.4 
           1125         2125.67 
           1135         2338.15 
           1145         2511.48 
           1155          2630.5 
           1165         2698.48 
           1175         2668.85 
           1185         3865.96 
           1195         3229.84 
           1205         2672.61 
           1215            1852 
           1225         3200.87 
           1235         5011.12 
           1245         2139.59 
           1255         6057.47 
           1265         7787.55 
           1275         9484.83 
           1285         11724.5 
           1295         14191.1 
           1305           17858 
           1315         21886.2 
           1325         27554.8 
           1335           34861 
           1345         46612.6 
           1355         64742.8 
           1365         80308.7 
           1375         85724.4 
           1385         84716.9 
           1395         94448.3 
           1405          140276 
           1415          242438 
           1425          272757 
           1435          329104 
           1442          392824 
           1447          332484 
           1455          375728 
           1465          352625 
           1475          382734 
           1485          427514 
           1495          483590 
           1505          517153 
           1512          559176 
           1517          464247 
           1525          466987 
           1535          442775 
           1545          358576 
           1555          325888 
           1565          267240 
           1575          253302 
           1585          250836 
           1595          253372 
           1605          268812 
           1615          361531 
           1625          739128 
           1635      1.66984e+6 
           1645      3.96927e+6 
           1655      5.75996e+6 
           1665       9.6508e+6 
           1672      1.12781e+7 
           1677      1.24967e+7 
           1685      1.38327e+7 
           1695      1.53129e+7 
           1705      1.63572e+7 
           1715      1.74453e+7 
           1725      1.79475e+7 
           1735       1.8596e+7 
           1745      1.86792e+7 
           1755      1.91127e+7 
           1765      1.93019e+7 
           1775      1.95621e+7 
           1785      1.97538e+7 
           1795      2.01681e+7 
           1805      2.00273e+7 
           1815       2.0291e+7 
           1825      2.03622e+7 
           1835      2.07764e+7 
           1845      2.05351e+7 
           1855      2.09767e+7 
           1865      2.13524e+7 
           1875      2.14982e+7 
           1885      2.16545e+7 
           1895      2.18157e+7 
           1905      2.18188e+7 
           1915      2.20877e+7 
           1925      2.22492e+7 
           1935      2.20188e+7 
           1945      2.24991e+7 
           1955      2.26105e+7 
           1967      2.27483e+7 
           1976      2.27288e+7 
           1984      2.27114e+7 
           1995      2.30031e+7 
           2005      2.30319e+7 
           2015      2.30878e+7 
           2025      2.30468e+7 
           2035       2.3343e+7 
           2045      2.34189e+7 
           2055      2.32834e+7 
           2065       2.3395e+7 
           2074      2.36663e+7 
           2078      2.36913e+7 
           2085      2.37092e+7 
           2095      2.37761e+7 
           2105      2.38254e+7 
           2115      2.38878e+7 
           2125      2.37778e+7 
           2135      2.39539e+7 
           2145      2.40545e+7 
           2155      2.40809e+7 
           2165      2.39079e+7 
           2175      2.40494e+7 
           2185      2.41872e+7 
           2195      2.42785e+7 
           2205      2.41394e+7 
           2215      2.37776e+7 
           2225      2.41586e+7 
           2235      2.44098e+7 
           2245      2.43894e+7 
           2255      2.42298e+7 
           2265      2.41295e+7 
           2275      2.43159e+7 
           2285      2.44023e+7 
           2295      2.43374e+7 
           2305      2.44586e+7 
           2315      2.44291e+7 
           2325      2.43895e+7 
           2335      2.41713e+7 
           2345      2.36491e+7 
           2355      2.42842e+7 
           2365      2.37081e+7 
           2375      2.41755e+7 
           2385      2.34778e+7 
           2395      2.40932e+7 
           2405       2.4116e+7 
           2415      2.41047e+7 
           2425      2.45649e+7 
           2435      2.44372e+7 
           2445       2.4464e+7 
           2455      2.45458e+7 
           2465      2.44332e+7 
           2475      2.43948e+7 
           2485      2.42574e+7 
           2495      2.41741e+7 
           2505      2.44252e+7 
           2513      2.40933e+7 
           2518      2.40144e+7 
           2525      2.40008e+7 
           2535      2.40908e+7 
           2545      2.43009e+7 
           2555      2.44764e+7 
           2565      2.41897e+7 
           2575      2.42987e+7 
           2585       2.4243e+7 
           2595      2.41847e+7 
           2605      2.41065e+7 
           2615       2.4042e+7 
           2625      2.40391e+7 
           2635      2.41038e+7 
           2645      2.45218e+7 
           2655      2.44999e+7 
           2665      2.43986e+7 
           2675      2.44034e+7 
           2685      2.44477e+7 
           2695      2.43999e+7 
           2705      2.43929e+7 
           2715      2.42007e+7 
           2725      2.41487e+7 
           2735      2.41805e+7 
           2745      2.36131e+7 
           2755      2.37726e+7 
           2765      2.40853e+7 
           2775      2.42418e+7 
           2785      2.41754e+7 
           2795      2.32677e+7 
           2805       2.3738e+7 
           2815      2.41996e+7 
           2825      2.41725e+7 
           2835      2.40904e+7 
           2845      2.40875e+7 
           2855      2.37906e+7 
           2865      2.40062e+7 
           2875      2.40191e+7 
           2885      2.39198e+7 
           2895      2.40066e+7 
           2910      2.39822e+7 
           2930      2.38556e+7 
           2950      2.37938e+7 
           2970      2.37952e+7 
           2990      2.37253e+7 
           3010      2.37067e+7 
           3030      2.36533e+7 
           3050      2.36041e+7 
           3070       2.3523e+7 
           3090      2.34877e+7 
           3110      2.34375e+7 
           3130      2.33773e+7 
           3150      2.33103e+7 
           3170      2.32601e+7 
           3190      2.31559e+7 
           3210      2.31348e+7 
           3230      2.30174e+7 
           3250      2.30082e+7 
           3270      2.29679e+7 
           3290      2.29109e+7 
           3310      2.28491e+7 
           3330      2.27704e+7 
           3350       2.2683e+7 
           3370      2.26285e+7 
           3390      2.25695e+7 
           3410      2.25258e+7 
           3430      2.24589e+7 
           3450      2.23879e+7 
           3470      2.23227e+7 
           3490      2.22578e+7 
           3510      2.21926e+7 
           3530       2.2126e+7 
           3550      2.20579e+7 
           3570      2.19826e+7 
           3590      2.19152e+7 
           3610      2.18456e+7 
           3630      2.17757e+7 
           3640      2.17406e+7 
           3650      2.18145e+7 
           3670      2.17299e+7 
           3690       2.0917e+7 
           3710      2.20223e+7 
           3730      2.28801e+7 
           3750      2.84935e+7 
           3770      2.98671e+7 
           3790      3.47274e+7 
           3810      3.98397e+7 
           3830      3.29759e+7 
           3850       4.3558e+7 
           3870       4.8004e+7 
           3890      2.96562e+7 
           3910      4.79533e+7 
           3930      5.07862e+7 
           3950      4.77042e+7 
           3970      2.89487e+7 
           3990      4.59077e+7 
           4010      5.04997e+7 
           4030      5.08441e+7 
           4050      5.02673e+7 
           4070      4.84418e+7 
           4090      3.90487e+7 
           4110      3.09509e+7 
           4130      4.62737e+7 
           4150      4.81256e+7 
           4170      4.82326e+7 
           4190      4.79836e+7 
           4210      4.76223e+7 
           4230      4.72004e+7 
           4250      4.67447e+7 
           4270      4.61901e+7 
           4290      4.53612e+7 
           4310      4.34161e+7 
           4330      3.40724e+7 
           4350      2.95033e+7 
           4370       4.1808e+7 
           4390      4.33436e+7 
           4410      4.34492e+7 
           4430      4.32459e+7 
           4450      4.29436e+7 
           4470      4.26413e+7 
           4490      4.23221e+7 
           4510      4.19605e+7 
           4530         4.16e+7 
           4550      4.12405e+7 
           4570      4.08894e+7 
           4590      4.05392e+7 
           4610      4.01953e+7 
           4630      3.98505e+7 
           4650      3.95102e+7 
           4670      3.91725e+7 
           4690      3.88391e+7 
           4710      3.84998e+7 
           4730      3.80941e+7 
           4750      3.77339e+7 
           4770      3.73453e+7 
           4790      3.68846e+7 
           4810      3.62008e+7 
           4830      3.46695e+7 
           4850       2.8391e+7 
           4870      2.36297e+7 
           4890      3.31118e+7 
           4910      3.45443e+7 
           4930      3.47126e+7 
           4950      3.45879e+7 
           4970      3.43711e+7 
           4990      3.41264e+7 
           5010      3.39055e+7 
           5030       3.3626e+7 
           5050      3.33454e+7 
           5070      3.30667e+7 
           5090      3.27914e+7 
           5110      3.25193e+7 
           5130      3.22505e+7 
           5150      3.19821e+7 
           5170      3.17041e+7 
           5190       3.1449e+7 
           5210      3.11955e+7 
           5230      3.09367e+7 
           5250      3.06837e+7 
           5270      3.04296e+7 
           5290      3.01811e+7 
           5310      2.99341e+7 
           5330        2.969e+7 
           5350      2.94487e+7 
           5370      2.92088e+7 
           5390      2.89717e+7 
           5410       2.8736e+7 
           5430      2.85043e+7 
           5450      2.82726e+7 
           5470      2.80436e+7 
           5490      2.78171e+7 
           5510       2.7592e+7 
           5530      2.73706e+7 
           5550      2.71504e+7 
           5570      2.69315e+7 
           5590      2.67163e+7 
           5610      2.65022e+7 
           5630      2.62904e+7 
           5650       2.6081e+7 
           5670      2.58728e+7 
           5690      2.56668e+7 
           5710       2.5463e+7 
           5730      2.52615e+7 
           5750      2.50621e+7 
           5770      2.48638e+7 
           5790      2.46676e+7 
           5810      2.44735e+7 
           5830      2.42804e+7 
           5850      2.40904e+7 
           5870      2.39003e+7 
           5890      2.37133e+7 
           5910      2.35293e+7 
           5930      2.33463e+7 
           5950      2.31651e+7 
           5970      2.29848e+7 
           5990      2.28063e+7 
           6010      2.26298e+7 
           6030       2.2455e+7 
           6050      2.22821e+7 
           6070       2.2111e+7 
           6090      2.19416e+7 
           6110       2.1773e+7 
           6130      2.16051e+7 
           6150      2.14399e+7 
           6170      2.12764e+7 
           6190      2.11135e+7 
           6210      2.09524e+7 
           6230      2.07938e+7 
           6250      2.06359e+7 
           6270      2.04795e+7 
           6290      2.03247e+7 
           6310      2.01705e+7 
           6330      2.00188e+7 
           6350      1.98686e+7 
           6370       1.9719e+7 
           6390      1.95718e+7 
           6410      1.94251e+7 
           6430      1.92561e+7 
           6450      1.90816e+7 
           6470      1.89108e+7 
           6490      1.87094e+7 
           6510      1.84284e+7 
           6530      1.78651e+7 
           6550       1.5863e+7 
           6570      1.30645e+7 
           6590      1.69956e+7 
           6610      1.76379e+7 
           6630      1.77228e+7 
           6650      1.76734e+7 
           6670      1.75803e+7 
           6690      1.74779e+7 
           6710      1.73805e+7 
           6730      1.72541e+7 
           6750       1.7128e+7 
           6770      1.70039e+7 
           6790      1.68802e+7 
           6810      1.67577e+7 
           6830      1.66362e+7 
           6850       1.6516e+7 
           6870      1.63968e+7 
           6890      1.62787e+7 
           6910      1.61617e+7 
           6930      1.60458e+7 
           6950       1.5931e+7 
           6970      1.58172e+7 
           6990      1.57037e+7 
           7010       1.5592e+7 
           7030      1.54813e+7 
           7050      1.53708e+7 
           7070      1.52622e+7 
           7090      1.51537e+7 
           7110      1.50469e+7 
           7130      1.49404e+7 
           7150      1.48348e+7 
           7170      1.47309e+7 
           7190      1.46272e+7 
           7210      1.45245e+7 
           7230      1.44226e+7 
           7250      1.43216e+7 
           7270      1.42216e+7 
           7290      1.41224e+7 
           7310       1.4024e+7 
           7330      1.39266e+7 
           7350        1.383e+7 
           7370      1.37342e+7 
           7390      1.36393e+7 
           7410      1.35445e+7 
           7430      1.34512e+7 
           7450      1.33587e+7 
           7470      1.32663e+7 
           7490      1.31754e+7 
           7510      1.30846e+7 
           7530      1.29953e+7 
           7550      1.29067e+7 
           7570      1.28182e+7 
           7590      1.27311e+7 
           7610      1.26441e+7 
           7630      1.25585e+7 
           7650       1.2473e+7 
           7670      1.23888e+7 
           7690      1.23047e+7 
           7710      1.22219e+7 
           7730      1.21392e+7 
           7750      1.20572e+7 
           7770      1.19753e+7 
           7790      1.18958e+7 
           7810      1.18165e+7 
           7830      1.17371e+7 
           7850      1.16591e+7 
           7870       1.1581e+7 
           7890      1.15036e+7 
           7910      1.14275e+7 
           7930      1.13513e+7 
           7950      1.12764e+7 
           7970      1.12015e+7 
           7990      1.11278e+7 
           8010      1.10541e+7 
           8030       1.0981e+7 
           8050       1.0909e+7 
           8070      1.08371e+7 
           8090      1.07657e+7 
           8110      1.06949e+7 
           8130      1.06253e+7 
           8150      1.05556e+7 
           8170      1.04865e+7 
           8190      1.04185e+7 
           8210      1.03605e+7 
           8230      1.02963e+7 
           8250      1.02338e+7 
           8270      1.01716e+7 
           8290        1.011e+7 
           8310      1.00472e+7 
           8330      9.98384e+6 
           8350      9.91878e+6 
           8370      9.84777e+6 
           8390      9.77894e+6 
           8410      9.70478e+6 
           8430      9.64713e+6 
           8450      9.59255e+6 
           8470      9.42337e+6 
           8490      9.50916e+6 
           8510      9.21326e+6 
           8530      9.43676e+6 
           8550      8.87319e+6 
           8570      9.40735e+6 
           8590      8.97149e+6 
