# Kurucz ODFNEW /NOVER (2003)
# teff = 8250 K (value for the effective temperature for the model. Temperatures are given in K)
# logg = 4 log(cm/s2) (value for Log(G) for the model.)
# meta = 0.2  (value for the Metallicity for the model.)
# lh = 1.25  (l/Hp where l is the  mixing length of the convective element and Hp is the pressure scale height)
# vtur = 2 km/s (Microturbulence velocity)
# alpha = 0.4  (Alpha)
#
# column 1: WAVELENGTH (ANGSTROM), Wavelength in Angstrom
# column 2: FLUX (ERG/CM2/S/A), Flux in erg/cm2/s/A
            328     1.10735e-23 
            338     2.02897e-22 
            348     2.00354e-21 
            357     1.39103e-20 
            366     8.74496e-20 
            375     5.01824e-19 
            385     2.30615e-19 
            395      1.2038e-18 
            405     5.76285e-18 
            414     2.20262e-17 
            422     6.88772e-17 
            430     2.05806e-16 
            441     8.65303e-16 
            451     2.98956e-15 
            460      8.6849e-15 
            470     2.69833e-14 
            480     7.96528e-14 
            490     2.24265e-13 
            500     6.03219e-13 
            506     1.41485e-12 
            512       2.789e-12 
            520     5.73286e-12 
            530     1.37455e-11 
            540     3.12249e-11 
            550     6.97927e-11 
            560     1.50103e-10 
            570     3.13245e-10 
            580     6.27707e-10 
            590      1.25508e-9 
            600      2.41703e-9 
            610      4.55558e-9 
            620       8.3741e-9 
            630      1.50711e-8 
            640      2.65614e-8 
            650      4.59824e-8 
            658      7.03324e-8 
            665      1.00634e-7 
            675      1.66658e-7 
            685      2.71637e-7 
            695      4.35112e-7 
            705      6.79405e-7 
            716      1.11346e-6 
            726      1.70469e-6 
            735      2.47255e-6 
            745      3.68567e-6 
            755      5.43828e-6 
            765      7.93724e-6 
            775      1.14519e-5 
            785      1.63897e-5 
            795      2.28139e-5 
            805      3.20254e-5 
            815      4.47719e-5 
            825      6.15387e-5 
            835      8.37345e-5 
            845     0.000113036 
            855      0.00015132 
            865     0.000200966 
            875     0.000262664 
            885     0.000346347 
            895     0.000449978 
            905       0.0005763 
            915         0.23395 
            925        0.725522 
            935        0.944468 
            945         1.23815 
            955         1.68896 
            965         2.17415 
            975         2.65626 
            985          3.3598 
            995         4.07466 
           1005         5.35353 
           1015         6.66044 
           1025         7.80657 
           1035         9.98071 
           1045         12.2548 
           1055         14.9602 
           1065         17.8675 
           1075         21.9229 
           1085         26.5711 
           1095         31.3285 
           1105         91.9189 
           1115          284.29 
           1125         403.393 
           1135         554.672 
           1145         686.778 
           1155         745.735 
           1165         999.264 
           1175          1172.3 
           1185         1214.46 
           1195         628.531 
           1205         798.123 
           1215         192.082 
           1225         917.707 
           1235         1918.12 
           1245         3908.93 
           1255         7757.15 
           1265         6591.13 
           1275         10429.4 
           1285         13687.3 
           1295           15892 
           1305         11893.2 
           1315         18696.6 
           1325         21685.9 
           1335         23607.1 
           1345         27686.8 
           1355         28342.6 
           1365         30539.1 
           1375         33075.5 
           1385         35842.1 
           1395         40349.8 
           1405         44296.6 
           1415         45953.2 
           1425           50546 
           1435         50875.8 
           1442         57901.8 
           1447         61135.1 
           1455         66961.7 
           1465         68265.8 
           1475         73493.9 
           1485         80106.2 
           1495         88829.6 
           1505         96461.6 
           1512         98218.7 
           1517          105356 
           1525          118292 
           1535          186716 
           1545          339242 
           1555          359993 
           1565          365205 
           1575          582432 
           1585          840682 
           1595      1.04299e+6 
           1605      1.13667e+6 
           1615      1.14968e+6 
           1625          979579 
           1635      1.28458e+6 
           1645      2.34681e+6 
           1655       1.2923e+6 
           1665       2.3261e+6 
           1672      1.23125e+6 
           1677       3.6913e+6 
           1685      5.97014e+6 
           1695      4.38015e+6 
           1705       7.6461e+6 
           1715      1.40715e+7 
           1725      1.47774e+7 
           1735      2.01541e+7 
           1745      1.88264e+7 
           1755      2.46976e+7 
           1765      1.48226e+7 
           1775      2.24988e+7 
           1785       2.1946e+7 
           1795      2.91805e+7 
           1805      2.17491e+7 
           1815      2.32975e+7 
           1825       2.0335e+7 
           1835       1.9144e+7 
           1845      1.62068e+7 
           1855      2.03614e+7 
           1865      2.41046e+7 
           1875       2.2678e+7 
           1885      2.35905e+7 
           1895      2.52242e+7 
           1905      2.21448e+7 
           1915      2.51911e+7 
           1925      2.42764e+7 
           1935       1.6987e+7 
           1945      2.64655e+7 
           1955      2.68706e+7 
           1967      2.98124e+7 
           1976      2.83142e+7 
           1984      2.65263e+7 
           1995      2.64674e+7 
           2005      2.45707e+7 
           2015      2.30646e+7 
           2025      2.17395e+7 
           2035      2.60485e+7 
           2045      2.83843e+7 
           2055      2.57759e+7 
           2065      2.55533e+7 
           2074      3.02559e+7 
           2078      3.25876e+7 
           2085      3.08041e+7 
           2095      2.85073e+7 
           2105      2.58659e+7 
           2115      2.65121e+7 
           2125      2.70732e+7 
           2135      2.11208e+7 
           2145      2.63807e+7 
           2155      2.64496e+7 
           2165      2.38822e+7 
           2175      2.37993e+7 
           2185      2.55878e+7 
           2195      2.76673e+7 
           2205      2.59665e+7 
           2215       2.2132e+7 
           2225      2.18727e+7 
           2235       2.6667e+7 
           2245      2.38086e+7 
           2255      2.13123e+7 
           2265       2.1411e+7 
           2275      2.36346e+7 
           2285      2.51577e+7 
           2295      2.21702e+7 
           2305      2.34099e+7 
           2315      2.23027e+7 
           2325       2.1468e+7 
           2335      1.77916e+7 
           2345      1.43477e+7 
           2355      2.08851e+7 
           2365      1.49595e+7 
           2375      1.81451e+7 
           2385       1.2679e+7 
           2395      1.53936e+7 
           2405      1.48991e+7 
           2415      1.58269e+7 
           2425      2.03406e+7 
           2435      1.93542e+7 
           2445      2.13364e+7 
           2455      2.11098e+7 
           2465      2.09984e+7 
           2475      1.90762e+7 
           2485      1.96453e+7 
           2495      1.84818e+7 
           2505      2.34856e+7 
           2513       1.7937e+7 
           2518      1.78391e+7 
           2525      1.55516e+7 
           2535      1.38645e+7 
           2545       1.3351e+7 
           2555      1.69141e+7 
           2565      1.66553e+7 
           2575      2.03256e+7 
           2585      2.06202e+7 
           2595      1.97528e+7 
           2605      1.81097e+7 
           2615      1.69837e+7 
           2625      2.14372e+7 
           2635      2.24337e+7 
           2645      2.80096e+7 
           2655      2.90902e+7 
           2665      2.32783e+7 
           2675      2.60887e+7 
           2685      2.57301e+7 
           2695      2.34611e+7 
           2705      2.51646e+7 
           2715      2.24498e+7 
           2725      2.29276e+7 
           2735      2.53061e+7 
           2745      1.76745e+7 
           2755      1.91839e+7 
           2765      2.04951e+7 
           2775      2.33573e+7 
           2785       1.8033e+7 
           2795      6.91151e+6 
           2805      9.20657e+6 
           2815      2.25594e+7 
           2825      2.69633e+7 
           2835      2.60788e+7 
           2845      2.46195e+7 
           2855      2.14219e+7 
           2865      2.64429e+7 
           2875       2.5679e+7 
           2885      2.59005e+7 
           2895      2.45357e+7 
           2910      2.91811e+7 
           2930      2.72117e+7 
           2950      2.72643e+7 
           2970        2.891e+7 
           2990      2.89269e+7 
           3010       2.9649e+7 
           3030      2.93102e+7 
           3050      2.90591e+7 
           3070      2.92089e+7 
           3090      2.99798e+7 
           3110      2.88067e+7 
           3130       2.8782e+7 
           3150      2.96953e+7 
           3170       2.9411e+7 
           3190      2.71867e+7 
           3210      2.84994e+7 
           3230      2.68685e+7 
           3250      2.83714e+7 
           3270      2.91271e+7 
           3290      2.93501e+7 
           3310      2.99373e+7 
           3330      2.90263e+7 
           3350      2.84998e+7 
           3370      2.81158e+7 
           3390      2.84947e+7 
           3410      2.88661e+7 
           3430      2.91764e+7 
           3450      2.88685e+7 
           3470      2.84494e+7 
           3490      2.83287e+7 
           3510      2.90333e+7 
           3530      2.88389e+7 
           3550      2.97656e+7 
           3570      2.81575e+7 
           3590      2.79739e+7 
           3610      2.81574e+7 
           3630      2.82959e+7 
           3640      2.77503e+7 
           3650      2.92335e+7 
           3670      2.89884e+7 
           3690      2.77039e+7 
           3710      2.84899e+7 
           3730       2.8697e+7 
           3750      3.53597e+7 
           3770      3.80735e+7 
           3790      4.69676e+7 
           3810      5.49623e+7 
           3830      4.29612e+7 
           3850      6.07393e+7 
           3870      6.91585e+7 
           3890      3.95573e+7 
           3910      6.83273e+7 
           3930      5.30059e+7 
           3950      6.62213e+7 
           3970       3.4769e+7 
           3990      6.76594e+7 
           4010       7.9518e+7 
           4030        7.964e+7 
           4050      7.85775e+7 
           4070       7.3909e+7 
           4090      5.68829e+7 
           4110      4.33062e+7 
           4130      6.96237e+7 
           4150      7.59999e+7 
           4170      7.55023e+7 
           4190      7.50858e+7 
           4210      7.51223e+7 
           4230      7.26176e+7 
           4250      7.29536e+7 
           4270       6.9439e+7 
           4290      6.93069e+7 
           4310      6.20477e+7 
           4330       4.7539e+7 
           4350      4.04114e+7 
           4370      6.30345e+7 
           4390      6.54112e+7 
           4410      6.50091e+7 
           4430      6.37247e+7 
           4450      6.50994e+7 
           4470      6.51366e+7 
           4490      6.37765e+7 
           4510      6.58347e+7 
           4530      6.27194e+7 
           4550      6.19308e+7 
           4570      6.38017e+7 
           4590      6.12245e+7 
           4610      6.25894e+7 
           4630      6.05104e+7 
           4650      6.08673e+7 
           4670      6.06494e+7 
           4690      5.79667e+7 
           4710      5.54614e+7 
           4730      5.82398e+7 
           4750      5.79191e+7 
           4770      5.67539e+7 
           4790      5.58984e+7 
           4810      5.40748e+7 
           4830      5.11733e+7 
           4850      3.88893e+7 
           4870      3.09953e+7 
           4890      4.76062e+7 
           4910      5.09195e+7 
           4930      5.06824e+7 
           4950       5.1642e+7 
           4970      5.19029e+7 
           4990      4.98264e+7 
           5010      4.77619e+7 
           5030      4.90058e+7 
           5050      4.80704e+7 
           5070       4.8967e+7 
           5090      4.83343e+7 
           5110      4.81846e+7 
           5130      4.70581e+7 
           5150      4.59433e+7 
           5170      4.48979e+7 
           5190      4.42379e+7 
           5210      4.45595e+7 
           5230      4.40541e+7 
           5250       4.4628e+7 
           5270      4.10941e+7 
           5290      4.35006e+7 
           5310      4.28048e+7 
           5330      4.05481e+7 
           5350      4.22369e+7 
           5370      4.18549e+7 
           5390      4.12622e+7 
           5410      4.00425e+7 
           5430      4.03882e+7 
           5450      4.06263e+7 
           5470      4.00616e+7 
           5490       3.9499e+7 
           5510      3.92822e+7 
           5530       3.8905e+7 
           5550      3.88856e+7 
           5570      3.82049e+7 
           5590      3.76065e+7 
           5610      3.75723e+7 
           5630      3.75839e+7 
           5650      3.70174e+7 
           5670       3.6268e+7 
           5690       3.6294e+7 
           5710      3.58865e+7 
           5730      3.61768e+7 
           5750      3.53502e+7 
           5770      3.52674e+7 
           5790      3.48455e+7 
           5810      3.46461e+7 
           5830      3.44122e+7 
           5850      3.39483e+7 
           5870      3.36693e+7 
           5890      3.28991e+7 
           5910      3.30856e+7 
           5930      3.27846e+7 
           5950      3.23901e+7 
           5970      3.22115e+7 
           5990      3.17384e+7 
           6010      3.12897e+7 
           6030      3.11084e+7 
           6050       3.0864e+7 
           6070      3.08552e+7 
           6090      3.04436e+7 
           6110      3.00408e+7 
           6130       2.9431e+7 
           6150      2.86463e+7 
           6170      2.86687e+7 
           6190      2.91661e+7 
           6210      2.88711e+7 
           6230      2.84385e+7 
           6250      2.75961e+7 
           6270      2.82071e+7 
           6290      2.79804e+7 
           6310      2.74334e+7 
           6330      2.72669e+7 
           6350      2.66236e+7 
           6370      2.65643e+7 
           6390      2.66336e+7 
           6410      2.60899e+7 
           6430      2.60855e+7 
           6450      2.52955e+7 
           6470      2.54399e+7 
           6490      2.49408e+7 
           6510      2.46856e+7 
           6530      2.37262e+7 
           6550      2.03044e+7 
           6570      1.61872e+7 
           6590      2.22777e+7 
           6610      2.35606e+7 
           6630      2.37838e+7 
           6650       2.3727e+7 
           6670      2.35265e+7 
           6690      2.34399e+7 
           6710      2.32426e+7 
           6730      2.30174e+7 
           6750      2.25934e+7 
           6770      2.27519e+7 
           6790      2.25274e+7 
           6810      2.23473e+7 
           6830      2.21173e+7 
           6850      2.19338e+7 
           6870      2.18294e+7 
           6890      2.16481e+7 
           6910      2.14614e+7 
           6930      2.12616e+7 
           6950      2.11137e+7 
           6970      2.09097e+7 
           6990      2.07895e+7 
           7010      2.02455e+7 
           7030      2.03721e+7 
           7050      2.02529e+7 
           7070      2.01008e+7 
           7090      1.99591e+7 
           7110      1.93782e+7 
           7130      1.95031e+7 
           7150      1.93153e+7 
           7170      1.91498e+7 
           7190       1.8988e+7 
           7210      1.89111e+7 
           7230      1.87389e+7 
           7250      1.84743e+7 
           7270      1.85297e+7 
           7290      1.82296e+7 
           7310       1.8204e+7 
           7330      1.80452e+7 
           7350      1.79792e+7 
           7370      1.78541e+7 
           7390      1.76182e+7 
           7410      1.73538e+7 
           7430      1.71608e+7 
           7450      1.71075e+7 
           7470      1.69336e+7 
           7490      1.68863e+7 
           7510      1.68366e+7 
           7530      1.67373e+7 
           7550      1.66672e+7 
           7570      1.64715e+7 
           7590      1.63992e+7 
           7610      1.62474e+7 
           7630      1.61584e+7 
           7650      1.59659e+7 
           7670       1.5747e+7 
           7690      1.56289e+7 
           7710      1.56087e+7 
           7730      1.55249e+7 
           7750      1.53615e+7 
           7770      1.48706e+7 
           7790      1.52302e+7 
           7810      1.50566e+7 
           7830       1.4898e+7 
           7850      1.47189e+7 
           7870      1.46241e+7 
           7890       1.4455e+7 
           7910      1.43874e+7 
           7930       1.4158e+7 
           7950       1.4063e+7 
           7970      1.42102e+7 
           7990      1.38659e+7 
           8010      1.39711e+7 
           8030      1.38158e+7 
           8050      1.37454e+7 
           8070      1.36491e+7 
           8090      1.35534e+7 
           8110      1.34821e+7 
           8130      1.34204e+7 
           8150      1.33195e+7 
           8170      1.32216e+7 
           8190      1.29027e+7 
           8210      1.27767e+7 
           8230      1.26958e+7 
           8250       1.2678e+7 
           8270      1.28024e+7 
           8290      1.26881e+7 
           8310      1.25327e+7 
           8330      1.23814e+7 
           8350      1.23983e+7 
           8370       1.2366e+7 
           8390      1.22242e+7 
           8410      1.21576e+7 
           8430      1.20136e+7 
           8450      1.17014e+7 
           8470      1.17197e+7 
           8490      1.17393e+7 
           8510      1.10756e+7 
           8530      1.16336e+7 
           8550      9.99819e+6 
           8570      1.17417e+7 
           8590      1.09984e+7 
           8610      1.07339e+7 
           8630      1.16787e+7 
           8650      1.11998e+7 
           8670      9.09336e+6 
           8690      1.11079e+7 
           8710        1.171e+7 
           8730      1.11927e+7 
           8750      8.98984e+6 
           8770      1.07475e+7 
           8790      1.15958e+7 
           8810      1.16466e+7 
           8830      1.12069e+7 
           8850      1.00519e+7 
           8870      8.56246e+6 
           8890      1.07086e+7 
           8910      1.12509e+7 
           8930      1.12993e+7 
           8950      1.14205e+7 
           8970      1.11215e+7 
           8990      1.05206e+7 
           9010      8.36479e+6 
           9030       9.1728e+6 
           9050      1.05426e+7 
           9070      1.06312e+7 
           9090      1.05562e+7 
           9110      1.07955e+7 
           9130      1.08499e+7 
           9150      1.08102e+7 
           9170      1.06076e+7 
           9190      1.02421e+7 
           9210      9.36626e+6 
           9230      7.31146e+6 
           9250       8.9376e+6 
           9270      9.61629e+6 
           9290       1.0193e+7 
           9310      1.02523e+7 
           9330      1.01829e+7 
           9350       1.0188e+7 
           9370      1.01523e+7 
