# Kurucz ODFNEW /NOVER (2003)
# teff = 34000 K (value for the effective temperature for the model. Temperatures are given in K)
# logg = 5 log(cm/s2) (value for Log(G) for the model.)
# meta = -0.5  (value for the Metallicity for the model.)
# lh = 1.25  (l/Hp where l is the  mixing length of the convective element and Hp is the pressure scale height)
# vtur = 2 km/s (Microturbulence velocity)
# alpha = 0  (Alpha)
#
# column 1: WAVELENGTH (ANGSTROM), Wavelength in Angstrom
# column 2: FLUX (ERG/CM2/S/A), Flux in erg/cm2/s/A
          147.2      5.32829e-5 
            151     0.000134493 
          155.2     0.000355693 
          158.8     0.000787328 
            162      0.00155133 
            166       0.0034966 
          170.3      0.00803116 
          173.4       0.0142836 
          176.8       0.0262725 
          180.2       0.0472338 
          181.7       0.0608326 
          186.1        0.124735 
            191        0.267431 
          193.9         0.41264 
          198.4        0.790085 
          201.8         1.26646 
            205         1.94761 
          210.5         3.96631 
          216.2         7.97885 
          219.8         12.2099 
            223         17.6081 
          226.8         26.8143 
            230         13478.2 
            234         41806.5 
            240         67431.9 
          246.5          109797 
          252.4          170583 
          256.8          207342 
            260          337959 
            264          494047 
          268.5          693393 
          273.5          913138 
          278.5       1.1184e+6 
            284      2.00252e+6 
            290      2.72199e+6 
            296      3.43359e+6 
            301      4.44503e+6 
            308      7.80233e+6 
            318      1.59895e+7 
            328      2.15479e+7 
            338      3.36255e+7 
            348      4.75858e+7 
            357      7.22368e+7 
            366      1.07848e+8 
            375      1.27382e+8 
            385      1.66658e+8 
            395      2.19832e+8 
            405      2.63533e+8 
            414      3.18491e+8 
            422      3.53514e+8 
            430      4.01933e+8 
            441      4.86329e+8 
            451      5.61498e+8 
            460      6.17046e+8 
            470      7.15632e+8 
            480      8.20024e+8 
            490      9.08889e+8 
            500      1.05385e+9 
            506      2.51299e+9 
            512     1.21939e+10 
            520     1.14823e+10 
            530      1.0938e+10 
            540      9.81874e+9 
            550     1.12476e+10 
            560     1.27771e+10 
            570     1.31513e+10 
            580     1.21384e+10 
            590     1.28203e+10 
            600     1.18052e+10 
            610     1.27365e+10 
            620     1.40137e+10 
            630     1.37849e+10 
            640     1.35737e+10 
            650     1.38654e+10 
            658     1.30439e+10 
            665     1.37547e+10 
            675     1.41167e+10 
            685     1.27007e+10 
            695      1.4485e+10 
            705     1.34077e+10 
            716     1.49544e+10 
            726     1.47089e+10 
            735     1.48453e+10 
            745     1.47468e+10 
            755     1.46667e+10 
            765     1.47422e+10 
            775     1.48653e+10 
            785     1.52294e+10 
            795      1.5127e+10 
            805     1.48919e+10 
            815     1.49041e+10 
            825     1.52385e+10 
            835     1.38756e+10 
            845     1.49425e+10 
            855     1.48873e+10 
            865     1.51361e+10 
            875     1.51789e+10 
            885     1.52673e+10 
            895      1.5333e+10 
            905     1.50393e+10 
            915     1.48721e+10 
            925     3.65359e+10 
            935     5.96148e+10 
            945     9.53567e+10 
            955     1.08844e+11 
            965     1.34943e+11 
            975     6.43744e+10 
            985     1.25247e+11 
            995     1.12076e+11 
           1005     1.17585e+11 
           1015      1.1645e+11 
           1025     7.22675e+10 
           1035      1.0989e+11 
           1045     1.22583e+11 
           1055     1.18425e+11 
           1065     1.05769e+11 
           1075     1.07872e+11 
           1085     9.74573e+10 
           1095     1.04929e+11 
           1105     1.00015e+11 
           1115     9.80743e+10 
           1125     8.64472e+10 
           1135     9.37214e+10 
           1145     8.85312e+10 
           1155     8.63666e+10 
           1165     8.36523e+10 
           1175     6.39168e+10 
           1185     7.68791e+10 
           1195     7.47589e+10 
           1205     6.99869e+10 
           1215     4.54711e+10 
           1225     6.70073e+10 
           1235     7.10469e+10 
           1245      6.8814e+10 
           1255     6.82288e+10 
           1265     6.84021e+10 
           1275     6.79312e+10 
           1285     6.70377e+10 
           1295     6.24054e+10 
           1305     6.22866e+10 
           1315     6.33451e+10 
           1325     6.07981e+10 
           1335     5.90219e+10 
           1345     5.85307e+10 
           1355     5.73253e+10 
           1365     5.52632e+10 
           1375     5.41614e+10 
           1385     5.26083e+10 
           1395     4.63027e+10 
           1405     4.62509e+10 
           1415     4.90747e+10 
           1425     4.54088e+10 
           1435     4.67009e+10 
           1442     4.65457e+10 
           1447     4.59152e+10 
           1455     4.43955e+10 
           1465     4.35001e+10 
           1475     4.26647e+10 
           1485     4.24149e+10 
           1495     4.10892e+10 
           1505     3.99711e+10 
           1512     3.92344e+10 
           1517     3.89713e+10 
           1525      3.8016e+10 
           1535      3.4494e+10 
           1545     3.18031e+10 
           1555     3.13393e+10 
           1565     3.26043e+10 
           1575     3.32031e+10 
           1585     3.31783e+10 
           1595     3.27073e+10 
           1605     3.09029e+10 
           1615     2.97212e+10 
           1625     2.99472e+10 
           1635     2.97046e+10 
           1645     2.87473e+10 
           1655     2.95315e+10 
           1665     2.89536e+10 
           1672     2.75487e+10 
           1677     2.96445e+10 
           1685     2.86804e+10 
           1695     2.79247e+10 
           1705     2.72469e+10 
           1715     2.64062e+10 
           1725     2.55692e+10 
           1735      2.6075e+10 
           1745     2.56174e+10 
           1755     2.50584e+10 
           1765     2.46108e+10 
           1775     2.41023e+10 
           1785     2.39867e+10 
           1795     2.34922e+10 
           1805     2.32904e+10 
           1815     2.26674e+10 
           1825      2.2293e+10 
           1835     2.21044e+10 
           1845      2.1094e+10 
           1855     2.08617e+10 
           1865      2.0735e+10 
           1875     2.04126e+10 
           1885     1.95743e+10 
           1895     1.91143e+10 
           1905      1.9345e+10 
           1915     1.87572e+10 
           1925     1.79203e+10 
           1935     1.83584e+10 
           1945     1.83653e+10 
           1955     1.72829e+10 
           1967     1.75478e+10 
           1976     1.76469e+10 
           1984     1.70838e+10 
           1995     1.65836e+10 
           2005     1.66941e+10 
           2015     1.65538e+10 
           2025     1.63797e+10 
           2035     1.58998e+10 
           2045      1.5651e+10 
           2055     1.32903e+10 
           2065     1.28518e+10 
           2074     1.29953e+10 
           2078     1.28232e+10 
           2085       1.307e+10 
           2095      1.3446e+10 
           2105     1.41441e+10 
           2115      1.4206e+10 
           2125     1.39633e+10 
           2135     1.37833e+10 
           2145     1.35379e+10 
           2155     1.34304e+10 
           2165     1.30221e+10 
           2175     1.30715e+10 
           2185     1.26988e+10 
           2195     1.27406e+10 
           2205      1.2554e+10 
           2215      1.2126e+10 
           2225     1.21642e+10 
           2235     1.19756e+10 
           2245     1.17937e+10 
           2255      1.1393e+10 
           2265     1.14615e+10 
           2275     1.13005e+10 
           2285     1.10792e+10 
           2295     1.05015e+10 
           2305     1.05644e+10 
           2315     1.05985e+10 
           2325     1.04726e+10 
           2335     1.03106e+10 
           2345     1.01783e+10 
           2355     1.00214e+10 
           2365      9.87823e+9 
           2375      9.71307e+9 
           2385      9.36223e+9 
           2395      9.38995e+9 
           2405      9.31333e+9 
           2415      9.17823e+9 
           2425      9.06297e+9 
           2435      8.91244e+9 
           2445      8.80187e+9 
           2455      8.67593e+9 
           2465        8.566e+9 
           2475      8.44403e+9 
           2485       8.3091e+9 
           2495       7.4462e+9 
           2505      8.03406e+9 
           2513      7.62804e+9 
           2518      7.80396e+9 
           2525      7.87657e+9 
           2535      7.78113e+9 
           2545      7.63576e+9 
           2555      7.54264e+9 
           2565      7.45875e+9 
           2575      7.35945e+9 
           2585       7.2671e+9 
           2595      7.16309e+9 
           2605       7.0971e+9 
           2615      6.99334e+9 
           2625      6.91009e+9 
           2635      6.81976e+9 
           2645      6.72306e+9 
           2655       6.6367e+9 
           2665      6.52227e+9 
           2675      6.42042e+9 
           2685       6.3821e+9 
           2695      6.24924e+9 
           2705      6.19848e+9 
           2715      6.11866e+9 
           2725      6.02006e+9 
           2735      5.88244e+9 
           2745      5.90066e+9 
           2755       5.8306e+9 
           2765      5.71902e+9 
           2775      5.69402e+9 
           2785      5.61629e+9 
           2795      5.47924e+9 
           2805      5.45701e+9 
           2815      5.41498e+9 
           2825      5.31109e+9 
           2835       5.2315e+9 
           2845      5.21946e+9 
           2855      5.14783e+9 
           2865      5.08167e+9 
           2875      5.02313e+9 
           2885      4.96348e+9 
           2895      4.90183e+9 
           2910       4.8056e+9 
           2930      4.70248e+9 
           2950      4.55842e+9 
           2970      4.47801e+9 
           2990       4.3631e+9 
           3010      4.25708e+9 
           3030       4.1588e+9 
           3050      4.07163e+9 
           3070      3.98806e+9 
           3090       3.8754e+9 
           3110      3.80695e+9 
           3130       3.7175e+9 
           3150      3.63422e+9 
           3170      3.55252e+9 
           3190      3.45758e+9 
           3210       3.3819e+9 
           3230      3.32661e+9 
           3250      3.25904e+9 
           3270      3.18213e+9 
           3290      3.11669e+9 
           3310      3.05304e+9 
           3330      2.98397e+9 
           3350      2.91736e+9 
           3370      2.86014e+9 
           3390      2.80627e+9 
           3410      2.74763e+9 
           3430      2.68535e+9 
           3450      2.62136e+9 
           3470      2.57355e+9 
           3490      2.52128e+9 
           3510      2.47239e+9 
           3530       2.4261e+9 
           3550      2.37657e+9 
           3570         2.34e+9 
           3590      2.27737e+9 
           3610      2.24035e+9 
           3630      2.18949e+9 
           3640      2.17728e+9 
           3650      2.10779e+9 
           3670      2.07442e+9 
           3690      2.03619e+9 
           3710      1.97478e+9 
           3730      1.93237e+9 
           3750      1.89834e+9 
           3770      1.83924e+9 
           3790      1.86774e+9 
           3810      1.91029e+9 
           3830      1.71791e+9 
           3850      1.91884e+9 
           3870      1.92194e+9 
           3890      1.60515e+9 
           3910       1.8862e+9 
           3930      1.86168e+9 
           3950      1.81209e+9 
           3970       1.4831e+9 
           3990      1.74456e+9 
           4010      1.73578e+9 
           4030      1.64617e+9 
           4050      1.69059e+9 
           4070      1.63629e+9 
           4090      1.51065e+9 
           4110      1.36034e+9 
           4130      1.54503e+9 
           4150      1.53043e+9 
           4170      1.51878e+9 
           4190      1.48966e+9 
           4210      1.46406e+9 
           4230      1.44435e+9 
           4250      1.41335e+9 
           4270      1.38182e+9 
           4290      1.36123e+9 
           4310      1.32658e+9 
           4330      1.21173e+9 
           4350      1.12313e+9 
           4370      1.25913e+9 
           4390      1.22386e+9 
           4410      1.22741e+9 
           4430      1.21159e+9 
           4450       1.1922e+9 
           4470      1.12821e+9 
           4490      1.15218e+9 
           4510      1.13455e+9 
           4530      1.11703e+9 
           4550      1.09242e+9 
           4570      1.08117e+9 
           4590      1.06179e+9 
           4610      1.04391e+9 
           4630      1.02424e+9 
           4650      9.89942e+8 
           4670      9.93002e+8 
           4690      9.66893e+8 
           4710       9.5138e+8 
           4730      9.50996e+8 
           4750      9.35324e+8 
           4770      9.22795e+8 
           4790       9.0816e+8 
           4810      8.91537e+8 
           4830      8.71525e+8 
           4850      8.08377e+8 
           4870      7.36116e+8 
           4890      8.29677e+8 
           4910      8.23057e+8 
           4930      7.95405e+8 
           4950      8.00261e+8 
           4970        7.906e+8 
           4990      7.78616e+8 
           5010      7.56803e+8 
           5030      7.54817e+8 
           5050      7.40814e+8 
           5070      7.33383e+8 
           5090      7.22367e+8 
           5110      7.11617e+8 
           5130      7.00825e+8 
           5150      6.90648e+8 
           5170      6.80777e+8 
           5190      6.71204e+8 
           5210      6.61633e+8 
           5230      6.52093e+8 
           5250      6.42446e+8 
           5270      6.33238e+8 
           5290      6.24582e+8 
           5310      6.15704e+8 
           5330      6.07034e+8 
           5350       5.9845e+8 
           5370      5.90147e+8 
           5390      5.81781e+8 
           5410      5.70344e+8 
           5430      5.65844e+8 
           5450      5.57957e+8 
           5470      5.50258e+8 
           5490      5.42706e+8 
           5510      5.35324e+8 
           5530       5.2796e+8 
           5550      5.20908e+8 
           5570      5.13799e+8 
           5590      5.06644e+8 
           5610      5.00082e+8 
           5630      4.93397e+8 
           5650      4.86701e+8 
           5670       4.7991e+8 
           5690      4.71259e+8 
           5710       4.6355e+8 
           5730      4.57635e+8 
           5750      4.51369e+8 
           5770      4.45948e+8 
           5790      4.40119e+8 
           5810      4.34371e+8 
           5830      4.28503e+8 
           5850      4.23344e+8 
           5870      4.06983e+8 
           5890      4.11576e+8 
           5910      4.07705e+8 
           5930      4.02764e+8 
           5950      3.97911e+8 
           5970      3.93463e+8 
           5990      3.88593e+8 
           6010      3.84353e+8 
           6030      3.79839e+8 
           6050      3.75263e+8 
           6070      3.70718e+8 
           6090      3.66103e+8 
           6110      3.61561e+8 
           6130       3.5711e+8 
           6150      3.52471e+8 
           6170       3.4821e+8 
           6190      3.44086e+8 
           6210        3.399e+8 
           6230       3.3577e+8 
           6250      3.31618e+8 
           6270      3.27657e+8 
           6290      3.23729e+8 
           6310      3.19778e+8 
           6330      3.15993e+8 
           6350      3.12156e+8 
           6370        3.085e+8 
           6390      3.04809e+8 
           6410      3.01196e+8 
           6430      2.97658e+8 
           6450       2.9413e+8 
           6470      2.90461e+8 
           6490      2.87144e+8 
           6510      2.83515e+8 
           6530      2.78866e+8 
           6550      2.66865e+8 
           6570      2.40919e+8 
           6590        2.676e+8 
           6610      2.67121e+8 
           6630      2.64749e+8 
           6650      2.61779e+8 
           6670      2.56198e+8 
           6690      2.53246e+8 
           6710      2.52859e+8 
           6730      2.49936e+8 
           6750      2.47259e+8 
           6770      2.44542e+8 
           6790      2.41535e+8 
           6810      2.39078e+8 
           6830      2.36388e+8 
           6850      2.33797e+8 
           6870      2.31193e+8 
           6890      2.28472e+8 
           6910      2.25968e+8 
           6930      2.23646e+8 
           6950      2.21198e+8 
           6970      2.18775e+8 
           6990      2.16392e+8 
           7010      2.14016e+8 
           7030      2.11611e+8 
           7050      2.09389e+8 
           7070      2.04422e+8 
           7090      2.04927e+8 
           7110      2.02703e+8 
           7130      2.00544e+8 
           7150      1.98422e+8 
           7170       1.9621e+8 
           7190      1.94187e+8 
           7210      1.92162e+8 
           7230      1.89471e+8 
           7250      1.88055e+8 
           7270      1.86152e+8 
           7290       1.8297e+8 
           7310      1.82259e+8 
           7330      1.80368e+8 
           7350      1.78495e+8 
           7370      1.76647e+8 
           7390      1.74823e+8 
           7410      1.73016e+8 
           7430      1.71233e+8 
           7450      1.69487e+8 
           7470      1.67642e+8 
           7490      1.65962e+8 
           7510      1.64311e+8 
           7530      1.62669e+8 
           7550      1.61028e+8 
           7570      1.59396e+8 
           7590      1.57635e+8 
           7610      1.56138e+8 
           7630      1.54634e+8 
           7650       1.5308e+8 
           7670      1.51566e+8 
           7690       1.5002e+8 
           7710      1.48546e+8 
           7730      1.47034e+8 
           7750      1.45636e+8 
           7770      1.44195e+8 
           7790      1.42785e+8 
           7810      1.41338e+8 
           7830      1.39996e+8 
           7850      1.38715e+8 
           7870      1.37306e+8 
           7890      1.35939e+8 
           7910      1.34704e+8 
           7930      1.33385e+8 
           7950      1.32124e+8 
           7970      1.30798e+8 
           7990      1.29583e+8 
           8010      1.28344e+8 
           8030      1.27104e+8 
           8050      1.25909e+8 
           8070      1.24695e+8 
           8090      1.23412e+8 
           8110      1.22094e+8 
           8130      1.21169e+8 
           8150       1.1994e+8 
           8170      1.18896e+8 
           8190      1.17535e+8 
           8210      1.16041e+8 
           8230      1.14922e+8 
           8250      1.14039e+8 
           8270      1.12656e+8 
           8290      1.11965e+8 
           8310       1.1099e+8 
           8330      1.09893e+8 
           8350      1.08584e+8 
           8370      1.07824e+8 
           8390      1.06962e+8 
           8410      1.05975e+8 
           8430       1.0499e+8 
           8450      1.03602e+8 
           8470      1.03114e+8 
           8490      1.02059e+8 
           8510      1.01137e+8 
           8530      1.00151e+8 
           8550      9.92707e+7 
           8570      9.86387e+7 
           8590      9.66584e+7 
