# Kurucz ODFNEW /NOVER (2003)
# teff = 30000 K (value for the effective temperature for the model. Temperatures are given in K)
# logg = 4.5 log(cm/s2) (value for Log(G) for the model.)
# meta = -1  (value for the Metallicity for the model.)
# lh = 1.25  (l/Hp where l is the  mixing length of the convective element and Hp is the pressure scale height)
# vtur = 2 km/s (Microturbulence velocity)
# alpha = 0.4  (Alpha)
#
# column 1: WAVELENGTH (ANGSTROM), Wavelength in Angstrom
# column 2: FLUX (ERG/CM2/S/A), Flux in erg/cm2/s/A
          147.2      4.39376e-9 
            151      1.46626e-8 
          155.2      5.20198e-8 
          158.8      1.46325e-7 
            162      3.53618e-7 
            166      1.01663e-6 
          170.3      2.99374e-6 
          173.4      6.31233e-6 
          176.8      1.38769e-5 
          180.2      2.96039e-5 
          181.7      4.09754e-5 
          186.1     0.000103223 
            191     0.000274474 
          193.9     0.000478051 
          198.4      0.00109422 
          201.8      0.00199451 
            205      0.00344413 
          210.5      0.00846654 
          216.2       0.0204506 
          219.8       0.0348384 
            223       0.0551053 
          226.8       0.0935337 
            230         25.0593 
            234         61.1129 
            240         114.294 
          246.5          221.46 
          252.4         394.708 
          256.8         531.262 
            260         807.238 
            264         1092.36 
          268.5         1642.74 
          273.5         2462.82 
          278.5         3548.08 
            284         5947.82 
            290         9022.24 
            296         13359.8 
            301         17860.8 
            308         27406.4 
            318         56436.4 
            328         93877.7 
            338          162884 
            348          263385 
            357          521750 
            366          836642 
            375      1.14172e+6 
            385      1.70005e+6 
            395      2.51668e+6 
            405      3.42266e+6 
            414        4.609e+6 
            422      5.60872e+6 
            430      7.04009e+6 
            441      9.36918e+6 
            451      1.21083e+7 
            460      1.46613e+7 
            470      1.85107e+7 
            480      2.27787e+7 
            490      2.79072e+7 
            500      3.43683e+7 
            506      1.50053e+8 
            512      6.64965e+8 
            520      6.68611e+8 
            530      7.08731e+8 
            540      6.66537e+8 
            550      8.12963e+8 
            560       8.9645e+8 
            570      9.66753e+8 
            580      9.11307e+8 
            590      1.04661e+9 
            600      1.05725e+9 
            610       1.1475e+9 
            620      1.23398e+9 
            630      1.28215e+9 
            640      1.26925e+9 
            650      1.36425e+9 
            658      1.39193e+9 
            665      1.45367e+9 
            675      1.47426e+9 
            685      1.46324e+9 
            695      1.66797e+9 
            705      1.62781e+9 
            716      1.79511e+9 
            726      1.81383e+9 
            735      1.87205e+9 
            745      1.97194e+9 
            755      2.01826e+9 
            765       2.0904e+9 
            775      2.16563e+9 
            785      2.26047e+9 
            795      2.29492e+9 
            805      2.34017e+9 
            815      2.37242e+9 
            825      2.47854e+9 
            835      2.32892e+9 
            845      2.54458e+9 
            855      2.59058e+9 
            865      2.67231e+9 
            875      2.74616e+9 
            885      2.83019e+9 
            895      2.89541e+9 
            905      2.90206e+9 
            915      3.35082e+9 
            925     1.49124e+10 
            935     2.95454e+10 
            945      5.5643e+10 
            955     6.52897e+10 
            965      8.0955e+10 
            975     3.46121e+10 
            985     7.77591e+10 
            995     7.09717e+10 
           1005     7.40311e+10 
           1015      7.2276e+10 
           1025     3.91888e+10 
           1035     6.61653e+10 
           1045     7.65481e+10 
           1055     7.35638e+10 
           1065      6.5051e+10 
           1075     6.75529e+10 
           1085     6.19613e+10 
           1095     6.65908e+10 
           1105     6.31047e+10 
           1115     6.16718e+10 
           1125     5.39544e+10 
           1135     5.97544e+10 
           1145     5.50945e+10 
           1155     5.54296e+10 
           1165     5.47569e+10 
           1175     4.30178e+10 
           1185     5.09281e+10 
           1195     4.85914e+10 
           1205     4.32297e+10 
           1215     2.58643e+10 
           1225      4.4074e+10 
           1235     4.67323e+10 
           1245     4.53332e+10 
           1255     4.49126e+10 
           1265     4.43725e+10 
           1275     4.40824e+10 
           1285     4.32256e+10 
           1295     3.86945e+10 
           1305     3.92806e+10 
           1315     4.05874e+10 
           1325     3.89685e+10 
           1335     3.77083e+10 
           1345     3.71643e+10 
           1355     3.71143e+10 
           1365     3.53068e+10 
           1375     3.47891e+10 
           1385     3.41432e+10 
           1395     2.86648e+10 
           1405     2.93173e+10 
           1415     3.16571e+10 
           1425     3.01551e+10 
           1435     3.04205e+10 
           1442     3.05353e+10 
           1447     3.00637e+10 
           1455     2.92749e+10 
           1465     2.85221e+10 
           1475     2.80362e+10 
           1485     2.76343e+10 
           1495     2.68983e+10 
           1505     2.57055e+10 
           1512     2.52225e+10 
           1517     2.51596e+10 
           1525     2.47279e+10 
           1535     2.27103e+10 
           1545     2.20022e+10 
           1555     2.13119e+10 
           1565     2.18126e+10 
           1575     2.20696e+10 
           1585     2.18235e+10 
           1595     2.15995e+10 
           1605     2.05956e+10 
           1615     1.99788e+10 
           1625      1.9942e+10 
           1635     1.99031e+10 
           1645     1.92261e+10 
           1655     1.95034e+10 
           1665     1.91203e+10 
           1672     1.85994e+10 
           1677     1.93781e+10 
           1685     1.88761e+10 
           1695     1.83564e+10 
           1705     1.78618e+10 
           1715     1.73262e+10 
           1725     1.69031e+10 
           1735     1.70417e+10 
           1745     1.67368e+10 
           1755     1.64977e+10 
           1765     1.60694e+10 
           1775     1.57262e+10 
           1785      1.5586e+10 
           1795     1.54561e+10 
           1805     1.53362e+10 
           1815     1.48188e+10 
           1825      1.4675e+10 
           1835     1.44472e+10 
           1845     1.36038e+10 
           1855     1.34619e+10 
           1865     1.34782e+10 
           1875     1.33948e+10 
           1885     1.26498e+10 
           1895     1.21411e+10 
           1905     1.24811e+10 
           1915     1.20193e+10 
           1925     1.16121e+10 
           1935     1.18526e+10 
           1945     1.18993e+10 
           1955      1.1152e+10 
           1967     1.13795e+10 
           1976      1.1553e+10 
           1984     1.10494e+10 
           1995     1.07301e+10 
           2005     1.08136e+10 
           2015     1.07817e+10 
           2025     1.07333e+10 
           2035     1.03233e+10 
           2045     1.01857e+10 
           2055      9.33566e+9 
           2065      9.16948e+9 
           2074       9.3353e+9 
           2078      9.10135e+9 
           2085       9.1972e+9 
           2095      9.17055e+9 
           2105      9.36164e+9 
           2115      9.32302e+9 
           2125       9.2288e+9 
           2135      9.08305e+9 
           2145      8.88883e+9 
           2155      8.84222e+9 
           2165      8.68196e+9 
           2175      8.58798e+9 
           2185      8.43853e+9 
           2195      8.38215e+9 
           2205      8.25825e+9 
           2215      8.09632e+9 
           2225       8.0062e+9 
           2235      7.87514e+9 
           2245      7.79019e+9 
           2255      7.62123e+9 
           2265       7.5673e+9 
           2275      7.46307e+9 
           2285      7.33873e+9 
           2295       7.0313e+9 
           2305      7.09706e+9 
           2315      7.02533e+9 
           2325       6.9336e+9 
           2335      6.82044e+9 
           2345      6.75383e+9 
           2355      6.66073e+9 
           2365      6.57064e+9 
           2375      6.46834e+9 
           2385      6.34083e+9 
           2395       6.2786e+9 
           2405      6.21002e+9 
           2415      6.11509e+9 
           2425      6.04362e+9 
           2435      5.93912e+9 
           2445      5.87293e+9 
           2455        5.799e+9 
           2465      5.72755e+9 
           2475      5.64421e+9 
           2485      5.56545e+9 
           2495      5.02504e+9 
           2505      5.39739e+9 
           2513      5.24412e+9 
           2518      5.27929e+9 
           2525      5.28274e+9 
           2535       5.2191e+9 
           2545      5.09528e+9 
           2555      5.05657e+9 
           2565      5.00479e+9 
           2575      4.95043e+9 
           2585      4.88954e+9 
           2595      4.82669e+9 
           2605      4.78788e+9 
           2615        4.724e+9 
           2625      4.66626e+9 
           2635      4.60438e+9 
           2645       4.5433e+9 
           2655      4.48204e+9 
           2665      4.40757e+9 
           2675      4.35273e+9 
           2685      4.32538e+9 
           2695      4.23084e+9 
           2705      4.20538e+9 
           2715      4.15821e+9 
           2725      4.08092e+9 
           2735      4.04015e+9 
           2745      4.00802e+9 
           2755      3.96155e+9 
           2765      3.88431e+9 
           2775       3.8732e+9 
           2785      3.82115e+9 
           2795      3.71838e+9 
           2805      3.71322e+9 
           2815      3.69065e+9 
           2825      3.61415e+9 
           2835      3.56418e+9 
           2845       3.5616e+9 
           2855      3.51253e+9 
           2865      3.47258e+9 
           2875      3.43256e+9 
           2885      3.39523e+9 
           2895       3.3541e+9 
           2910      3.29047e+9 
           2930       3.2199e+9 
           2950      3.12306e+9 
           2970      3.07494e+9 
           2990      3.00339e+9 
           3010      2.92802e+9 
           3030      2.86803e+9 
           3050      2.80924e+9 
           3070      2.75165e+9 
           3090      2.66892e+9 
           3110      2.63054e+9 
           3130      2.56992e+9 
           3150      2.51609e+9 
           3170      2.46303e+9 
           3190      2.39422e+9 
           3210      2.35819e+9 
           3230      2.30817e+9 
           3250      2.26309e+9 
           3270      2.21611e+9 
           3290       2.1683e+9 
           3310      2.12708e+9 
           3330      2.08146e+9 
           3350      2.03738e+9 
           3370      1.99811e+9 
           3390       1.9607e+9 
           3410      1.92163e+9 
           3430      1.87694e+9 
           3450      1.83334e+9 
           3470      1.80091e+9 
           3490      1.76526e+9 
           3510      1.73444e+9 
           3530      1.70468e+9 
           3550       1.6713e+9 
           3570      1.64775e+9 
           3590      1.60369e+9 
           3610       1.5799e+9 
           3630      1.54473e+9 
           3640      1.54168e+9 
           3650      1.50881e+9 
           3670       1.4881e+9 
           3690      1.46015e+9 
           3710      1.41002e+9 
           3730      1.35908e+9 
           3750      1.36193e+9 
           3770      1.33437e+9 
           3790      1.38078e+9 
           3810      1.42363e+9 
           3830      1.26269e+9 
           3850       1.4433e+9 
           3870       1.4456e+9 
           3890      1.18943e+9 
           3910      1.41953e+9 
           3930      1.39555e+9 
           3950      1.36651e+9 
           3970      1.10225e+9 
           3990      1.31511e+9 
           4010      1.30653e+9 
           4030      1.23752e+9 
           4050      1.27311e+9 
           4070      1.23008e+9 
           4090      1.14095e+9 
           4110      1.01751e+9 
           4130       1.1624e+9 
           4150      1.15332e+9 
           4170      1.14493e+9 
           4190      1.12441e+9 
           4210      1.10865e+9 
           4230       1.0895e+9 
           4250      1.06581e+9 
           4270      1.04211e+9 
           4290      1.02667e+9 
           4310      1.00211e+9 
           4330      9.18048e+8 
           4350      8.42452e+8 
           4370      9.52669e+8 
           4390      9.24597e+8 
           4410       9.2853e+8 
           4430      9.16268e+8 
           4450      9.02077e+8 
           4470      8.53203e+8 
           4490      8.72304e+8 
           4510      8.61139e+8 
           4530      8.47586e+8 
           4550      8.31653e+8 
           4570      8.18364e+8 
           4590      8.04578e+8 
           4610      7.92117e+8 
           4630      7.80157e+8 
           4650      7.57396e+8 
           4670      7.54205e+8 
           4690      7.41929e+8 
           4710      7.20748e+8 
           4730      7.22614e+8 
           4750      7.10564e+8 
           4770      7.01637e+8 
           4790      6.90717e+8 
           4810      6.78488e+8 
           4830      6.63385e+8 
           4850      6.17486e+8 
           4870      5.57401e+8 
           4890      6.33168e+8 
           4910      6.27536e+8 
           4930       6.0573e+8 
           4950      6.09563e+8 
           4970      6.02806e+8 
           4990      5.93808e+8 
           5010      5.77114e+8 
           5030      5.76197e+8 
           5050      5.64891e+8 
           5070      5.59886e+8 
           5090      5.51511e+8 
           5110      5.43581e+8 
           5130        5.356e+8 
           5150      5.27911e+8 
           5170      5.20325e+8 
           5190      5.13232e+8 
           5210      5.05871e+8 
           5230       4.9891e+8 
           5250      4.91877e+8 
           5270      4.84895e+8 
           5290      4.78207e+8 
           5310      4.71511e+8 
           5330      4.64996e+8 
           5350      4.58512e+8 
           5370      4.52294e+8 
           5390      4.45922e+8 
           5410      4.39516e+8 
           5430      4.33946e+8 
           5450      4.27964e+8 
           5470      4.22184e+8 
           5490      4.16526e+8 
           5510      4.10976e+8 
           5530      4.05422e+8 
           5550      4.00059e+8 
           5570      3.94702e+8 
           5590      3.89459e+8 
           5610      3.84317e+8 
           5630      3.79286e+8 
           5650      3.74174e+8 
           5670      3.69067e+8 
           5690      3.63777e+8 
           5710       3.5957e+8 
           5730      3.55056e+8 
           5750      3.49958e+8 
           5770       3.4602e+8 
           5790      3.41543e+8 
           5810      3.37176e+8 
           5830      3.32783e+8 
           5850      3.28618e+8 
           5870      3.15219e+8 
           5890      3.19522e+8 
           5910      3.16187e+8 
           5930      3.12205e+8 
           5950      3.08279e+8 
           5970      3.04653e+8 
           5990      3.00721e+8 
           6010      2.97086e+8 
           6030      2.93367e+8 
           6050      2.89794e+8 
           6070      2.86272e+8 
           6090       2.8276e+8 
           6110      2.79327e+8 
           6130      2.75933e+8 
           6150      2.72458e+8 
           6170       2.6921e+8 
           6190      2.66018e+8 
           6210      2.62842e+8 
           6230      2.59692e+8 
           6250      2.56567e+8 
           6270      2.53514e+8 
           6290      2.50524e+8 
           6310      2.47519e+8 
           6330      2.44632e+8 
           6350      2.41682e+8 
           6370      2.38904e+8 
           6390      2.36101e+8 
           6410      2.33337e+8 
           6430      2.30649e+8 
           6450      2.27971e+8 
           6470      2.25214e+8 
           6490      2.22638e+8 
           6510      2.20028e+8 
           6530      2.16588e+8 
           6550      2.07655e+8 
           6570      1.85882e+8 
           6590      2.07952e+8 
           6610      2.07489e+8 
           6630      2.05527e+8 
           6650       2.0322e+8 
           6670      1.99056e+8 
           6690      1.96866e+8 
           6710      1.96531e+8 
           6730      1.94208e+8 
           6750      1.92216e+8 
           6770      1.90087e+8 
           6790      1.87825e+8 
           6810      1.85887e+8 
           6830      1.83806e+8 
           6850      1.81835e+8 
           6870      1.79844e+8 
           6890       1.7781e+8 
           6910      1.75827e+8 
           6930      1.74045e+8 
           6950      1.72171e+8 
           6970      1.70316e+8 
           6990      1.68479e+8 
           7010      1.66676e+8 
           7030      1.64883e+8 
           7050       1.6313e+8 
           7070      1.58998e+8 
           7090      1.59683e+8 
           7110      1.57974e+8 
           7130      1.56318e+8 
           7150      1.54678e+8 
           7170       1.5304e+8 
           7190      1.51454e+8 
           7210      1.49875e+8 
           7230      1.47808e+8 
           7250      1.46678e+8 
           7270      1.45252e+8 
           7290      1.42648e+8 
           7310       1.4225e+8 
           7330      1.40801e+8 
           7350       1.3936e+8 
           7370      1.37939e+8 
           7390      1.36531e+8 
           7410      1.35136e+8 
           7430      1.33761e+8 
           7450      1.32426e+8 
           7470      1.30935e+8 
           7490      1.29753e+8 
           7510      1.28422e+8 
           7530      1.27162e+8 
           7550      1.25901e+8 
           7570      1.24645e+8 
           7590      1.23407e+8 
           7610      1.22135e+8 
           7630      1.20971e+8 
           7650       1.1978e+8 
           7670      1.18599e+8 
           7690      1.17428e+8 
           7710      1.16281e+8 
           7730      1.15132e+8 
           7750      1.14018e+8 
           7770       1.1287e+8 
           7790      1.11819e+8 
           7810      1.10679e+8 
           7830      1.09666e+8 
           7850      1.08692e+8 
           7870      1.07599e+8 
           7890      1.06497e+8 
           7910      1.05592e+8 
           7930      1.04575e+8 
           7950      1.03573e+8 
           7970      1.02502e+8 
           7990      1.01565e+8 
           8010      1.00565e+8 
           8030      9.95678e+7 
           8050      9.86493e+7 
           8070      9.77502e+7 
           8090      9.66804e+7 
           8110      9.57173e+7 
           8130      9.50474e+7 
           8150       9.4071e+7 
           8170      9.33176e+7 
           8190      9.22558e+7 
           8210      9.12312e+7 
           8230      9.05547e+7 
           8250      8.98062e+7 
           8270      8.85186e+7 
           8290      8.81084e+7 
           8310       8.7352e+7 
           8330      8.65205e+7 
           8350      8.53771e+7 
           8370      8.48351e+7 
           8390      8.41903e+7 
           8410      8.34228e+7 
           8430      8.26351e+7 
           8450      8.13844e+7 
           8470      8.11318e+7 
           8490      8.02378e+7 
           8510      7.95698e+7 
           8530      7.87829e+7 
           8550      7.77448e+7 
           8570      7.79056e+7 
