# Kurucz ODFNEW /NOVER (2003)
# teff = 33000 K (value for the effective temperature for the model. Temperatures are given in K)
# logg = 5 log(cm/s2) (value for Log(G) for the model.)
# meta = 0.5  (value for the Metallicity for the model.)
# lh = 1.25  (l/Hp where l is the  mixing length of the convective element and Hp is the pressure scale height)
# vtur = 2 km/s (Microturbulence velocity)
# alpha = 0.4  (Alpha)
#
# column 1: WAVELENGTH (ANGSTROM), Wavelength in Angstrom
# column 2: FLUX (ERG/CM2/S/A), Flux in erg/cm2/s/A
          147.2      4.42193e-6 
            151      1.18171e-5 
          155.2      3.31872e-5 
          158.8       7.7197e-5 
            162     0.000158736 
            166     0.000377235 
          170.3     0.000908398 
          173.4      0.00168834 
          176.8      0.00325408 
          180.2      0.00607091 
          181.7      0.00802095 
          186.1       0.0171857 
            191       0.0387035 
          193.9       0.0612712 
          198.4        0.122601 
          201.8        0.201819 
            205        0.317797 
          210.5        0.673373 
          216.2         1.39545 
          219.8         2.19954 
            223         3.23601 
          226.8         5.70643 
            230         324.372 
            234         658.375 
            240         1111.81 
          246.5         1948.86 
          252.4         3275.24 
          256.8         4657.77 
            260         7052.53 
            264         9824.72 
          268.5         14734.8 
          273.5         21070.5 
          278.5         28105.3 
            284         62168.6 
            290         91449.8 
            296          126134 
            301          172154 
            308          455146 
            318          883334 
            328      1.32068e+6 
            338      2.28628e+6 
            348       3.5351e+6 
            357      9.49502e+6 
            366      2.09772e+7 
            375      2.58555e+7 
            385      3.96312e+7 
            395      9.74752e+7 
            405      1.20393e+8 
            414      1.99975e+8 
            422      2.28427e+8 
            430      2.68152e+8 
            441        3.283e+8 
            451      3.71486e+8 
            460      3.83851e+8 
            470       4.7075e+8 
            480      5.54139e+8 
            490      6.03316e+8 
            500      7.29921e+8 
            506      9.13485e+8 
            512      7.96115e+9 
            520      7.29774e+9 
            530        6.919e+9 
            540      6.52481e+9 
            550      7.97346e+9 
            560     1.04384e+10 
            570     1.09733e+10 
            580      9.99733e+9 
            590      1.0909e+10 
            600       7.7714e+9 
            610      1.0497e+10 
            620      1.2522e+10 
            630     1.21381e+10 
            640     1.14812e+10 
            650     1.13902e+10 
            658      8.54446e+9 
            665     1.09026e+10 
            675     1.23886e+10 
            685      9.37518e+9 
            695     1.34391e+10 
            705      9.77931e+9 
            716     1.44841e+10 
            726      1.3794e+10 
            735     1.39262e+10 
            745     1.31055e+10 
            755     1.32028e+10 
            765     1.40186e+10 
            775     1.45937e+10 
            785     1.49506e+10 
            795     1.48582e+10 
            805     1.39751e+10 
            815     1.37772e+10 
            825     1.49928e+10 
            835     1.11188e+10 
            845     1.40899e+10 
            855     1.38076e+10 
            865     1.43366e+10 
            875     1.44143e+10 
            885     1.48061e+10 
            895       1.489e+10 
            905     1.42444e+10 
            915     1.42421e+10 
            925     3.64918e+10 
            935     6.08817e+10 
            945     8.99232e+10 
            955      1.0323e+11 
            965     1.23271e+11 
            975     3.86147e+10 
            985     9.65446e+10 
            995      8.4507e+10 
           1005     8.93685e+10 
           1015     9.72627e+10 
           1025     6.66414e+10 
           1035     9.10256e+10 
           1045     1.13603e+11 
           1055      1.0536e+11 
           1065     8.04327e+10 
           1075      8.9587e+10 
           1085     8.21062e+10 
           1095     9.02309e+10 
           1105     8.40204e+10 
           1115     8.18352e+10 
           1125     5.57463e+10 
           1135     7.74412e+10 
           1145     7.31663e+10 
           1155     6.82139e+10 
           1165     6.78889e+10 
           1175     4.10231e+10 
           1185     6.19787e+10 
           1195     5.89487e+10 
           1205     5.30941e+10 
           1215     3.98517e+10 
           1225     5.46407e+10 
           1235     5.98751e+10 
           1245     5.72085e+10 
           1255     5.69965e+10 
           1265     5.86721e+10 
           1275     6.09024e+10 
           1285     6.12085e+10 
           1295     5.21685e+10 
           1305     5.39713e+10 
           1315     6.00859e+10 
           1325     5.69292e+10 
           1335     5.55194e+10 
           1345      5.3616e+10 
           1355     5.39356e+10 
           1365     5.02306e+10 
           1375      4.8038e+10 
           1385     4.50431e+10 
           1395     2.84073e+10 
           1405     3.19758e+10 
           1415     4.31516e+10 
           1425     3.89526e+10 
           1435     4.21108e+10 
           1442     4.20309e+10 
           1447     4.17823e+10 
           1455     3.94182e+10 
           1465     3.75233e+10 
           1475     3.82872e+10 
           1485     3.79288e+10 
           1495     3.67185e+10 
           1505     3.40699e+10 
           1512     3.29906e+10 
           1517     3.34807e+10 
           1525     3.25925e+10 
           1535     2.73662e+10 
           1545     2.34211e+10 
           1555     2.33607e+10 
           1565     2.64671e+10 
           1575     2.80319e+10 
           1585     2.78398e+10 
           1595     2.82766e+10 
           1605     2.74062e+10 
           1615     2.58199e+10 
           1625     2.63277e+10 
           1635     2.68579e+10 
           1645     2.72131e+10 
           1655     2.68261e+10 
           1665     2.62874e+10 
           1672     2.43213e+10 
           1677      2.9031e+10 
           1685     2.74424e+10 
           1695     2.61781e+10 
           1705     2.57047e+10 
           1715     2.44682e+10 
           1725     2.28915e+10 
           1735     2.40513e+10 
           1745     2.39645e+10 
           1755     2.36885e+10 
           1765     2.32443e+10 
           1775     2.20182e+10 
           1785     2.25407e+10 
           1795     2.21803e+10 
           1805      2.2148e+10 
           1815     2.11052e+10 
           1825     2.09572e+10 
           1835     2.07103e+10 
           1845     1.91927e+10 
           1855     1.97494e+10 
           1865     1.99119e+10 
           1875     1.94461e+10 
           1885     1.81239e+10 
           1895     1.74799e+10 
           1905     1.82488e+10 
           1915     1.74639e+10 
           1925     1.62276e+10 
           1935     1.75243e+10 
           1945     1.78953e+10 
           1955     1.58852e+10 
           1967     1.68955e+10 
           1976     1.76315e+10 
           1984     1.65804e+10 
           1995     1.63337e+10 
           2005     1.66275e+10 
           2015     1.65696e+10 
           2025     1.65699e+10 
           2035     1.56242e+10 
           2045     1.55258e+10 
           2055     1.30788e+10 
           2065     1.27192e+10 
           2074     1.30347e+10 
           2078     1.26225e+10 
           2085     1.30466e+10 
           2095      1.3149e+10 
           2105     1.42019e+10 
           2115     1.44663e+10 
           2125     1.41485e+10 
           2135     1.40147e+10 
           2145     1.36665e+10 
           2155     1.37882e+10 
           2165     1.31982e+10 
           2175     1.33741e+10 
           2185     1.29782e+10 
           2195      1.3216e+10 
           2205      1.3039e+10 
           2215       1.252e+10 
           2225     1.25561e+10 
           2235     1.23512e+10 
           2245     1.22175e+10 
           2255     1.17486e+10 
           2265     1.18889e+10 
           2275     1.17423e+10 
           2285      1.1248e+10 
           2295      9.92924e+9 
           2305     1.08338e+10 
           2315     1.07327e+10 
           2325     1.07333e+10 
           2335     1.05614e+10 
           2345     1.05222e+10 
           2355     1.02754e+10 
           2365     1.00991e+10 
           2375      9.81325e+9 
           2385      9.43972e+9 
           2395      9.46417e+9 
           2405      9.48528e+9 
           2415      9.28675e+9 
           2425      9.26477e+9 
           2435       9.0662e+9 
           2445      8.99471e+9 
           2455      8.87283e+9 
           2465      8.77246e+9 
           2475      8.61746e+9 
           2485      8.21088e+9 
           2495       5.6816e+9 
           2505      7.67204e+9 
           2513      7.59225e+9 
           2518      7.62808e+9 
           2525      8.02133e+9 
           2535      8.01211e+9 
           2545      7.71312e+9 
           2555      7.70711e+9 
           2565      7.53777e+9 
           2575      7.54524e+9 
           2585      7.47457e+9 
           2595       7.3326e+9 
           2605      7.30084e+9 
           2615      7.12942e+9 
           2625      7.09434e+9 
           2635      7.00207e+9 
           2645       6.8846e+9 
           2655      6.81253e+9 
           2665       6.5663e+9 
           2675      6.43095e+9 
           2685      6.51326e+9 
           2695      6.30941e+9 
           2705      6.20827e+9 
           2715      6.16466e+9 
           2725      6.11138e+9 
           2735      5.99072e+9 
           2745      5.99715e+9 
           2755      5.92788e+9 
           2765      5.82645e+9 
           2775      5.86378e+9 
           2785      5.72703e+9 
           2795      5.45995e+9 
           2805      5.55085e+9 
           2815      5.56948e+9 
           2825      5.48717e+9 
           2835      5.32197e+9 
           2845        5.367e+9 
           2855      5.25183e+9 
           2865      5.18677e+9 
           2875      5.11156e+9 
           2885      5.05129e+9 
           2895      4.97015e+9 
           2910      4.80738e+9 
           2930      4.81526e+9 
           2950      4.66621e+9 
           2970      4.56514e+9 
           2990      4.40735e+9 
           3010      4.21092e+9 
           3030      4.12885e+9 
           3050      4.10889e+9 
           3070      4.06752e+9 
           3090      3.87994e+9 
           3110      3.89221e+9 
           3130      3.75603e+9 
           3150      3.70704e+9 
           3170      3.59852e+9 
           3190      3.54543e+9 
           3210      3.45711e+9 
           3230        3.372e+9 
           3250       3.3327e+9 
           3270      3.22032e+9 
           3290      3.17474e+9 
           3310      3.09695e+9 
           3330      3.01532e+9 
           3350      2.94757e+9 
           3370      2.88224e+9 
           3390      2.85905e+9 
           3410      2.79279e+9 
           3430      2.75868e+9 
           3450      2.67108e+9 
           3470      2.62868e+9 
           3490      2.57297e+9 
           3510      2.52205e+9 
           3530      2.49086e+9 
           3550      2.43158e+9 
           3570      2.38558e+9 
           3590      2.32022e+9 
           3610      2.28646e+9 
           3630      2.23609e+9 
           3640      2.21711e+9 
           3650       2.1497e+9 
           3670      2.11951e+9 
           3690       2.0785e+9 
           3710      1.98386e+9 
           3730      1.95677e+9 
           3750      1.92559e+9 
           3770      1.85281e+9 
           3790      1.90522e+9 
           3810      1.94963e+9 
           3830      1.74207e+9 
           3850      1.94593e+9 
           3870      1.87614e+9 
           3890      1.62058e+9 
           3910      1.93146e+9 
           3930      1.87515e+9 
           3950      1.79502e+9 
           3970      1.48895e+9 
           3990      1.77518e+9 
           4010      1.76019e+9 
           4030      1.67306e+9 
           4050       1.7024e+9 
           4070      1.59594e+9 
           4090      1.47819e+9 
           4110      1.34803e+9 
           4130      1.54567e+9 
           4150      1.53019e+9 
           4170      1.53981e+9 
           4190      1.51064e+9 
           4210      1.48627e+9 
           4230      1.46037e+9 
           4250      1.39961e+9 
           4270      1.37161e+9 
           4290      1.33517e+9 
           4310       1.2863e+9 
           4330      1.19381e+9 
           4350       1.1115e+9 
           4370      1.23457e+9 
           4390      1.22759e+9 
           4410      1.21243e+9 
           4430      1.21191e+9 
           4450      1.18449e+9 
           4470      1.13858e+9 
           4490      1.15399e+9 
           4510      1.13541e+9 
           4530       1.1277e+9 
           4550      1.10674e+9 
           4570      1.09536e+9 
           4590      1.07252e+9 
           4610      1.04029e+9 
           4630      1.01491e+9 
           4650      9.63929e+8 
           4670       9.9074e+8 
           4690      9.78625e+8 
           4710      9.47321e+8 
           4730      9.68307e+8 
           4750      9.49917e+8 
           4770      9.48376e+8 
           4790      9.31623e+8 
           4810      9.08292e+8 
           4830      8.85283e+8 
           4850      8.21958e+8 
           4870      7.40945e+8 
           4890       8.4403e+8 
           4910      8.37152e+8 
           4930      8.11789e+8 
           4950      8.09563e+8 
           4970       8.1122e+8 
           4990      7.97937e+8 
           5010       7.5952e+8 
           5030      7.63974e+8 
           5050      7.53799e+8 
           5070      7.51967e+8 
           5090      7.36806e+8 
           5110      7.24515e+8 
           5130      7.11533e+8 
           5150      7.02594e+8 
           5170      6.92912e+8 
           5190      6.85092e+8 
           5210      6.75443e+8 
           5230      6.66665e+8 
           5250      6.55062e+8 
           5270      6.43547e+8 
           5290      6.38556e+8 
           5310      6.28664e+8 
           5330      6.20374e+8 
           5350      6.11243e+8 
           5370      6.03015e+8 
           5390       5.9279e+8 
           5410      5.81105e+8 
           5430      5.78288e+8 
           5450      5.69283e+8 
           5470       5.6125e+8 
           5490      5.53793e+8 
           5510      5.46802e+8 
           5530      5.38493e+8 
           5550      5.32393e+8 
           5570      5.24921e+8 
           5590      5.16543e+8 
           5610      5.10927e+8 
           5630      5.04332e+8 
           5650      4.96437e+8 
           5670      4.87831e+8 
           5690      4.75565e+8 
           5710      4.69778e+8 
           5730      4.65357e+8 
           5750      4.57134e+8 
           5770      4.54084e+8 
           5790      4.47547e+8 
           5810      4.41202e+8 
           5830      4.34068e+8 
           5850      4.30323e+8 
           5870      4.13335e+8 
           5890      4.16256e+8 
           5910      4.12839e+8 
           5930      4.08163e+8 
           5950      4.03232e+8 
           5970      4.00661e+8 
           5990      3.94179e+8 
           6010      3.90861e+8 
           6030      3.85434e+8 
           6050      3.81438e+8 
           6070      3.77344e+8 
           6090      3.72858e+8 
           6110      3.67828e+8 
           6130      3.63627e+8 
           6150      3.56853e+8 
           6170       3.5301e+8 
           6190      3.50103e+8 
           6210      3.46298e+8 
           6230      3.42021e+8 
           6250      3.36604e+8 
           6270      3.33311e+8 
           6290      3.29433e+8 
           6310      3.24642e+8 
           6330      3.21738e+8 
           6350      3.16846e+8 
           6370      3.14265e+8 
           6390       3.1041e+8 
           6410      3.06624e+8 
           6430      3.03207e+8 
           6450      2.99382e+8 
           6470      2.93862e+8 
           6490      2.90471e+8 
           6510      2.86547e+8 
           6530      2.81949e+8 
           6550      2.70105e+8 
           6570      2.40605e+8 
           6590      2.70861e+8 
           6610      2.71079e+8 
           6630      2.69017e+8 
           6650      2.65672e+8 
           6670      2.59111e+8 
           6690      2.56267e+8 
           6710      2.56282e+8 
           6730      2.52681e+8 
           6750      2.51161e+8 
           6770      2.48668e+8 
           6790      2.44052e+8 
           6810      2.42807e+8 
           6830      2.39627e+8 
           6850      2.37515e+8 
           6870      2.34649e+8 
           6890      2.31257e+8 
           6910      2.27885e+8 
           6930      2.27395e+8 
           6950      2.24895e+8 
           6970      2.22443e+8 
           6990      2.19807e+8 
           7010      2.17098e+8 
           7030      2.14538e+8 
           7050      2.12292e+8 
           7070      2.06992e+8 
           7090      2.08037e+8 
           7110      2.04819e+8 
           7130      2.02782e+8 
           7150      2.01399e+8 
           7170      1.99222e+8 
           7190      1.97219e+8 
           7210      1.95256e+8 
           7230       1.9074e+8 
           7250      1.90456e+8 
           7270      1.89103e+8 
           7290      1.85642e+8 
           7310      1.85001e+8 
           7330      1.83096e+8 
           7350      1.81173e+8 
           7370      1.79366e+8 
           7390      1.77534e+8 
           7410      1.75664e+8 
           7430       1.7384e+8 
           7450      1.71903e+8 
           7470      1.68756e+8 
           7490      1.67715e+8 
           7510      1.66662e+8 
           7530      1.64702e+8 
           7550      1.63407e+8 
           7570      1.61717e+8 
           7590      1.59682e+8 
           7610      1.57751e+8 
           7630      1.56673e+8 
           7650      1.55005e+8 
           7670      1.53679e+8 
           7690      1.51638e+8 
           7710      1.50377e+8 
           7730       1.4827e+8 
           7750      1.47581e+8 
           7770      1.46067e+8 
           7790       1.4479e+8 
           7810      1.43345e+8 
           7830      1.41963e+8 
           7850      1.40494e+8 
           7870       1.3848e+8 
           7890      1.37034e+8 
           7910      1.36258e+8 
           7930      1.34906e+8 
           7950      1.33805e+8 
           7970      1.32346e+8 
           7990      1.31135e+8 
           8010      1.29912e+8 
           8030      1.28582e+8 
           8050       1.2749e+8 
           8070      1.26269e+8 
           8090      1.24978e+8 
           8110       1.2238e+8 
           8130      1.22668e+8 
           8150       1.2146e+8 
           8170      1.20397e+8 
           8190      1.17917e+8 
           8210      1.16947e+8 
           8230      1.15567e+8 
           8250      1.15207e+8 
           8270      1.12673e+8 
           8290      1.12881e+8 
           8310      1.12234e+8 
           8330      1.11028e+8 
           8350      1.09519e+8 
           8370       1.0877e+8 
           8390      1.08231e+8 
           8410      1.06998e+8 
           8430      1.06284e+8 
           8450      1.04768e+8 
           8470       1.0439e+8 
           8490      1.03235e+8 
           8510      1.02016e+8 
           8530      1.01347e+8 
           8550       1.0041e+8 
           8570       9.9762e+7 
