# Kurucz ODFNEW /NOVER (2003)
# teff = 28000 K (value for the effective temperature for the model. Temperatures are given in K)
# logg = 4 log(cm/s2) (value for Log(G) for the model.)
# meta = -1  (value for the Metallicity for the model.)
# lh = 1.25  (l/Hp where l is the  mixing length of the convective element and Hp is the pressure scale height)
# vtur = 2 km/s (Microturbulence velocity)
# alpha = 0  (Alpha)
#
# column 1: WAVELENGTH (ANGSTROM), Wavelength in Angstrom
# column 2: FLUX (ERG/CM2/S/A), Flux in erg/cm2/s/A
          147.2     5.55292e-11 
            151      2.0967e-10 
          155.2     8.45094e-10 
          158.8      2.63424e-9 
            162      6.94245e-9 
            166      2.21203e-8 
          170.3      7.23294e-8 
          173.4      1.63847e-7 
          176.8       3.8855e-7 
          180.2      8.91599e-7 
          181.7      1.27334e-6 
          186.1      3.50566e-6 
            191       1.0243e-5 
          193.9      1.88258e-5 
          198.4      4.67101e-5 
          201.8      9.02987e-5 
            205     0.000164551 
          210.5     0.000442312 
          216.2      0.00116753 
          219.8      0.00209918 
            223      0.00347934 
          226.8      0.00622526 
            230         1.83501 
            234         4.49171 
            240         8.92836 
          246.5         18.5475 
          252.4         35.0191 
          256.8         48.1938 
            260         76.6054 
            264         109.155 
          268.5         167.524 
          273.5         260.223 
          278.5         393.009 
            284         650.832 
            290         1027.47 
            296         1589.41 
            301         2182.22 
            308         3317.95 
            318         7240.73 
            328         12848.9 
            338         23217.3 
            348         39388.9 
            357         72606.3 
            366          115846 
            375          165806 
            385          255253 
            395          383599 
            405          546680 
            414          755740 
            422          958959 
            430      1.24302e+6 
            441      1.72716e+6 
            451      2.29519e+6 
            460      2.88422e+6 
            470      3.77071e+6 
            480       4.7966e+6 
            490       6.0771e+6 
            500      7.64731e+6 
            506      4.30971e+7 
            512       1.6064e+8 
            520      1.68678e+8 
            530      1.85307e+8 
            540      1.82215e+8 
            550      2.27843e+8 
            560       2.5541e+8 
            570      2.84594e+8 
            580      2.73823e+8 
            590      3.24208e+8 
            600      3.43096e+8 
            610      3.77884e+8 
            620      4.11335e+8 
            630      4.35996e+8 
            640      4.39208e+8 
            650      4.69035e+8 
            658      5.03006e+8 
            665      5.34718e+8 
            675      5.48791e+8 
            685      5.59315e+8 
            695      6.44244e+8 
            705      6.48435e+8 
            716      7.12607e+8 
            726      7.33123e+8 
            735      7.60676e+8 
            745      8.17093e+8 
            755      8.49521e+8 
            765       8.9022e+8 
            775       9.3294e+8 
            785      9.84335e+8 
            795       1.0123e+9 
            805      1.04469e+9 
            815      1.06606e+9 
            825      1.12594e+9 
            835      1.08136e+9 
            845      1.17352e+9 
            855      1.20487e+9 
            865      1.25456e+9 
            875      1.30818e+9 
            885      1.36267e+9 
            895      1.40416e+9 
            905      1.42017e+9 
            915      1.89372e+9 
            925     1.17881e+10 
            935     2.39623e+10 
            945     4.22701e+10 
            955     4.78458e+10 
            965     5.66333e+10 
            975     2.33815e+10 
            985     5.28386e+10 
            995     4.91448e+10 
           1005     5.15547e+10 
           1015     5.04927e+10 
           1025     3.01491e+10 
           1035     4.58768e+10 
           1045     5.38414e+10 
           1055     5.14446e+10 
           1065     4.58396e+10 
           1075     4.80551e+10 
           1085     4.41204e+10 
           1095     4.73117e+10 
           1105     4.50801e+10 
           1115      4.4366e+10 
           1125     3.97439e+10 
           1135     4.30619e+10 
           1145     4.01176e+10 
           1155     4.05584e+10 
           1165     3.98928e+10 
           1175     3.07332e+10 
           1185     3.72484e+10 
           1195     3.57966e+10 
           1205     3.21174e+10 
           1215      2.0399e+10 
           1225     3.28999e+10 
           1235     3.45601e+10 
           1245     3.35138e+10 
           1255     3.32258e+10 
           1265     3.29262e+10 
           1275     3.28104e+10 
           1285     3.22401e+10 
           1295     2.90956e+10 
           1305     2.95163e+10 
           1315     3.04416e+10 
           1325     2.92178e+10 
           1335     2.82046e+10 
           1345     2.81137e+10 
           1355     2.79506e+10 
           1365     2.68289e+10 
           1375     2.63484e+10 
           1385     2.58691e+10 
           1395     2.25919e+10 
           1405     2.29413e+10 
           1415     2.40049e+10 
           1425     2.29289e+10 
           1435     2.31611e+10 
           1442      2.3243e+10 
           1447     2.28685e+10 
           1455     2.23188e+10 
           1465     2.16711e+10 
           1475       2.138e+10 
           1485     2.10776e+10 
           1495     2.05505e+10 
           1505     1.97045e+10 
           1512     1.89539e+10 
           1517     1.90535e+10 
           1525     1.88071e+10 
           1535     1.71575e+10 
           1545     1.67783e+10 
           1555     1.61705e+10 
           1565     1.67229e+10 
           1575     1.70184e+10 
           1585     1.68583e+10 
           1595      1.6655e+10 
           1605     1.59026e+10 
           1615     1.54738e+10 
           1625     1.54865e+10 
           1635     1.55612e+10 
           1645     1.50732e+10 
           1655     1.52162e+10 
           1665     1.50041e+10 
           1672      1.4562e+10 
           1677     1.52161e+10 
           1685      1.4788e+10 
           1695     1.43583e+10 
           1705     1.39675e+10 
           1715     1.35067e+10 
           1725     1.32568e+10 
           1735     1.33472e+10 
           1745     1.30957e+10 
           1755      1.2975e+10 
           1765     1.26374e+10 
           1775      1.2328e+10 
           1785     1.22978e+10 
           1795     1.21974e+10 
           1805     1.21343e+10 
           1815     1.16236e+10 
           1825     1.15825e+10 
           1835     1.13951e+10 
           1845     1.06541e+10 
           1855     1.05872e+10 
           1865      1.0649e+10 
           1875     1.06489e+10 
           1885      9.92518e+9 
           1895      9.45688e+9 
           1905      9.81794e+9 
           1915       9.4493e+9 
           1925      9.10403e+9 
           1935      9.36807e+9 
           1945      9.44377e+9 
           1955      8.77098e+9 
           1967      9.04685e+9 
           1976      9.25813e+9 
           1984      8.78729e+9 
           1995       8.5412e+9 
           2005      8.62358e+9 
           2015      8.62384e+9 
           2025      8.64058e+9 
           2035      8.22847e+9 
           2045       8.1445e+9 
           2055      7.60439e+9 
           2065      7.51104e+9 
           2074      7.72582e+9 
           2078      7.44449e+9 
           2085      7.55266e+9 
           2095      7.43772e+9 
           2105      7.56473e+9 
           2115      7.51737e+9 
           2125       7.5061e+9 
           2135      7.36785e+9 
           2145      7.16625e+9 
           2155      7.17834e+9 
           2165      7.07513e+9 
           2175      6.97988e+9 
           2185      6.87179e+9 
           2195      6.83098e+9 
           2205      6.73228e+9 
           2215      6.62648e+9 
           2225       6.5274e+9 
           2235      6.41603e+9 
           2245      6.36729e+9 
           2255      6.24212e+9 
           2265      6.19344e+9 
           2275      6.11225e+9 
           2285      6.02986e+9 
           2295      5.76822e+9 
           2305      5.84314e+9 
           2315      5.76205e+9 
           2325       5.6875e+9 
           2335      5.59225e+9 
           2345      5.55219e+9 
           2355      5.47974e+9 
           2365      5.40871e+9 
           2375      5.32492e+9 
           2385      5.24109e+9 
           2395       5.1804e+9 
           2405      5.11833e+9 
           2415      5.04599e+9 
           2425      4.99152e+9 
           2435      4.90918e+9 
           2445      4.85574e+9 
           2455      4.80114e+9 
           2465       4.7387e+9 
           2475      4.67318e+9 
           2485      4.61057e+9 
           2495      4.26553e+9 
           2505      4.48117e+9 
           2513      4.35431e+9 
           2518      4.40032e+9 
           2525      4.38186e+9 
           2535       4.3289e+9 
           2545      4.23538e+9 
           2555      4.20241e+9 
           2565      4.16272e+9 
           2575      4.11437e+9 
           2585      4.06383e+9 
           2595      4.01439e+9 
           2605       3.9839e+9 
           2615      3.93305e+9 
           2625      3.88674e+9 
           2635      3.83597e+9 
           2645      3.78564e+9 
           2655      3.73847e+9 
           2665      3.67727e+9 
           2675      3.63456e+9 
           2685      3.61307e+9 
           2695      3.53174e+9 
           2705      3.51191e+9 
           2715      3.47494e+9 
           2725      3.41671e+9 
           2735       3.3883e+9 
           2745      3.35271e+9 
           2755      3.31764e+9 
           2765       3.2552e+9 
           2775      3.24504e+9 
           2785      3.20376e+9 
           2795      3.12817e+9 
           2805      3.11739e+9 
           2815      3.09647e+9 
           2825      3.03541e+9 
           2835      2.98975e+9 
           2845      2.99069e+9 
           2855      2.95175e+9 
           2865       2.9204e+9 
           2875      2.88781e+9 
           2885      2.85597e+9 
           2895       2.8222e+9 
           2910      2.77196e+9 
           2930      2.71305e+9 
           2950      2.63479e+9 
           2970      2.59366e+9 
           2990      2.53527e+9 
           3010      2.47391e+9 
           3030       2.4272e+9 
           3050      2.37673e+9 
           3070      2.32735e+9 
           3090      2.26446e+9 
           3110      2.22834e+9 
           3130      2.18065e+9 
           3150      2.13524e+9 
           3170      2.08986e+9 
           3190       2.0333e+9 
           3210      2.00406e+9 
           3230      1.96275e+9 
           3250      1.92397e+9 
           3270      1.88581e+9 
           3290      1.84566e+9 
           3310      1.81149e+9 
           3330      1.77437e+9 
           3350       1.7371e+9 
           3370      1.70503e+9 
           3390      1.67268e+9 
           3410      1.64022e+9 
           3430      1.60162e+9 
           3450      1.56544e+9 
           3470      1.53903e+9 
           3490      1.50919e+9 
           3510      1.48449e+9 
           3530      1.45937e+9 
           3550      1.43198e+9 
           3570      1.41175e+9 
           3590       1.3761e+9 
           3610      1.35361e+9 
           3630      1.32624e+9 
           3640        1.323e+9 
           3650      1.29597e+9 
           3670      1.27816e+9 
           3690      1.25081e+9 
           3710      1.20865e+9 
           3730      1.16331e+9 
           3750       1.2013e+9 
           3770      1.19172e+9 
           3790       1.2332e+9 
           3810      1.27102e+9 
           3830      1.13156e+9 
           3850      1.28359e+9 
           3870       1.2771e+9 
           3890      1.07262e+9 
           3910      1.25107e+9 
           3930      1.22454e+9 
           3950      1.20623e+9 
           3970      9.94236e+8 
           3990       1.1608e+9 
           4010      1.14696e+9 
           4030      1.09294e+9 
           4050      1.11665e+9 
           4070      1.08498e+9 
           4090      1.02163e+9 
           4110      9.14096e+8 
           4130      1.02466e+9 
           4150      1.01365e+9 
           4170      1.00382e+9 
           4190      9.87804e+8 
           4210      9.73021e+8 
           4230      9.56346e+8 
           4250      9.37751e+8 
           4270      9.17189e+8 
           4290      9.05832e+8 
           4310      8.86129e+8 
           4330      8.23408e+8 
           4350       7.5758e+8 
           4370      8.42374e+8 
           4390      8.18159e+8 
           4410      8.19065e+8 
           4430      8.06675e+8 
           4450      7.95427e+8 
           4470      7.57422e+8 
           4490      7.69731e+8 
           4510      7.58863e+8 
           4530      7.46835e+8 
           4550      7.33824e+8 
           4570      7.22094e+8 
           4590      7.10629e+8 
           4610      6.99584e+8 
           4630       6.8872e+8 
           4650      6.71309e+8 
           4670      6.66902e+8 
           4690      6.56345e+8 
           4710      6.38946e+8 
           4730      6.37764e+8 
           4750      6.27362e+8 
           4770      6.19844e+8 
           4790      6.10311e+8 
           4810       6.0054e+8 
           4830      5.88778e+8 
           4850       5.5512e+8 
           4870      5.02758e+8 
           4890      5.62492e+8 
           4910      5.56732e+8 
           4930       5.3849e+8 
           4950      5.40498e+8 
           4970       5.3367e+8 
           4990      5.25785e+8 
           5010      5.11374e+8 
           5030      5.10607e+8 
           5050      5.00632e+8 
           5070      4.96147e+8 
           5090      4.88955e+8 
           5110      4.81976e+8 
           5130      4.74804e+8 
           5150      4.68083e+8 
           5170      4.61763e+8 
           5190      4.55413e+8 
           5210      4.48981e+8 
           5230      4.42758e+8 
           5250       4.3663e+8 
           5270      4.30501e+8 
           5290      4.24627e+8 
           5310      4.18749e+8 
           5330      4.13066e+8 
           5350      4.07377e+8 
           5370      4.01918e+8 
           5390        3.964e+8 
           5410        3.909e+8 
           5430      3.85828e+8 
           5450      3.80592e+8 
           5470      3.75509e+8 
           5490      3.70504e+8 
           5510      3.65647e+8 
           5530       3.6074e+8 
           5550      3.56054e+8 
           5570      3.51328e+8 
           5590      3.46745e+8 
           5610      3.42206e+8 
           5630       3.3777e+8 
           5650      3.33283e+8 
           5670      3.28709e+8 
           5690      3.24052e+8 
           5710      3.20503e+8 
           5730      3.16434e+8 
           5750      3.12151e+8 
           5770      3.08497e+8 
           5790      3.04538e+8 
           5810      3.00715e+8 
           5830      2.96816e+8 
           5850       2.9316e+8 
           5870       2.8208e+8 
           5890      2.85283e+8 
           5910      2.82223e+8 
           5930       2.7864e+8 
           5950      2.75185e+8 
           5970      2.72012e+8 
           5990      2.68519e+8 
           6010      2.65326e+8 
           6030      2.62026e+8 
           6050      2.58876e+8 
           6070      2.55782e+8 
           6090      2.52683e+8 
           6110      2.49628e+8 
           6130      2.46639e+8 
           6150      2.43563e+8 
           6170        2.407e+8 
           6190      2.37879e+8 
           6210      2.35069e+8 
           6230      2.32281e+8 
           6250      2.29514e+8 
           6270      2.26816e+8 
           6290      2.24157e+8 
           6310      2.21518e+8 
           6330      2.18945e+8 
           6350      2.16354e+8 
           6370      2.13874e+8 
           6390      2.11393e+8 
           6410      2.08957e+8 
           6430      2.06566e+8 
           6450      2.04191e+8 
           6470      2.01752e+8 
           6490      1.99464e+8 
           6510      1.97254e+8 
           6530      1.94475e+8 
           6550       1.8788e+8 
           6570      1.68942e+8 
           6590      1.86916e+8 
           6610      1.86235e+8 
           6630       1.8429e+8 
           6650      1.82297e+8 
           6670      1.78767e+8 
           6690      1.76816e+8 
           6710      1.76324e+8 
           6730      1.74304e+8 
           6750      1.72471e+8 
           6770      1.70582e+8 
           6790      1.68549e+8 
           6810      1.66846e+8 
           6830       1.6503e+8 
           6850      1.63257e+8 
           6870      1.61485e+8 
           6890      1.59716e+8 
           6910       1.5798e+8 
           6930      1.56324e+8 
           6950      1.54654e+8 
           6970      1.53008e+8 
           6990       1.5137e+8 
           7010      1.49764e+8 
           7030      1.48173e+8 
           7050      1.46614e+8 
           7070      1.42959e+8 
           7090      1.43548e+8 
           7110      1.42026e+8 
           7130      1.40549e+8 
           7150      1.39093e+8 
           7170      1.37622e+8 
           7190      1.36216e+8 
           7210      1.34809e+8 
           7230      1.32861e+8 
           7250         1.32e+8 
           7270      1.30683e+8 
           7290      1.28372e+8 
           7310      1.28009e+8 
           7330      1.26722e+8 
           7350      1.25434e+8 
           7370      1.24164e+8 
           7390      1.22907e+8 
           7410      1.21668e+8 
           7430      1.20447e+8 
           7450      1.19252e+8 
           7470      1.17993e+8 
           7490      1.16873e+8 
           7510      1.15677e+8 
           7530      1.14565e+8 
           7550       1.1343e+8 
           7570      1.12306e+8 
           7590      1.11198e+8 
           7610      1.10087e+8 
           7630      1.09026e+8 
           7650      1.07961e+8 
           7670      1.06905e+8 
           7690      1.05866e+8 
           7710      1.04836e+8 
           7730      1.03815e+8 
           7750      1.02815e+8 
           7770      1.01794e+8 
           7790      1.00843e+8 
           7810      9.98212e+7 
           7830      9.89186e+7 
           7850      9.80545e+7 
           7870      9.71006e+7 
           7890      9.61127e+7 
           7910      9.52841e+7 
           7930      9.43667e+7 
           7950      9.34574e+7 
           7970      9.24611e+7 
           7990      9.15975e+7 
           8010      9.07062e+7 
           8030      8.98518e+7 
           8050       8.9057e+7 
           8070      8.82517e+7 
           8090      8.72921e+7 
           8110      8.65012e+7 
           8130      8.58596e+7 
           8150      8.49453e+7 
           8170      8.42985e+7 
           8190      8.33874e+7 
           8210      8.24059e+7 
           8230      8.18335e+7 
           8250      8.11549e+7 
           8270      8.00082e+7 
           8290      7.96117e+7 
           8310      7.89234e+7 
           8330      7.81811e+7 
           8350      7.71317e+7 
           8370      7.66559e+7 
           8390      7.60661e+7 
           8410      7.53745e+7 
           8430      7.46356e+7 
           8450       7.3523e+7 
           8470      7.32077e+7 
           8490      7.25182e+7 
           8510      7.17044e+7 
           8530      7.13064e+7 
           8550      6.97879e+7 
           8570      7.07654e+7 
           8590      6.81235e+7 
