# Kurucz ODFNEW /NOVER (2003)
# teff = 9750 K (value for the effective temperature for the model. Temperatures are given in K)
# logg = 2 log(cm/s2) (value for Log(G) for the model.)
# meta = -1  (value for the Metallicity for the model.)
# lh = 1.25  (l/Hp where l is the  mixing length of the convective element and Hp is the pressure scale height)
# vtur = 2 km/s (Microturbulence velocity)
# alpha = 0  (Alpha)
#
# column 1: WAVELENGTH (ANGSTROM), Wavelength in Angstrom
# column 2: FLUX (ERG/CM2/S/A), Flux in erg/cm2/s/A
          273.5     2.43925e-23 
          278.5     1.43348e-22 
            284     6.78763e-22 
            290     3.38913e-21 
            296     1.57819e-20 
            301     5.42884e-20 
            308       2.858e-19 
            318     2.69799e-18 
            328     2.22002e-17 
            338     1.60734e-16 
            348     1.03736e-15 
            357     5.07532e-15 
            366     2.29411e-14 
            375     9.61775e-14 
            385     4.36038e-13 
            395     1.82793e-12 
            405     7.12852e-12 
            414     2.28922e-11 
            422     6.18095e-11 
            430     1.60614e-10 
            441     5.63619e-10 
            451      1.66977e-9 
            460      4.25423e-9 
            470      1.15038e-8 
            480      2.97917e-8 
            490      7.41205e-8 
            500      1.77515e-7 
            506       4.4539e-7 
            512      8.31856e-7 
            520      1.54523e-6 
            530       3.2877e-6 
            540       6.6885e-6 
            550      1.34826e-5 
            560      2.62497e-5 
            570      4.98839e-5 
            580      9.16189e-5 
            590     0.000168019 
            600     0.000298862 
            610     0.000521367 
            620     0.000892302 
            630      0.00150018 
            640      0.00247799 
            650       0.0040306 
            658      0.00587921 
            665      0.00811447 
            675       0.0127011 
            685       0.0196102 
            695        0.029888 
            705        0.044968 
            716       0.0694904 
            726        0.101967 
            735        0.142616 
            745        0.204932 
            755        0.291424 
            765        0.410329 
            775        0.572372 
            785        0.791026 
            795         1.08341 
            805         1.47221 
            815         1.98408 
            825         2.65289 
            835         3.51693 
            845         4.63635 
            855         6.06251 
            865          7.8752 
            875         10.1614 
            885         13.0326 
            895         16.6113 
            905         21.0221 
            915         545.008 
            925         3575.96 
            935         5964.93 
            945         14627.5 
            955          336693 
            965          479718 
            975         41032.5 
            985      2.41866e+6 
            995      3.43976e+6 
           1005      3.23203e+6 
           1015          861315 
           1025         28280.9 
           1035          605806 
           1045      4.86805e+6 
           1055      7.87255e+6 
           1065      7.68223e+6 
           1075      9.60939e+6 
           1085      9.86414e+6 
           1095      1.04521e+7 
           1105      1.97404e+7 
           1115      3.69783e+7 
           1125      4.12382e+7 
           1135      4.47727e+7 
           1145      4.11291e+7 
           1155      4.09791e+7 
           1165      4.04646e+7 
           1175      3.17974e+7 
           1185      2.69919e+7 
           1195          235214 
           1205          132336 
           1215           35595 
           1225          139482 
           1235          472287 
           1245      1.95412e+7 
           1255      3.93347e+7 
           1265      3.48473e+7 
           1275      6.28676e+7 
           1285       7.9326e+7 
           1295       7.3186e+7 
           1305      5.21728e+7 
           1315      8.42226e+7 
           1325      9.27991e+7 
           1335      8.38001e+7 
           1345       1.0561e+8 
           1355      1.01441e+8 
           1365      8.93022e+7 
           1375      9.95293e+7 
           1385      1.04388e+8 
           1395      1.07322e+8 
           1405      1.09229e+8 
           1415       1.0055e+8 
           1425      1.04684e+8 
           1435      9.84732e+7 
           1442      1.07807e+8 
           1447      1.14708e+8 
           1455      1.14916e+8 
           1465       1.0809e+8 
           1475      1.03823e+8 
           1485      1.08538e+8 
           1495      1.12724e+8 
           1505      1.14069e+8 
           1512      1.09685e+8 
           1517      1.15018e+8 
           1525      1.08845e+8 
           1535      1.04449e+8 
           1545      1.14498e+8 
           1555      1.05393e+8 
           1565      9.99403e+7 
           1575      1.01896e+8 
           1585      1.10284e+8 
           1595      1.15021e+8 
           1605      1.08366e+8 
           1615      1.08829e+8 
           1625      1.01275e+8 
           1635      1.04317e+8 
           1645      1.06476e+8 
           1655      9.51498e+7 
           1665      1.06336e+8 
           1672      8.45342e+7 
           1677      1.00861e+8 
           1685       1.0855e+8 
           1695      1.03564e+8 
           1705      9.96089e+7 
           1715      9.84545e+7 
           1725      9.76543e+7 
           1735      1.01729e+8 
           1745      9.99494e+7 
           1755      1.06807e+8 
           1765      9.66413e+7 
           1775      1.04199e+8 
           1785      1.02876e+8 
           1795      1.08961e+8 
           1805      1.05335e+8 
           1815       1.0448e+8 
           1825      1.01301e+8 
           1835      9.88919e+7 
           1845      9.49176e+7 
           1855      9.54571e+7 
           1865      9.52767e+7 
           1875      1.00932e+8 
           1885      9.98731e+7 
           1895      9.71842e+7 
           1905      9.61759e+7 
           1915      9.64387e+7 
           1925      9.68728e+7 
           1935      9.69326e+7 
           1945      1.00002e+8 
           1955      9.79559e+7 
           1967      1.00368e+8 
           1976      9.95812e+7 
           1984      9.78323e+7 
           1995       9.4655e+7 
           2005      9.51939e+7 
           2015      9.05195e+7 
           2025      9.28083e+7 
           2035      9.24533e+7 
           2045      9.42989e+7 
           2055      9.03949e+7 
           2065      8.96717e+7 
           2074      9.25823e+7 
           2078      9.36483e+7 
           2085      9.40692e+7 
           2095      9.10961e+7 
           2105      9.05642e+7 
           2115      8.99877e+7 
           2125      9.03024e+7 
           2135      8.10259e+7 
           2145      8.74718e+7 
           2155      8.84871e+7 
           2165      8.50675e+7 
           2175      8.37137e+7 
           2185      8.30754e+7 
           2195      8.76138e+7 
           2205      8.45893e+7 
           2215      7.93353e+7 
           2225      7.71094e+7 
           2235      8.39175e+7 
           2245      7.71843e+7 
           2255      7.63531e+7 
           2265      7.68626e+7 
           2275      8.08688e+7 
           2285      8.23271e+7 
           2295      7.83067e+7 
           2305      7.69126e+7 
           2315      7.50686e+7 
           2325      7.55044e+7 
           2335      7.24062e+7 
           2345      6.77117e+7 
           2355      7.39123e+7 
           2365      6.80618e+7 
           2375      7.12901e+7 
           2385      6.39911e+7 
           2395      6.91456e+7 
           2405      6.62595e+7 
           2415      6.76498e+7 
           2425       7.0546e+7 
           2435      6.78265e+7 
           2445       7.1659e+7 
           2455      6.92762e+7 
           2465       6.8957e+7 
           2475       6.6599e+7 
           2485      7.04504e+7 
           2495      6.84041e+7 
           2505      7.26139e+7 
           2513       6.8066e+7 
           2518      6.96736e+7 
           2525      6.53406e+7 
           2535      6.48086e+7 
           2545       6.4626e+7 
           2555      6.74221e+7 
           2565      6.67199e+7 
           2575      7.03162e+7 
           2585      6.98521e+7 
           2595      6.92533e+7 
           2605      6.66685e+7 
           2615      6.63304e+7 
           2625      6.81332e+7 
           2635      6.85557e+7 
           2645       7.3364e+7 
           2655      7.23046e+7 
           2665      6.86706e+7 
           2675      7.04904e+7 
           2685      7.04366e+7 
           2695      6.80943e+7 
           2705      6.90128e+7 
           2715      6.67114e+7 
           2725      6.70497e+7 
           2735      7.03526e+7 
           2745      6.30513e+7 
           2755      6.31454e+7 
           2765      6.49858e+7 
           2775      6.79183e+7 
           2785       6.7616e+7 
           2795      5.91375e+7 
           2805      6.30833e+7 
           2815      6.85215e+7 
           2825      6.81695e+7 
           2835      6.61098e+7 
           2845      6.43612e+7 
           2855      6.35553e+7 
           2865      6.53889e+7 
           2875      6.40916e+7 
           2885      6.55174e+7 
           2895      6.40946e+7 
           2910      6.75329e+7 
           2930      6.54029e+7 
           2950      6.51555e+7 
           2970      6.52632e+7 
           2990      6.51347e+7 
           3010      6.58604e+7 
           3030      6.54247e+7 
           3050        6.461e+7 
           3070      6.37829e+7 
           3090      6.40686e+7 
           3110      6.29862e+7 
           3130        6.233e+7 
           3150       6.2494e+7 
           3170      6.19141e+7 
           3190       6.0422e+7 
           3210      6.09839e+7 
           3230      6.01733e+7 
           3250      6.01162e+7 
           3270      6.00595e+7 
           3290      5.99198e+7 
           3310      5.97652e+7 
           3330         5.89e+7 
           3350      5.80477e+7 
           3370      5.79479e+7 
           3390      5.73449e+7 
           3410      5.76331e+7 
           3430      5.72288e+7 
           3450      5.69881e+7 
           3470      5.63581e+7 
           3490      5.60172e+7 
           3510      5.59647e+7 
           3530      5.57828e+7 
           3550       5.5443e+7 
           3570      5.49595e+7 
           3590      5.45885e+7 
           3610      5.42426e+7 
           3630      5.38324e+7 
           3640      5.36763e+7 
           3650      5.46325e+7 
           3670      5.35296e+7 
           3690      5.49043e+7 
           3710      6.96304e+7 
           3730      9.09703e+7 
           3750      1.21612e+8 
           3770      1.21207e+8 
           3790      1.30889e+8 
           3810      1.41457e+8 
           3830      1.20478e+8 
           3850      1.43896e+8 
           3870       1.4579e+8 
           3890      1.14208e+8 
           3910      1.42386e+8 
           3930      1.39994e+8 
           3950      1.39735e+8 
           3970      1.07608e+8 
           3990       1.3592e+8 
           4010      1.34989e+8 
           4030      1.32736e+8 
           4050      1.31893e+8 
           4070      1.29763e+8 
           4090      1.23265e+8 
           4110      1.02824e+8 
           4130      1.24122e+8 
           4150      1.23791e+8 
           4170      1.21963e+8 
           4190      1.20739e+8 
           4210      1.19369e+8 
           4230      1.17683e+8 
           4250      1.16165e+8 
           4270      1.14751e+8 
           4290      1.13409e+8 
           4310      1.11357e+8 
           4330      1.03202e+8 
           4350      9.05644e+7 
           4370      1.07819e+8 
           4390      1.06094e+8 
           4410      1.05328e+8 
           4430      1.04191e+8 
           4450      1.02958e+8 
           4470      1.01322e+8 
           4490      9.94778e+7 
           4510      9.88641e+7 
           4530      9.76737e+7 
           4550      9.58833e+7 
           4570      9.56629e+7 
           4590      9.40317e+7 
           4610       9.3698e+7 
           4630      9.19465e+7 
           4650       9.1497e+7 
           4670      9.03419e+7 
           4690      8.93452e+7 
           4710      8.79631e+7 
           4730      8.72612e+7 
           4750      8.62508e+7 
           4770      8.53154e+7 
           4790       8.4327e+7 
           4810      8.32966e+7 
           4830      8.20705e+7 
           4850       7.6712e+7 
           4870      6.51516e+7 
           4890      7.91897e+7 
           4910      7.86459e+7 
           4930      7.74062e+7 
           4950      7.68911e+7 
           4970      7.60539e+7 
           4990      7.51519e+7 
           5010      7.38027e+7 
           5030      7.33986e+7 
           5050      7.22526e+7 
           5070      7.18229e+7 
           5090      7.10313e+7 
           5110      7.01965e+7 
           5130      6.94712e+7 
           5150      6.86415e+7 
           5170      6.75533e+7 
           5190      6.70169e+7 
           5210      6.64007e+7 
           5230      6.54737e+7 
           5250       6.4984e+7 
           5270       6.4017e+7 
           5290      6.36052e+7 
           5310      6.26673e+7 
           5330      6.22151e+7 
           5350      6.16048e+7 
           5370      6.09233e+7 
           5390      6.02814e+7 
           5410      5.96087e+7 
           5430      5.89634e+7 
           5450      5.83856e+7 
           5470      5.77492e+7 
           5490      5.71542e+7 
           5510      5.65291e+7 
           5530      5.59472e+7 
           5550      5.53882e+7 
           5570      5.48066e+7 
           5590      5.42355e+7 
           5610      5.36843e+7 
           5630      5.31252e+7 
           5650      5.25433e+7 
           5670      5.20162e+7 
           5690      5.14964e+7 
           5710      5.09699e+7 
           5730      5.04461e+7 
           5750      4.99294e+7 
           5770      4.94209e+7 
           5790      4.89037e+7 
           5810      4.84135e+7 
           5830      4.79223e+7 
           5850      4.74444e+7 
           5870      4.68068e+7 
           5890      4.64601e+7 
           5910      4.60243e+7 
           5930      4.55687e+7 
           5950      4.50713e+7 
           5970      4.46536e+7 
           5990      4.41721e+7 
           6010      4.37806e+7 
           6030      4.33487e+7 
           6050      4.29185e+7 
           6070      4.24971e+7 
           6090      4.20792e+7 
           6110       4.1669e+7 
           6130      4.12632e+7 
           6150      4.07791e+7 
           6170      4.04627e+7 
           6190      4.00729e+7 
           6210      3.96872e+7 
           6230      3.92969e+7 
           6250      3.88442e+7 
           6270      3.85537e+7 
           6290      3.81813e+7 
           6310      3.77996e+7 
           6330      3.74549e+7 
           6350      3.69335e+7 
           6370       3.6636e+7 
           6390       3.6395e+7 
           6410      3.60426e+7 
           6430      3.57131e+7 
           6450      3.53326e+7 
           6470      3.50506e+7 
           6490      3.47016e+7 
           6510      3.43491e+7 
           6530      3.39023e+7 
           6550      3.21975e+7 
           6570      2.68097e+7 
           6590      3.27907e+7 
           6610      3.27521e+7 
           6630      3.25248e+7 
           6650       3.2234e+7 
           6670      3.19182e+7 
           6690      3.16309e+7 
           6710      3.13589e+7 
           6730      3.10697e+7 
           6750      3.07924e+7 
           6770      3.05137e+7 
           6790       3.0237e+7 
           6810      2.99638e+7 
           6830      2.96925e+7 
           6850      2.94254e+7 
           6870      2.91633e+7 
           6890      2.89038e+7 
           6910      2.86452e+7 
           6930      2.83875e+7 
           6950      2.81394e+7 
           6970      2.78905e+7 
           6990      2.76463e+7 
           7010       2.7396e+7 
           7030      2.71618e+7 
           7050      2.69124e+7 
           7070      2.66699e+7 
           7090      2.64552e+7 
           7110      2.62172e+7 
           7130       2.5994e+7 
           7150      2.57692e+7 
           7170      2.55472e+7 
           7190      2.53259e+7 
           7210      2.51087e+7 
           7230      2.48864e+7 
           7250      2.46776e+7 
           7270      2.44672e+7 
           7290      2.42537e+7 
           7310      2.40457e+7 
           7330      2.38453e+7 
           7350      2.36453e+7 
           7370      2.34457e+7 
           7390      2.32472e+7 
           7410      2.30498e+7 
           7430      2.28495e+7 
           7450      2.26591e+7 
           7470      2.24623e+7 
           7490      2.22821e+7 
           7510      2.20927e+7 
           7530      2.19164e+7 
           7550       2.1735e+7 
           7570      2.15552e+7 
           7590      2.13757e+7 
           7610      2.12004e+7 
           7630      2.10254e+7 
           7650      2.08499e+7 
           7670      2.06805e+7 
           7690      2.05119e+7 
           7710      2.03397e+7 
           7730      2.01785e+7 
           7750      2.00149e+7 
           7770      1.96611e+7 
           7790      1.96913e+7 
           7810      1.95331e+7 
           7830      1.93745e+7 
           7850      1.92129e+7 
           7870      1.90387e+7 
           7890      1.88637e+7 
           7910        1.876e+7 
           7930      1.86109e+7 
           7950      1.84536e+7 
           7970      1.83161e+7 
           7990       1.8136e+7 
           8010      1.80273e+7 
           8030      1.78845e+7 
           8050      1.77434e+7 
           8070      1.76035e+7 
           8090      1.74653e+7 
           8110      1.73277e+7 
           8130      1.71936e+7 
           8150      1.70588e+7 
           8170      1.69263e+7 
           8190      1.67881e+7 
           8210      1.67344e+7 
           8230      1.66081e+7 
           8250      1.65083e+7 
           8270      1.63971e+7 
           8290      1.62567e+7 
           8310      1.61098e+7 
           8330      1.59234e+7 
           8350      1.58024e+7 
           8370      1.54882e+7 
           8390      1.54364e+7 
           8410      1.52805e+7 
           8430       1.5541e+7 
           8450      1.53952e+7 
           8470      1.47571e+7 
           8490      1.60089e+7 
           8510      1.45625e+7 
           8530      1.61651e+7 
           8550      1.41915e+7 
           8570      1.63274e+7 
           8590      1.53478e+7 
           8610      1.48995e+7 
           8630      1.65473e+7 
           8650      1.62841e+7 
           8670       1.3644e+7 
           8690      1.63077e+7 
           8710      1.63327e+7 
           8730        1.608e+7 
           8750      1.33012e+7 
           8770      1.56182e+7 
           8790      1.58529e+7 
           8810      1.57684e+7 
           8830      1.55927e+7 
           8850      1.49812e+7 
           8870      1.28542e+7 
           8890      1.51756e+7 
           8910       1.5164e+7 
           8930      1.50531e+7 
           8950      1.49629e+7 
           8970      1.48391e+7 
           8990      1.46375e+7 
           9010       1.2534e+7 
           9030      1.36626e+7 
           9050      1.43516e+7 
           9070      1.42632e+7 
           9090      1.41435e+7 
           9110      1.40797e+7 
           9130      1.39756e+7 
           9150      1.38844e+7 
           9170      1.37746e+7 
           9190      1.36389e+7 
           9210      1.33772e+7 
