# Kurucz ODFNEW /NOVER (2003)
# teff = 6500 K (value for the effective temperature for the model. Temperatures are given in K)
# logg = 4.5 log(cm/s2) (value for Log(G) for the model.)
# meta = -4  (value for the Metallicity for the model.)
# lh = 1.25  (l/Hp where l is the  mixing length of the convective element and Hp is the pressure scale height)
# vtur = 2 km/s (Microturbulence velocity)
# alpha = 0.4  (Alpha)
#
# column 1: WAVELENGTH (ANGSTROM), Wavelength in Angstrom
# column 2: FLUX (ERG/CM2/S/A), Flux in erg/cm2/s/A
          147.2     1.73866e-35 
            151     1.65225e-35 
          155.2     1.56403e-35 
          158.8     1.49392e-35 
            162     1.43549e-35 
            166     1.36714e-35 
          170.3     1.29897e-35 
          173.4     1.25294e-35 
          176.8     1.20522e-35 
          180.2     1.16017e-35 
          181.7     1.14109e-35 
          186.1     1.08777e-35 
            191     1.03267e-35 
          193.9     1.00201e-35 
          198.4     9.57076e-36 
          201.8     9.25097e-36 
            205     8.96441e-36 
          210.5     8.50208e-36 
          216.2     8.05969e-36 
          219.8     7.79784e-36 
            223     7.57565e-36 
          226.8     7.32392e-36 
            230     7.12154e-36 
            234     6.88015e-36 
            240     6.54044e-36 
          246.5     6.20006e-36 
          252.4     5.91358e-36 
          256.8     5.71267e-36 
            260     5.57292e-36 
            264     5.40532e-36 
          268.5     5.22566e-36 
          273.5     5.03634e-36 
          278.5     4.85712e-36 
            284     8.80776e-30 
            290     5.83639e-29 
            296     3.56426e-28 
            301     1.52224e-27 
            308      1.0691e-26 
            318     1.48044e-25 
            328      1.7329e-24 
            338     1.73895e-23 
            348      1.5185e-22 
            357     9.55857e-22 
            366     5.47731e-21 
            375     2.86917e-20 
            385     1.64119e-19 
            395     8.54145e-19 
            405     4.07702e-18 
            414     1.55436e-17 
            422     4.85032e-17 
            430     1.44665e-16 
            441     6.06545e-16 
            451     2.09071e-15 
            460      6.0615e-15 
            470     1.87955e-14 
            480     5.53632e-14 
            490     1.55583e-13 
            500     4.17703e-13 
            506     9.80374e-13 
            512     1.92975e-12 
            520     3.96054e-12 
            530     9.48154e-12 
            540     2.15495e-11 
            550     4.80084e-11 
            560     1.03023e-10 
            570      2.1464e-10 
            580     4.29902e-10 
            590     8.57971e-10 
            600      1.65081e-9 
            610      3.10121e-9 
            620      5.69573e-9 
            630      1.02379e-8 
            640      1.80381e-8 
            650      3.11691e-8 
            658      4.76354e-8 
            665      6.83919e-8 
            675      1.12988e-7 
            685      1.83602e-7 
            695       2.9367e-7 
            705      4.62672e-7 
            716      7.50217e-7 
            726      1.14747e-6 
            735      1.66361e-6 
            745      2.48393e-6 
            755      3.66376e-6 
            765      5.34145e-6 
            775      7.70049e-6 
            785      1.09829e-5 
            795      1.55037e-5 
            805      2.16687e-5 
            815      2.99977e-5 
            825      4.11542e-5 
            835      5.59725e-5 
            845      7.54857e-5 
            855     0.000100966 
            865     0.000133986 
            875     0.000176456 
            885     0.000230715 
            895     0.000299535 
            905     0.000386221 
            915         0.10492 
            925        0.365178 
            935        0.506256 
            945        0.692606 
            955         0.93271 
            965         1.17276 
            975        0.925234 
            985          2.0056 
            995         2.52593 
           1005         3.06549 
           1015         2.43947 
           1025         4.39579 
           1035         5.84001 
           1045         7.52683 
           1055         9.21832 
           1065          11.492 
           1075         13.9409 
           1085         17.0344 
           1095         20.3659 
           1105         24.2987 
           1115         28.8587 
           1125          34.258 
           1135         40.2632 
           1145         46.7498 
           1155         53.5996 
           1165         45.7385 
           1175         22.3133 
           1185         92.3215 
           1195         101.649 
           1205         110.575 
           1215         99.8666 
           1225         146.306 
           1235          182.91 
           1245         29.2021 
           1255         49.5385 
           1265         96.2502 
           1275         193.154 
           1285         342.068 
           1295         403.434 
           1305         464.412 
           1315         541.906 
           1325         625.384 
           1335         718.317 
           1345         822.462 
           1355         937.194 
           1365          1066.2 
           1375         1206.51 
           1385         1360.72 
           1395         1530.28 
           1405         1712.72 
           1415         1926.52 
           1425         2139.46 
           1435         2385.81 
           1442         2578.49 
           1447          2695.1 
           1455         2943.86 
           1465         3227.67 
           1475          3577.3 
           1485         3937.57 
           1495         4345.23 
           1505         4779.67 
           1512         5106.95 
           1517          5283.7 
           1525         5703.04 
           1535            6218 
           1545         6727.08 
           1555         7323.71 
           1565         7870.75 
           1575         8549.76 
           1585         9234.74 
           1595          9977.9 
           1605         10769.9 
           1615         11784.5 
           1625         12963.1 
           1635         14311.1 
           1645         16220.4 
           1655         18082.6 
           1665         22036.6 
           1672         25550.3 
           1677         31045.7 
           1685         51815.8 
           1695          139466 
           1705          362277 
           1715          757538 
           1725        1.282e+6 
           1735      1.79928e+6 
           1745      2.17586e+6 
           1755      2.57409e+6 
           1765      2.78433e+6 
           1775      3.05569e+6 
           1785      3.27493e+6 
           1795       3.5105e+6 
           1805       3.5678e+6 
           1815      3.71752e+6 
           1825      3.79939e+6 
           1835      3.98096e+6 
           1845      3.90173e+6 
           1855      4.14224e+6 
           1865      4.34391e+6 
           1875      4.42736e+6 
           1885      4.54273e+6 
           1895      4.66833e+6 
           1905      4.69896e+6 
           1915      4.91043e+6 
           1925      5.03736e+6 
           1935      5.03201e+6 
           1945      5.23444e+6 
           1955      5.33637e+6 
           1967      5.48392e+6 
           1976      5.46399e+6 
           1984      5.51649e+6 
           1995      5.73288e+6 
           2005      5.77648e+6 
           2015       5.9172e+6 
           2025      5.87627e+6 
           2035       6.1507e+6 
           2045      6.26374e+6 
           2055      6.27555e+6 
           2065      6.36422e+6 
           2074      6.57675e+6 
           2078      6.60738e+6 
           2085      6.61708e+6 
           2095      6.71852e+6 
           2105      6.77939e+6 
           2115      6.93904e+6 
           2125      6.93403e+6 
           2135      7.08387e+6 
           2145      7.22079e+6 
           2155      7.29021e+6 
           2165      7.25629e+6 
           2175      7.39726e+6 
           2185      7.56169e+6 
           2195      7.66959e+6 
           2205      7.65752e+6 
           2215      7.51958e+6 
           2225      7.86847e+6 
           2235      8.07726e+6 
           2245      8.12057e+6 
           2255       8.0576e+6 
           2265      8.02479e+6 
           2275      8.22518e+6 
           2285      8.36547e+6 
           2295      8.36569e+6 
           2305      8.54427e+6 
           2315      8.57535e+6 
           2325      8.61882e+6 
           2335      8.68197e+6 
           2345      8.48203e+6 
           2355      8.89447e+6 
           2365      8.66045e+6 
           2375      8.95101e+6 
           2385      8.64099e+6 
           2395      9.02741e+6 
           2405       9.1251e+6 
           2415      9.20536e+6 
           2425      9.54152e+6 
           2435      9.47983e+6 
           2445      9.60158e+6 
           2455      9.69291e+6 
           2465      9.67271e+6 
           2475      9.70171e+6 
           2485      9.60122e+6 
           2495      9.65815e+6 
           2505       9.9252e+6 
           2513      9.66943e+6 
           2518      9.58234e+6 
           2525       9.6256e+6 
           2535       9.8869e+6 
           2545      1.00589e+7 
           2555      1.03127e+7 
           2565      1.02651e+7 
           2575      1.03719e+7 
           2585      1.04338e+7 
           2595      1.04554e+7 
           2605      1.03797e+7 
           2615      1.04283e+7 
           2625      1.05185e+7 
           2635      1.06406e+7 
           2645      1.09814e+7 
           2655      1.10314e+7 
           2665       1.0996e+7 
           2675      1.10513e+7 
           2685      1.11845e+7 
           2695      1.11893e+7 
           2705      1.12565e+7 
           2715      1.10925e+7 
           2725      1.11239e+7 
           2735      1.11792e+7 
           2745      1.08744e+7 
           2755      1.10323e+7 
           2765      1.13351e+7 
           2775      1.14932e+7 
           2785      1.14317e+7 
           2795      1.04772e+7 
           2805      1.09777e+7 
           2815      1.17622e+7 
           2825      1.17934e+7 
           2835      1.17515e+7 
           2845      1.18129e+7 
           2855      1.13795e+7 
           2865        1.185e+7 
           2875      1.19364e+7 
           2885      1.18411e+7 
           2895      1.20543e+7 
           2910      1.21132e+7 
           2930      1.20923e+7 
           2950      1.20947e+7 
           2970      1.21822e+7 
           2990      1.22179e+7 
           3010      1.23001e+7 
           3030      1.23242e+7 
           3050      1.24279e+7 
           3070       1.2476e+7 
           3090      1.25336e+7 
           3110      1.26031e+7 
           3130      1.26663e+7 
           3150      1.26943e+7 
           3170      1.27352e+7 
           3190      1.27145e+7 
           3210      1.27781e+7 
           3230      1.27005e+7 
           3250       1.2815e+7 
           3270      1.28969e+7 
           3290      1.29275e+7 
           3310      1.29461e+7 
           3330      1.29283e+7 
           3350       1.2903e+7 
           3370      1.29191e+7 
           3390      1.29323e+7 
           3410      1.29988e+7 
           3430      1.30103e+7 
           3450      1.29663e+7 
           3470      1.29953e+7 
           3490      1.30206e+7 
           3510      1.30356e+7 
           3530      1.30398e+7 
           3550      1.30517e+7 
           3570      1.29925e+7 
           3590      1.30001e+7 
           3610      1.30071e+7 
           3630      1.30234e+7 
           3640      1.30358e+7 
           3650      1.30453e+7 
           3670      1.30621e+7 
           3690       1.2795e+7 
           3710       1.2846e+7 
           3730      1.24444e+7 
           3750      1.36659e+7 
           3770      1.38288e+7 
           3790      1.46893e+7 
           3810      1.58246e+7 
           3830      1.40664e+7 
           3850      1.64033e+7 
           3870      1.68431e+7 
           3890      1.37727e+7 
           3910      1.68315e+7 
           3930      1.66821e+7 
           3950      1.68175e+7 
           3970      1.35696e+7 
           3990      1.66562e+7 
           4010      1.69035e+7 
           4030      1.68835e+7 
           4050      1.68301e+7 
           4070      1.66924e+7 
           4090      1.58485e+7 
           4110      1.39397e+7 
           4130      1.65257e+7 
           4150      1.65776e+7 
           4170      1.65641e+7 
           4190      1.65148e+7 
           4210      1.64592e+7 
           4230      1.63892e+7 
           4250      1.63485e+7 
           4270      1.62772e+7 
           4290      1.61949e+7 
           4310      1.60561e+7 
           4330      1.49772e+7 
           4350      1.36815e+7 
           4370      1.58698e+7 
           4390      1.58983e+7 
           4410      1.58784e+7 
           4430      1.58292e+7 
           4450      1.57676e+7 
           4470      1.57079e+7 
           4490      1.56497e+7 
           4510      1.55884e+7 
           4530       1.5524e+7 
           4550      1.54635e+7 
           4570      1.54028e+7 
           4590      1.53407e+7 
           4610      1.52792e+7 
           4630      1.52163e+7 
           4650      1.51533e+7 
           4670      1.50905e+7 
           4690      1.50271e+7 
           4710      1.49628e+7 
           4730      1.49002e+7 
           4750      1.48366e+7 
           4770       1.4773e+7 
           4790      1.47067e+7 
           4810      1.46047e+7 
           4830      1.44719e+7 
           4850      1.36601e+7 
           4870      1.21846e+7 
           4890      1.42325e+7 
           4910      1.42787e+7 
           4930      1.42505e+7 
           4950      1.41959e+7 
           4970      1.41342e+7 
           4990      1.40692e+7 
           5010      1.40042e+7 
           5030      1.39424e+7 
           5050      1.38775e+7 
           5070      1.38145e+7 
           5090      1.37507e+7 
           5110      1.36868e+7 
           5130       1.3623e+7 
           5150      1.35584e+7 
           5170      1.34716e+7 
           5190      1.34175e+7 
           5210      1.33666e+7 
           5230      1.33031e+7 
           5250      1.32427e+7 
           5270      1.31759e+7 
           5290      1.31164e+7 
           5310      1.30536e+7 
           5330      1.29885e+7 
           5350      1.29282e+7 
           5370      1.28649e+7 
           5390      1.28027e+7 
           5410      1.27399e+7 
           5430      1.26779e+7 
           5450      1.26158e+7 
           5470      1.25552e+7 
           5490      1.24942e+7 
           5510      1.24323e+7 
           5530      1.23721e+7 
           5550      1.23112e+7 
           5570      1.22497e+7 
           5590      1.21887e+7 
           5610      1.21283e+7 
           5630      1.20696e+7 
           5650      1.20091e+7 
           5670      1.19491e+7 
           5690      1.18897e+7 
           5710      1.18297e+7 
           5730      1.17713e+7 
           5750      1.17124e+7 
           5770      1.16528e+7 
           5790      1.15949e+7 
           5810      1.15364e+7 
           5830      1.14774e+7 
           5850      1.14199e+7 
           5870      1.13619e+7 
           5890      1.13001e+7 
           5910      1.12475e+7 
           5930        1.119e+7 
           5950       1.1133e+7 
           5970      1.10765e+7 
           5990      1.10205e+7 
           6010      1.09639e+7 
           6030      1.09079e+7 
           6050      1.08524e+7 
           6070      1.07973e+7 
           6090      1.07418e+7 
           6110      1.06867e+7 
           6130      1.06311e+7 
           6150       1.0577e+7 
           6170      1.05224e+7 
           6190      1.04693e+7 
           6210      1.04156e+7 
           6230      1.03615e+7 
           6250      1.03088e+7 
           6270      1.02556e+7 
           6290      1.02028e+7 
           6310      1.01506e+7 
           6330      1.00978e+7 
           6350      1.00455e+7 
           6370      9.99366e+6 
           6390      9.94227e+6 
           6410      9.89041e+6 
           6430      9.83991e+6 
           6450      9.78804e+6 
           6470      9.73752e+6 
           6490      9.67938e+6 
           6510      9.60578e+6 
           6530      9.50374e+6 
           6550      9.06381e+6 
           6570       7.8639e+6 
           6590      9.28375e+6 
           6610      9.34492e+6 
           6630      9.32462e+6 
           6650      9.29333e+6 
           6670       9.2453e+6 
           6690      9.19684e+6 
           6710      9.14962e+6 
           6730      9.10198e+6 
           6750      9.05474e+6 
           6770      9.00789e+6 
           6790      8.96144e+6 
           6810      8.91457e+6 
           6830      8.86809e+6 
           6850        8.822e+6 
           6870       8.7763e+6 
           6890      8.73097e+6 
           6910      8.68603e+6 
           6930      8.64067e+6 
           6950      8.59569e+6 
           6970      8.55109e+6 
           6990      8.50685e+6 
           7010      8.46298e+6 
           7030       8.4187e+6 
           7050      8.37555e+6 
           7070        8.332e+6 
           7090      8.28881e+6 
           7110      8.24597e+6 
           7130      8.20274e+6 
           7150       8.1606e+6 
           7170      8.11807e+6 
           7190      8.07661e+6 
           7210      8.03476e+6 
           7230      7.99325e+6 
           7250      7.95136e+6 
           7270      7.91053e+6 
           7290      7.86931e+6 
           7310      7.82842e+6 
           7330      7.78786e+6 
           7350      7.74763e+6 
           7370      7.70772e+6 
           7390      7.66813e+6 
           7410      7.62816e+6 
           7430       7.5892e+6 
           7450      7.54986e+6 
           7470      7.51084e+6 
           7490      7.47212e+6 
           7510      7.43371e+6 
           7530      7.39561e+6 
           7550      7.35714e+6 
           7570      7.31963e+6 
           7590      7.28176e+6 
           7610      7.24418e+6 
           7630       7.2069e+6 
           7650      7.16991e+6 
           7670      7.13321e+6 
           7690      7.09679e+6 
           7710      7.06002e+6 
           7730      7.02417e+6 
           7750      6.98796e+6 
           7770      6.95203e+6 
           7790      6.91638e+6 
           7810        6.881e+6 
           7830      6.84589e+6 
           7850      6.81106e+6 
           7870      6.77648e+6 
           7890      6.74156e+6 
           7910      6.70752e+6 
           7930      6.67313e+6 
           7950        6.639e+6 
           7970      6.60572e+6 
           7990       6.5721e+6 
           8010      6.53815e+6 
           8030      6.50504e+6 
           8050      6.47217e+6 
           8070      6.43955e+6 
           8090       6.4066e+6 
           8110       6.3739e+6 
           8130        6.342e+6 
           8150      6.30978e+6 
           8170       6.2778e+6 
           8190      6.24605e+6 
           8210       6.2151e+6 
           8230      6.18382e+6 
           8250      6.15332e+6 
           8270      6.12249e+6 
           8290      6.09189e+6 
           8310      6.06151e+6 
           8330      6.03135e+6 
           8350      6.00141e+6 
           8370      5.97008e+6 
           8390      5.94004e+6 
           8410      5.90916e+6 
           8430      5.88062e+6 
           8450      5.85124e+6 
           8470      5.81313e+6 
           8490      5.79675e+6 
           8510      5.73469e+6 
           8530        5.742e+6 
           8550      5.63529e+6 
           8570      5.69057e+6 
