# Kurucz ODFNEW /NOVER (2003)
# teff = 3500 K (value for the effective temperature for the model. Temperatures are given in K)
# logg = 4.5 log(cm/s2) (value for Log(G) for the model.)
# meta = -2  (value for the Metallicity for the model.)
# lh = 1.25  (l/Hp where l is the  mixing length of the convective element and Hp is the pressure scale height)
# vtur = 2 km/s (Microturbulence velocity)
# alpha = 0.4  (Alpha)
#
# column 1: WAVELENGTH (ANGSTROM), Wavelength in Angstrom
# column 2: FLUX (ERG/CM2/S/A), Flux in erg/cm2/s/A
          219.8     7.79784e-36 
            223     7.57565e-36 
          226.8     7.32392e-36 
            230     7.12154e-36 
            234     6.88015e-36 
            240     6.54044e-36 
          246.5     6.20006e-36 
          252.4     5.91358e-36 
          256.8     5.71267e-36 
            260     5.57292e-36 
            264     5.40532e-36 
          268.5     5.22566e-36 
          273.5     5.03634e-36 
          278.5     4.85712e-36 
            284     4.67082e-36 
            290     4.47954e-36 
            296     4.29978e-36 
            301     4.15812e-36 
            308     3.97126e-36 
            318     3.72542e-36 
            328     3.50172e-36 
            338     3.29759e-36 
            348     3.11079e-36 
            357     2.95592e-36 
            366     2.81234e-36 
            375     2.67896e-36 
            385     2.54161e-36 
            395     2.41455e-36 
            405     2.29678e-36 
            414     2.19801e-36 
            422     2.11546e-36 
            430     2.03748e-36 
            441      1.9371e-36 
            451     1.85215e-36 
            460     1.78038e-36 
            470     1.70543e-36 
            480     1.63511e-36 
            490     1.56905e-36 
            500     1.50692e-36 
            506     1.47139e-36 
            512     1.43711e-36 
            520     1.39323e-36 
            530     1.34115e-36 
            540     1.29194e-36 
            550     1.24539e-36 
            560     1.20131e-36 
            570     1.15952e-36 
            580     1.11989e-36 
            590     1.08224e-36 
            600     1.04647e-36 
            610     1.01244e-36 
            620     9.80045e-37 
            630      9.4918e-37 
            640      9.1975e-37 
            650     8.91667e-37 
            658     8.70117e-37 
            665     8.51895e-37 
            675     8.26841e-37 
            685     8.02876e-37 
            695     7.79938e-37 
            705     7.57969e-37 
            716     7.34858e-37 
            726     7.14754e-37 
            735     6.97357e-37 
            745     6.78761e-37 
            755       6.609e-37 
            765     6.43734e-37 
            775     6.27229e-37 
            785      6.1135e-37 
            795     5.96067e-37 
            805      5.8135e-37 
            815     5.67171e-37 
            825     5.53505e-37 
            835     5.40327e-37 
            845     5.27614e-37 
            855     5.15344e-37 
            865     5.03498e-37 
            875     4.92055e-37 
            885     4.80998e-37 
            895     4.70309e-37 
            905     4.59973e-37 
            915     1.54251e-19 
            925     5.56052e-19 
            935     1.18088e-18 
            945     2.57202e-18 
            955     4.74823e-18 
            965     8.39204e-18 
            975     1.62287e-17 
            985     3.70239e-17 
            995      6.1763e-17 
           1005     1.25231e-16 
           1015     2.19483e-16 
           1025     3.72633e-16 
           1035     5.49572e-16 
           1045     1.26829e-15 
           1055     1.98058e-15 
           1065     3.46363e-15 
           1075     6.07918e-15 
           1085      8.5716e-15 
           1095     1.54402e-14 
           1105      2.2735e-14 
           1115     3.90813e-14 
           1125     4.99508e-14 
           1135     9.56574e-14 
           1145     1.43557e-13 
           1155     2.30806e-13 
           1165     3.81608e-13 
           1175     6.31909e-13 
           1185     9.45885e-13 
           1195     1.36185e-12 
           1205      1.6924e-12 
           1215      5.7838e-12 
           1225      4.4433e-12 
           1235     7.22769e-12 
           1245     1.57555e-11 
           1255     4.66013e-11 
           1265     9.51979e-11 
           1275       1.045e-10 
           1285     3.68054e-10 
           1295     4.39129e-10 
           1305      1.78259e-9 
           1315      2.36596e-9 
           1325      5.64249e-9 
           1335      4.85438e-9 
           1345      1.08946e-8 
           1355      1.29186e-8 
           1365      2.50415e-8 
           1375      2.80461e-8 
           1385      3.41963e-8 
           1395      5.06197e-8 
           1405      7.22342e-8 
           1415      1.26614e-7 
           1425      9.78286e-8 
           1435      2.23196e-7 
           1442      4.22936e-7 
           1447      2.34947e-7 
           1455      3.21115e-7 
           1465      4.79744e-7 
           1475      5.21642e-7 
           1485      5.36456e-7 
           1495      1.24134e-6 
           1505      2.17719e-6 
           1512      7.49951e-7 
           1517      1.07521e-6 
           1525      2.04837e-6 
           1535      3.59809e-6 
           1545      1.58076e-6 
           1555      2.46539e-6 
           1565       1.7998e-6 
           1575      3.24392e-6 
           1585      2.76658e-6 
           1595      2.13433e-6 
           1605      2.17041e-6 
           1615      2.08772e-6 
           1625      2.02672e-6 
           1635      3.08221e-6 
           1645      5.75823e-6 
           1655      3.69134e-6 
           1665      1.03345e-5 
           1672       7.1379e-6 
           1677      1.64606e-5 
           1685      2.50686e-5 
           1695      4.96431e-5 
           1705      5.10673e-5 
           1715      6.33346e-5 
           1725      9.16406e-5 
           1735     0.000117252 
           1745     0.000157297 
           1755     0.000140172 
           1765     0.000225417 
           1775     0.000172125 
           1785     0.000534809 
           1795     0.000302387 
           1805     0.000951333 
           1815     0.000428097 
           1825     0.000844111 
           1835     0.000625886 
           1845      0.00152384 
           1855     0.000651876 
           1865      0.00215181 
           1875      0.00161756 
           1885       0.0024005 
           1895      0.00294195 
           1905      0.00330729 
           1915      0.00555578 
           1925      0.00339853 
           1935      0.00146054 
           1945      0.00595852 
           1955       0.0110672 
           1967       0.0105519 
           1976       0.0136342 
           1984       0.0210566 
           1995       0.0149432 
           2005       0.0196676 
           2015       0.0215513 
           2025       0.0171239 
           2035       0.0239616 
           2045       0.0224505 
           2055       0.0287126 
           2065       0.0247512 
           2074       0.0151551 
           2078       0.0332079 
           2085        0.054769 
           2095        0.111791 
           2105        0.130082 
           2115        0.115994 
           2125        0.161592 
           2135         0.24373 
           2145        0.113231 
           2155        0.209398 
           2165        0.175689 
           2175        0.191159 
           2185        0.152137 
           2195        0.421766 
           2205        0.247174 
           2215        0.423713 
           2225        0.224487 
           2235        0.640592 
           2245        0.722383 
           2255         1.32184 
           2265        0.256157 
           2275        0.939563 
           2285        0.888786 
           2295         2.39727 
           2305        0.229192 
           2315         3.51688 
           2325         1.90273 
           2335         4.72599 
           2345         2.69252 
           2355         1.04371 
           2365         2.21933 
           2375         1.57821 
           2385         5.34977 
           2395          4.0315 
           2405         15.0665 
           2415         5.81402 
           2425         5.96252 
           2435         14.5883 
           2445         25.2095 
           2455         35.9207 
           2465          13.606 
           2475         36.7331 
           2485         6.58261 
           2495         6.85433 
           2505         19.9921 
           2513         11.3499 
           2518         12.6828 
           2525          20.732 
           2535         82.3429 
           2545         113.251 
           2555             149 
           2565         46.0786 
           2575         82.9579 
           2585         56.6372 
           2595         69.7512 
           2605         118.809 
           2615         97.8429 
           2625         214.295 
           2635         408.865 
           2645          303.24 
           2655         360.412 
           2665         372.209 
           2675         207.912 
           2685         414.327 
           2695         245.706 
           2705         470.506 
           2715         463.873 
           2725          336.09 
           2735          339.62 
           2745         568.317 
           2755         513.025 
           2765         739.836 
           2775         927.315 
           2785         503.101 
           2795         655.995 
           2805         650.704 
           2815         513.543 
           2825         457.124 
           2835         283.479 
           2845         103.589 
           2855         25.2053 
           2865         230.557 
           2875         446.795 
           2885         826.356 
           2895         1185.97 
           2910         1632.49 
           2930          2237.8 
           2950         2271.76 
           2970         2307.64 
           2990         2666.83 
           3010         2770.34 
           3030         3455.35 
           3050         4298.83 
           3070         3492.45 
           3090         2715.24 
           3110         4568.07 
           3130         5136.68 
           3150         6472.65 
           3170         10449.1 
           3190         9747.63 
           3210           12161 
           3230         13373.6 
           3250         20256.9 
           3270         27703.4 
           3290           30318 
           3310         25022.2 
           3330         23940.1 
           3350         20372.8 
           3370         14011.1 
           3390         20681.9 
           3410         25935.4 
           3430         31237.9 
           3450         25179.5 
           3470         26470.5 
           3490         34972.5 
           3510         44580.3 
           3530         48055.2 
           3550         69044.4 
           3570         35001.1 
           3590         29613.7 
           3610         43303.9 
           3630         53640.8 
           3640         53184.4 
           3650         56365.9 
           3670         83888.6 
           3690         69485.3 
           3710         52367.9 
           3730         23036.9 
           3750         30733.1 
           3770         74434.6 
           3790         83858.7 
           3810         82163.1 
           3830         34683.8 
           3850         62912.4 
           3870         58276.9 
           3890         58871.7 
           3910         69051.8 
           3930         25430.9 
           3950         48324.7 
           3970         34790.5 
           3990         97127.9 
           4010          137951 
           4030          113291 
           4050          138523 
           4070          130540 
           4090          142228 
           4110         63525.3 
           4130           88108 
           4150         71067.3 
           4170         76986.4 
           4190         86832.2 
           4210         70837.2 
           4230         32807.4 
           4250         91962.6 
           4270          102765 
           4290          106134 
           4310          127529 
           4330          176818 
           4350          190488 
           4370          197845 
           4390          184223 
           4410          193846 
           4430          196611 
           4450          207632 
           4470          247201 
           4490          255823 
           4510          274155 
           4530          226836 
           4550          263406 
           4570          278260 
           4590          281491 
           4610          296532 
           4630          308738 
           4650          288264 
           4670          310381 
           4690          300701 
           4710          289203 
           4730          280229 
           4750          268958 
           4770          219303 
           4790          225209 
           4810          293114 
           4830          290417 
           4850          331765 
           4870          341912 
           4890          344982 
           4910          341724 
           4930          319628 
           4950          302214 
           4970          277610 
           4990          243285 
           5010          211823 
           5030          216411 
           5050          201567 
           5070          185368 
           5090          179727 
           5110          168021 
           5130          160544 
           5150          144442 
           5170          146695 
           5190          190224 
           5210          225129 
           5230          411246 
           5250          427719 
           5270          372132 
           5290          441468 
           5310          466768 
           5330          427958 
           5350          449627 
           5370          450713 
           5390          448023 
           5410          446441 
           5430          442405 
           5450          433025 
           5470          454592 
           5490          459361 
           5510          442767 
           5530          481480 
           5550          486822 
           5570          486757 
           5590          439974 
           5610          477530 
           5630          519462 
           5650          545778 
           5670          542439 
           5690          546428 
           5710          546466 
           5730          561809 
           5750          571216 
           5770          570046 
           5790          573655 
           5810          573686 
           5830          581916 
           5850          564183 
           5870          545213 
           5890          264563 
           5910          504541 
           5930          565830 
           5950          576164 
           5970          587721 
           5990          595636 
           6010          602703 
           6030          611424 
           6050          614552 
           6070          616633 
           6090          616023 
           6110          605559 
           6130          579888 
           6150          621403 
           6170          519658 
           6190          609298 
           6210          607011 
           6230          599791 
           6250          596990 
           6270          612392 
           6290          628738 
           6310          636652 
           6330          644096 
           6350          653107 
           6370          651194 
           6390          655391 
           6410          653819 
           6430          643344 
           6450          613099 
           6470          622526 
           6490          631378 
           6510          656493 
           6530          675713 
           6550          668335 
           6570          664622 
           6590          678828 
           6610          679339 
           6630          683140 
           6650          678705 
           6670          671999 
           6690          664494 
           6710          659375 
           6730          657092 
           6750          656768 
           6770          674174 
           6790          667463 
           6810          676992 
           6830          685228 
           6850          690867 
           6870          690091 
           6890          697303 
           6910          703648 
           6930          703711 
           6950          706046 
           6970          713113 
           6990          712816 
           7010          717624 
           7030          718205 
           7050          712938 
           7070          686812 
           7090          674481 
           7110          675760 
           7130          655300 
           7150          639701 
           7170          675321 
           7190          692535 
           7210          677139 
           7230          707977 
           7250          703990 
           7270          721770 
           7290          728873 
           7310          729826 
           7330          719257 
           7350          723996 
           7370          733457 
           7390          736115 
           7410          737430 
           7430          737082 
           7450          738289 
           7470          740957 
           7490          742847 
           7510          744574 
           7530          746471 
           7550          745495 
           7570          748069 
           7590          745702 
           7610          744064 
           7630          743469 
           7650          741775 
           7670          704548 
           7690          732295 
           7710          715762 
           7730          741128 
           7750          736994 
           7770          740818 
           7790          743041 
           7810          746219 
           7830          745300 
           7850          745053 
           7870          748874 
           7890          750347 
           7910          749387 
           7930          750764 
           7950          748303 
           7970          753567 
           7990          752159 
           8010          753399 
           8030          753156 
           8050          752965 
           8070          752708 
           8090          754459 
           8110          754351 
           8130          754976 
           8150          755302 
           8170          754431 
           8190          719523 
           8210          749557 
           8230          751202 
           8250          751162 
           8270          751334 
           8290          750289 
           8310          748319 
           8330          737292 
           8350          747272 
           8370          740048 
           8390          707464 
           8410          737873 
           8430          702674 
           8450          742405 
           8470          737171 
           8490          733597 
           8510          713194 
           8530          732428 
           8550          654178 
           8570          742739 
           8590          743778 
           8610          743121 
           8630          743576 
           8650          738732 
           8670          662657 
           8690          717230 
           8710          743337 
           8730          741418 
           8750          742019 
           8770          739863 
           8790          741961 
           8810          730490 
           8830          729745 
           8850          738380 
           8870          731127 
           8890          731321 
           8910          731553 
           8930          730925 
           8950          729732 
