# Kurucz ODFNEW /NOVER (2003)
# teff = 21000 K (value for the effective temperature for the model. Temperatures are given in K)
# logg = 3.5 log(cm/s2) (value for Log(G) for the model.)
# meta = 0  (value for the Metallicity for the model.)
# lh = 1.25  (l/Hp where l is the  mixing length of the convective element and Hp is the pressure scale height)
# vtur = 2 km/s (Microturbulence velocity)
# alpha = 0  (Alpha)
#
# column 1: WAVELENGTH (ANGSTROM), Wavelength in Angstrom
# column 2: FLUX (ERG/CM2/S/A), Flux in erg/cm2/s/A
          147.2     5.14764e-19 
            151     2.88004e-18 
          155.2     1.76329e-17 
          158.8     7.76646e-17 
            162     2.76001e-16 
            166       1.265e-15 
          170.3     6.01671e-15 
          173.4     1.77517e-14 
          176.8      5.5775e-14 
          180.2     1.68305e-13 
          181.7     2.70541e-13 
          186.1     1.04642e-12 
            191     4.40796e-12 
          193.9     9.99128e-12 
          198.4     3.40058e-11 
          201.8     8.29183e-11 
            205     1.86971e-10 
          210.5     7.15042e-10 
          216.2      2.67888e-9 
          219.8      5.96293e-9 
            223      1.18885e-8 
          226.8      2.63082e-8 
            230      6.29366e-7 
            234      1.58587e-6 
            240      4.50421e-6 
          246.5      1.31571e-5 
          252.4      3.35785e-5 
          256.8      6.32907e-5 
            260     0.000105612 
            264     0.000186089 
          268.5     0.000344789 
          273.5     0.000665955 
          278.5       0.0012663 
            284       0.0025356 
            290      0.00513355 
            296       0.0100993 
            301       0.0173493 
            308       0.0358148 
            318       0.0990813 
            328        0.245863 
            338         0.59772 
            348          1.3541 
            357         3.05908 
            366         6.01165 
            375         10.9808 
            385         21.1271 
            395         39.4344 
            405         70.5847 
            414         117.217 
            422         178.105 
            430         270.027 
            441         463.471 
            451         736.526 
            460         1091.93 
            470         1679.87 
            480         2513.98 
            490         3723.52 
            500         5407.72 
            506         37892.8 
            512          341098 
            520          423486 
            530          577755 
            540          658824 
            550      1.00088e+6 
            560      1.21128e+6 
            570      1.56153e+6 
            580      1.53951e+6 
            590      2.13072e+6 
            600      2.64087e+6 
            610       3.2877e+6 
            620      3.76847e+6 
            630      4.34981e+6 
            640      4.53446e+6 
            650      3.98352e+6 
            658      5.98954e+6 
            665      6.87607e+6 
            675      7.52615e+6 
            685      8.21824e+6 
            695      1.03061e+7 
            705      1.11285e+7 
            716       1.2824e+7 
            726      1.39355e+7 
            735      1.50036e+7 
            745      1.74109e+7 
            755      1.93115e+7 
            765      2.14035e+7 
            775      2.37168e+7 
            785      2.60325e+7 
            795      2.78638e+7 
            805      2.99517e+7 
            815      3.19442e+7 
            825      3.54454e+7 
            835      3.46722e+7 
            845      3.92302e+7 
            855      4.16836e+7 
            865      4.53676e+7 
            875      4.94712e+7 
            885      5.43624e+7 
            895      5.80926e+7 
            905      5.85178e+7 
            915       1.0425e+8 
            925      9.56106e+8 
            935      2.79725e+9 
            945      6.17684e+9 
            955      8.57119e+9 
            965      9.54663e+9 
            975      1.35755e+9 
            985      7.81396e+9 
            995      8.48305e+9 
           1005     1.07891e+10 
           1015     1.07037e+10 
           1025      4.92899e+9 
           1035      7.23654e+9 
           1045     1.33167e+10 
           1055     1.22839e+10 
           1065      9.61964e+9 
           1075     1.17036e+10 
           1085       9.9947e+9 
           1095     1.18722e+10 
           1105     1.02977e+10 
           1115      9.53835e+9 
           1125      8.08601e+9 
           1135     1.11291e+10 
           1145      9.89851e+9 
           1155     1.04107e+10 
           1165     1.04864e+10 
           1175      6.40641e+9 
           1185     1.03605e+10 
           1195      8.47442e+9 
           1205      4.32453e+9 
           1215      3.75932e+9 
           1225      8.24493e+9 
           1235     1.01717e+10 
           1245     1.00848e+10 
           1255      9.86991e+9 
           1265      9.62832e+9 
           1275     1.00971e+10 
           1285     1.00576e+10 
           1295      6.15855e+9 
           1305         6.52e+9 
           1315      9.61657e+9 
           1325      8.91426e+9 
           1335      8.04032e+9 
           1345      8.98286e+9 
           1355      8.73996e+9 
           1365      7.78035e+9 
           1375      7.71343e+9 
           1385      7.63367e+9 
           1395      5.83884e+9 
           1405      6.33791e+9 
           1415      6.68667e+9 
           1425      6.81021e+9 
           1435      6.97889e+9 
           1442      7.20027e+9 
           1447      7.03814e+9 
           1455      6.84404e+9 
           1465      6.25418e+9 
           1475      6.39096e+9 
           1485       6.3009e+9 
           1495      6.19077e+9 
           1505      5.62127e+9 
           1512      4.92651e+9 
           1517      5.15175e+9 
           1525      5.37744e+9 
           1535      4.59531e+9 
           1545      4.59583e+9 
           1555      4.43766e+9 
           1565      4.72584e+9 
           1575      5.03172e+9 
           1585      5.07624e+9 
           1595      5.04226e+9 
           1605      5.11666e+9 
           1615      5.07616e+9 
           1625       4.9006e+9 
           1635      5.23121e+9 
           1645      5.19912e+9 
           1655      5.02494e+9 
           1665      5.27569e+9 
           1672      5.04159e+9 
           1677      5.32102e+9 
           1685      5.28295e+9 
           1695      4.94176e+9 
           1705      4.76124e+9 
           1715      4.46392e+9 
           1725      4.43308e+9 
           1735       4.6776e+9 
           1745      4.50389e+9 
           1755      4.60413e+9 
           1765       4.4232e+9 
           1775      4.23025e+9 
           1785      4.31529e+9 
           1795      4.51475e+9 
           1805      4.56223e+9 
           1815      3.97117e+9 
           1825      4.20546e+9 
           1835      4.02471e+9 
           1845       3.6639e+9 
           1855      3.56724e+9 
           1865      3.65072e+9 
           1875      3.98662e+9 
           1885      3.50178e+9 
           1895      3.23853e+9 
           1905      3.58539e+9 
           1915      3.30222e+9 
           1925      3.16755e+9 
           1935       3.3808e+9 
           1945      3.42948e+9 
           1955      3.09937e+9 
           1967      3.42534e+9 
           1976      3.55631e+9 
           1984       3.2887e+9 
           1995      3.21269e+9 
           2005      3.37414e+9 
           2015      3.28293e+9 
           2025      3.44039e+9 
           2035      3.09927e+9 
           2045      3.19281e+9 
           2055      3.08956e+9 
           2065      3.08488e+9 
           2074      3.29849e+9 
           2078      2.90699e+9 
           2085      3.11472e+9 
           2095      2.92395e+9 
           2105      3.01348e+9 
           2115      3.03179e+9 
           2125      3.06264e+9 
           2135       2.9984e+9 
           2145      2.83393e+9 
           2155      2.97967e+9 
           2165       2.9678e+9 
           2175       2.9342e+9 
           2185      2.81326e+9 
           2195      2.88089e+9 
           2205      2.84917e+9 
           2215      2.78388e+9 
           2225      2.70267e+9 
           2235      2.70961e+9 
           2245      2.72612e+9 
           2255       2.6142e+9 
           2265       2.6762e+9 
           2275      2.64465e+9 
           2285      2.65849e+9 
           2295      2.47752e+9 
           2305      2.55683e+9 
           2315      2.46428e+9 
           2325      2.43016e+9 
           2335      2.32862e+9 
           2345      2.33442e+9 
           2355       2.3537e+9 
           2365      2.30811e+9 
           2375      2.28537e+9 
           2385      2.24883e+9 
           2395      2.26588e+9 
           2405      2.19204e+9 
           2415      2.19615e+9 
           2425      2.20479e+9 
           2435      2.12419e+9 
           2445      2.15046e+9 
           2455      2.15473e+9 
           2465      2.10114e+9 
           2475      2.06845e+9 
           2485      2.06489e+9 
           2495      1.91735e+9 
           2505      2.02226e+9 
           2513      1.91503e+9 
           2518      1.99549e+9 
           2525      1.94208e+9 
           2535      1.91465e+9 
           2545      1.85357e+9 
           2555      1.90297e+9 
           2565      1.87322e+9 
           2575       1.8937e+9 
           2585      1.87372e+9 
           2595      1.85763e+9 
           2605      1.84306e+9 
           2615      1.82056e+9 
           2625      1.80475e+9 
           2635      1.79194e+9 
           2645      1.79544e+9 
           2655      1.78974e+9 
           2665      1.72403e+9 
           2675       1.7386e+9 
           2685      1.72718e+9 
           2695      1.67331e+9 
           2705      1.65777e+9 
           2715      1.64711e+9 
           2725      1.63007e+9 
           2735      1.63419e+9 
           2745      1.57031e+9 
           2755      1.56935e+9 
           2765      1.56201e+9 
           2775      1.57744e+9 
           2785      1.55263e+9 
           2795      1.49679e+9 
           2805      1.51754e+9 
           2815      1.51672e+9 
           2825      1.49481e+9 
           2835      1.43441e+9 
           2845      1.44873e+9 
           2855       1.4356e+9 
           2865       1.4429e+9 
           2875      1.42381e+9 
           2885      1.41183e+9 
           2895      1.39242e+9 
           2910       1.3725e+9 
           2930      1.34575e+9 
           2950      1.30874e+9 
           2970      1.29489e+9 
           2990      1.26629e+9 
           3010      1.23359e+9 
           3030      1.22823e+9 
           3050      1.20476e+9 
           3070      1.18352e+9 
           3090      1.14837e+9 
           3110      1.13567e+9 
           3130      1.11455e+9 
           3150       1.0952e+9 
           3170      1.06887e+9 
           3190      1.04414e+9 
           3210      1.03366e+9 
           3230      1.01385e+9 
           3250       9.9749e+8 
           3270      9.78421e+8 
           3290      9.59878e+8 
           3310      9.44875e+8 
           3330      9.26935e+8 
           3350       9.0932e+8 
           3370      8.93948e+8 
           3390      8.79596e+8 
           3410      8.64546e+8 
           3430      8.44502e+8 
           3450      8.27016e+8 
           3470      8.14663e+8 
           3490      8.00373e+8 
           3510      7.89902e+8 
           3530      7.79102e+8 
           3550      7.66014e+8 
           3570      7.56214e+8 
           3590      7.36061e+8 
           3610      7.23302e+8 
           3630      7.14125e+8 
           3640      7.13305e+8 
           3650      6.98487e+8 
           3670      6.90699e+8 
           3690      6.70948e+8 
           3710      6.55358e+8 
           3730      6.43881e+8 
           3750      7.08372e+8 
           3770      7.12645e+8 
           3790      7.42622e+8 
           3810      7.72295e+8 
           3830      6.78934e+8 
           3850      7.82814e+8 
           3870      7.74442e+8 
           3890      6.47347e+8 
           3910      7.69742e+8 
           3930      7.41853e+8 
           3950      7.41314e+8 
           3970      6.01131e+8 
           3990      7.13652e+8 
           4010      7.07488e+8 
           4030      6.71024e+8 
           4050      6.87472e+8 
           4070      6.63107e+8 
           4090      6.28081e+8 
           4110      5.57753e+8 
           4130      6.28055e+8 
           4150      6.23679e+8 
           4170      6.19422e+8 
           4190      6.13931e+8 
           4210      6.07283e+8 
           4230      5.94816e+8 
           4250      5.82244e+8 
           4270      5.65562e+8 
           4290       5.6245e+8 
           4310      5.48826e+8 
           4330      5.09247e+8 
           4350      4.65912e+8 
           4370      5.21332e+8 
           4390      5.11784e+8 
           4410       5.1184e+8 
           4430       5.0387e+8 
           4450      4.99103e+8 
           4470      4.75868e+8 
           4490      4.81785e+8 
           4510        4.788e+8 
           4530      4.69771e+8 
           4550      4.63631e+8 
           4570      4.56389e+8 
           4590      4.49648e+8 
           4610      4.40437e+8 
           4630      4.33618e+8 
           4650      4.24373e+8 
           4670      4.22248e+8 
           4690      4.18415e+8 
           4710      4.03186e+8 
           4730      4.01736e+8 
           4750      3.95956e+8 
           4770      3.95607e+8 
           4790      3.88698e+8 
           4810      3.80913e+8 
           4830      3.74939e+8 
           4850      3.53867e+8 
           4870      3.16815e+8 
           4890      3.59823e+8 
           4910      3.56054e+8 
           4930      3.43824e+8 
           4950      3.45956e+8 
           4970      3.42567e+8 
           4990      3.37028e+8 
           5010      3.23506e+8 
           5030      3.26939e+8 
           5050      3.18431e+8 
           5070      3.18664e+8 
           5090      3.14071e+8 
           5110      3.09064e+8 
           5130      3.02392e+8 
           5150      2.99097e+8 
           5170      2.97407e+8 
           5190      2.93483e+8 
           5210      2.87529e+8 
           5230      2.85485e+8 
           5250      2.81879e+8 
           5270      2.77668e+8 
           5290       2.7463e+8 
           5310      2.70695e+8 
           5330      2.66983e+8 
           5350      2.62872e+8 
           5370      2.60564e+8 
           5390      2.57039e+8 
           5410      2.53791e+8 
           5430       2.4974e+8 
           5450      2.46718e+8 
           5470      2.43482e+8 
           5490      2.40724e+8 
           5510      2.37838e+8 
           5530      2.34556e+8 
           5550      2.31988e+8 
           5570      2.28819e+8 
           5590      2.26208e+8 
           5610      2.23006e+8 
           5630      2.20688e+8 
           5650      2.16166e+8 
           5670      2.13144e+8 
           5690      2.10705e+8 
           5710       2.0929e+8 
           5730      2.06856e+8 
           5750      2.04029e+8 
           5770      2.02142e+8 
           5790      1.99568e+8 
           5810      1.97147e+8 
           5830      1.94478e+8 
           5850      1.92325e+8 
           5870      1.84861e+8 
           5890       1.8604e+8 
           5910      1.85107e+8 
           5930      1.82725e+8 
           5950      1.80168e+8 
           5970      1.79016e+8 
           5990      1.76321e+8 
           6010      1.74743e+8 
           6030      1.72477e+8 
           6050      1.70556e+8 
           6070      1.68698e+8 
           6090      1.66647e+8 
           6110      1.64781e+8 
           6130      1.62945e+8 
           6150      1.60224e+8 
           6170        1.589e+8 
           6190      1.57295e+8 
           6210      1.55531e+8 
           6230      1.53748e+8 
           6250      1.51627e+8 
           6270      1.50134e+8 
           6290      1.48486e+8 
           6310      1.46657e+8 
           6330      1.45215e+8 
           6350        1.429e+8 
           6370      1.41605e+8 
           6390       1.4024e+8 
           6410      1.38697e+8 
           6430      1.37325e+8 
           6450      1.35705e+8 
           6470      1.33895e+8 
           6490      1.32526e+8 
           6510      1.31162e+8 
           6530      1.29379e+8 
           6550      1.24761e+8 
           6570      1.10667e+8 
           6590      1.23763e+8 
           6610       1.2405e+8 
           6630      1.22908e+8 
           6650      1.21634e+8 
           6670      1.19305e+8 
           6690      1.18062e+8 
           6710       1.1782e+8 
           6730      1.16422e+8 
           6750      1.15353e+8 
           6770      1.14138e+8 
           6790      1.12077e+8 
           6810      1.11566e+8 
           6830      1.10437e+8 
           6850      1.09368e+8 
           6870      1.08229e+8 
           6890      1.07062e+8 
           6910      1.05922e+8 
           6930      1.04794e+8 
           6950      1.03794e+8 
           6970      1.02734e+8 
           6990      1.01646e+8 
           7010      1.00599e+8 
           7030        9.957e+7 
           7050      9.84905e+7 
           7070      9.59292e+7 
           7090      9.65729e+7 
           7110      9.50094e+7 
           7130      9.40992e+7 
           7150      9.36177e+7 
           7170      9.26858e+7 
           7190      9.17919e+7 
           7210      9.08703e+7 
           7230       8.8653e+7 
           7250      8.89744e+7 
           7270      8.81719e+7 
           7290        8.659e+7 
           7310       8.6413e+7 
           7330      8.55634e+7 
           7350      8.47497e+7 
           7370      8.39159e+7 
           7390      8.30898e+7 
           7410      8.22782e+7 
           7430      8.14196e+7 
           7450      8.06708e+7 
           7470       7.9733e+7 
           7490      7.90929e+7 
           7510      7.82981e+7 
           7530      7.75505e+7 
           7550      7.68626e+7 
           7570      7.61283e+7 
           7590      7.53811e+7 
           7610      7.46601e+7 
           7630      7.39586e+7 
           7650      7.32634e+7 
           7670      7.25744e+7 
           7690      7.18853e+7 
           7710      7.12023e+7 
           7730      7.05254e+7 
           7750       6.9867e+7 
           7770      6.87902e+7 
           7790      6.85802e+7 
           7810      6.78836e+7 
           7830      6.73099e+7 
           7850      6.66372e+7 
           7870      6.60252e+7 
           7890      6.52613e+7 
           7910      6.48474e+7 
           7930      6.41732e+7 
           7950      6.34573e+7 
           7970      6.29317e+7 
           7990      6.22452e+7 
           8010      6.17997e+7 
           8030      6.12469e+7 
           8050      6.07278e+7 
           8070      6.02247e+7 
           8090      5.95532e+7 
           8110      5.90307e+7 
           8130      5.86494e+7 
           8150      5.80216e+7 
           8170       5.7642e+7 
           8190      5.69901e+7 
           8210      5.62656e+7 
           8230      5.58368e+7 
           8250      5.55055e+7 
           8270       5.4643e+7 
           8290       5.4452e+7 
           8310      5.39922e+7 
           8330      5.35302e+7 
           8350      5.27867e+7 
           8370      5.24266e+7 
           8390      5.20774e+7 
           8410      5.15872e+7 
           8430      5.10554e+7 
           8450      5.01618e+7 
           8470       4.9931e+7 
           8490      4.97985e+7 
           8510      4.87916e+7 
           8530      4.91922e+7 
           8550      4.71602e+7 
           8570      4.91578e+7 
           8590      4.66025e+7 
