# Kurucz ODFNEW /NOVER (2003)
# teff = 22000 K (value for the effective temperature for the model. Temperatures are given in K)
# logg = 3 log(cm/s2) (value for Log(G) for the model.)
# meta = 0  (value for the Metallicity for the model.)
# lh = 1.25  (l/Hp where l is the  mixing length of the convective element and Hp is the pressure scale height)
# vtur = 2 km/s (Microturbulence velocity)
# alpha = 0  (Alpha)
#
# column 1: WAVELENGTH (ANGSTROM), Wavelength in Angstrom
# column 2: FLUX (ERG/CM2/S/A), Flux in erg/cm2/s/A
          147.2      5.7367e-18 
            151     3.07385e-17 
          155.2     1.80286e-16 
          158.8     7.66876e-16 
            162     2.64359e-15 
            166     1.16735e-14 
          170.3     5.35424e-14 
          173.4     1.53962e-13 
          176.8     4.70709e-13 
          180.2     1.38315e-12 
          181.7     2.19819e-12 
          186.1     8.22441e-12 
            191     3.34132e-11 
          193.9     7.41821e-11 
          198.4     2.44571e-10 
          201.8     5.82237e-10 
            205      1.28388e-9 
          210.5       4.7337e-9 
          216.2      1.70833e-8 
          219.8      3.71458e-8 
            223      7.25671e-8 
          226.8      1.56908e-7 
            230      9.84482e-6 
            234      2.42415e-5 
            240      6.40126e-5 
          246.5     0.000174959 
          252.4     0.000421585 
          256.8     0.000746361 
            260      0.00128506 
            264      0.00216078 
          268.5      0.00385314 
          273.5      0.00713548 
          278.5       0.0130142 
            284       0.0258782 
            290       0.0497811 
            296       0.0938513 
            301        0.154304 
            308        0.311422 
            318        0.826932 
            328         1.91586 
            338         4.46097 
            348         9.57844 
            357         31.3978 
            366         60.9377 
            375         102.235 
            385         184.795 
            395          338.64 
            405         565.261 
            414         895.995 
            422          1315.2 
            430         1960.22 
            441         3188.86 
            451         4745.95 
            460         6712.76 
            470         10012.6 
            480         14392.2 
            490         20661.3 
            500         28810.8 
            506          201595 
            512      2.20999e+6 
            520      2.59726e+6 
            530      3.20911e+6 
            540      3.51782e+6 
            550      5.48593e+6 
            560       6.6843e+6 
            570      8.27715e+6 
            580      7.82016e+6 
            590      1.08167e+7 
            600      1.28067e+7 
            610      1.56199e+7 
            620      1.76104e+7 
            630      1.93566e+7 
            640      1.88825e+7 
            650      1.52279e+7 
            658      2.38081e+7 
            665      2.77633e+7 
            675      2.89609e+7 
            685      2.98333e+7 
            695      3.95428e+7 
            705      4.06809e+7 
            716      4.66275e+7 
            726      4.87276e+7 
            735      5.13394e+7 
            745      5.98233e+7 
            755      6.49519e+7 
            765      7.07722e+7 
            775       7.6823e+7 
            785      8.31865e+7 
            795      8.75206e+7 
            805      9.18475e+7 
            815      9.55117e+7 
            825       1.0588e+8 
            835      9.29686e+7 
            845      1.11221e+8 
            855      1.14762e+8 
            865      1.23961e+8 
            875      1.34119e+8 
            885      1.47195e+8 
            895      1.55668e+8 
            905        1.537e+8 
            915      3.23158e+8 
            925      3.87761e+9 
            935      7.25513e+9 
            945      1.0244e+10 
            955      1.1758e+10 
            965     1.12498e+10 
            975      2.08202e+9 
            985      7.64661e+9 
            995      9.31221e+9 
           1005     1.21032e+10 
           1015     1.24385e+10 
           1025      9.13581e+9 
           1035      9.26187e+9 
           1045     1.50505e+10 
           1055     1.37197e+10 
           1065     1.09888e+10 
           1075     1.31037e+10 
           1085     1.13743e+10 
           1095     1.33948e+10 
           1105     1.18453e+10 
           1115     1.11411e+10 
           1125      8.85457e+9 
           1135     1.25907e+10 
           1145     1.15749e+10 
           1155      1.1952e+10 
           1165     1.18013e+10 
           1175      6.48609e+9 
           1185     1.13336e+10 
           1195     1.02937e+10 
           1205      5.50633e+9 
           1215      6.94495e+9 
           1225     1.03342e+10 
           1235     1.16381e+10 
           1245     1.12205e+10 
           1255     1.11469e+10 
           1265      1.1245e+10 
           1275     1.17246e+10 
           1285     1.15461e+10 
           1295      7.35903e+9 
           1305      8.34013e+9 
           1315     1.12738e+10 
           1325     1.05153e+10 
           1335      9.89181e+9 
           1345     1.04791e+10 
           1355     1.02791e+10 
           1365      9.35765e+9 
           1375      9.13117e+9 
           1385       8.8144e+9 
           1395      5.94028e+9 
           1405      6.71329e+9 
           1415      7.83554e+9 
           1425      7.87846e+9 
           1435      8.20518e+9 
           1442      8.42375e+9 
           1447       8.2386e+9 
           1455      7.98312e+9 
           1465      7.28981e+9 
           1475      7.54524e+9 
           1485      7.49009e+9 
           1495      7.32684e+9 
           1505      6.65581e+9 
           1512      5.82658e+9 
           1517      6.07815e+9 
           1525      6.32752e+9 
           1535      5.29913e+9 
           1545      5.17473e+9 
           1555      5.04077e+9 
           1565      5.52706e+9 
           1575      5.93685e+9 
           1585      5.99639e+9 
           1595      5.91507e+9 
           1605       6.0203e+9 
           1615      5.92908e+9 
           1625       5.8024e+9 
           1635      6.22686e+9 
           1645      6.22628e+9 
           1655      6.12967e+9 
           1665      6.27845e+9 
           1672      5.96954e+9 
           1677      6.54163e+9 
           1685      6.34989e+9 
           1695      5.93058e+9 
           1705      5.80472e+9 
           1715      5.41919e+9 
           1725      5.41326e+9 
           1735      5.67718e+9 
           1745      5.51146e+9 
           1755      5.58179e+9 
           1765      5.52537e+9 
           1775      5.13099e+9 
           1785      5.27077e+9 
           1795      5.47738e+9 
           1805      5.55839e+9 
           1815      4.81424e+9 
           1825      5.10175e+9 
           1835      4.94627e+9 
           1845       4.4801e+9 
           1855       4.4674e+9 
           1865      4.55674e+9 
           1875      4.88515e+9 
           1885      4.27767e+9 
           1895      3.94614e+9 
           1905      4.39418e+9 
           1915      4.05409e+9 
           1925      3.85053e+9 
           1935      4.15585e+9 
           1945      4.22615e+9 
           1955      3.77604e+9 
           1967      4.19943e+9 
           1976      4.36639e+9 
           1984      4.05781e+9 
           1995      3.96841e+9 
           2005      4.19704e+9 
           2015      4.12719e+9 
           2025      4.27605e+9 
           2035      3.83432e+9 
           2045      3.96356e+9 
           2055      3.80866e+9 
           2065      3.77443e+9 
           2074      4.09741e+9 
           2078      3.55591e+9 
           2085      3.86277e+9 
           2095      3.63097e+9 
           2105      3.75792e+9 
           2115      3.80046e+9 
           2125      3.82734e+9 
           2135      3.78529e+9 
           2145      3.53433e+9 
           2155      3.73831e+9 
           2165      3.75249e+9 
           2175      3.71217e+9 
           2185      3.54736e+9 
           2195      3.63607e+9 
           2205      3.63299e+9 
           2215      3.56157e+9 
           2225      3.46844e+9 
           2235       3.4248e+9 
           2245      3.47419e+9 
           2255      3.34758e+9 
           2265      3.41223e+9 
           2275      3.36359e+9 
           2285      3.38017e+9 
           2295      3.04915e+9 
           2305      3.26355e+9 
           2315      3.15191e+9 
           2325      3.11684e+9 
           2335      3.00328e+9 
           2345      3.03787e+9 
           2355        3.045e+9 
           2365      3.01594e+9 
           2375      2.96014e+9 
           2385      2.93517e+9 
           2395      2.91406e+9 
           2405      2.85281e+9 
           2415      2.83751e+9 
           2425      2.83869e+9 
           2435       2.7515e+9 
           2445      2.77435e+9 
           2455      2.78424e+9 
           2465      2.72245e+9 
           2475      2.67927e+9 
           2485       2.6281e+9 
           2495      2.22188e+9 
           2505      2.54614e+9 
           2513      2.44871e+9 
           2518      2.55224e+9 
           2525      2.51353e+9 
           2535      2.48207e+9 
           2545      2.38827e+9 
           2555      2.44296e+9 
           2565      2.40677e+9 
           2575       2.4251e+9 
           2585      2.38281e+9 
           2595      2.36426e+9 
           2605      2.35336e+9 
           2615      2.31435e+9 
           2625      2.30019e+9 
           2635      2.28374e+9 
           2645      2.26802e+9 
           2655       2.2632e+9 
           2665      2.17162e+9 
           2675      2.18889e+9 
           2685      2.17967e+9 
           2695      2.10512e+9 
           2705      2.06719e+9 
           2715      2.07213e+9 
           2725      2.06643e+9 
           2735      2.05543e+9 
           2745      1.99568e+9 
           2755      1.99318e+9 
           2765       1.9786e+9 
           2775      1.99098e+9 
           2785      1.95776e+9 
           2795      1.89078e+9 
           2805      1.91203e+9 
           2815      1.91017e+9 
           2825      1.88954e+9 
           2835      1.81628e+9 
           2845      1.83784e+9 
           2855       1.8059e+9 
           2865      1.81273e+9 
           2875      1.79367e+9 
           2885      1.77813e+9 
           2895      1.74564e+9 
           2910      1.71622e+9 
           2930      1.69273e+9 
           2950      1.64415e+9 
           2970      1.62366e+9 
           2990       1.5908e+9 
           3010       1.5331e+9 
           3030       1.5341e+9 
           3050      1.50967e+9 
           3070      1.48583e+9 
           3090      1.42941e+9 
           3110      1.42382e+9 
           3130       1.3923e+9 
           3150      1.37069e+9 
           3170      1.33602e+9 
           3190      1.31051e+9 
           3210      1.29375e+9 
           3230      1.26482e+9 
           3250      1.24719e+9 
           3270      1.21976e+9 
           3290      1.19669e+9 
           3310      1.17698e+9 
           3330      1.15327e+9 
           3350       1.1337e+9 
           3370      1.11265e+9 
           3390      1.09582e+9 
           3410      1.07701e+9 
           3430       1.0529e+9 
           3450      1.03136e+9 
           3470      1.01456e+9 
           3490      9.95943e+8 
           3510      9.81507e+8 
           3530      9.68905e+8 
           3550      9.51531e+8 
           3570      9.37796e+8 
           3590      9.11884e+8 
           3610      8.94986e+8 
           3630      8.84893e+8 
           3640      8.83592e+8 
           3650      8.63063e+8 
           3670      8.53123e+8 
           3690      8.26054e+8 
           3710      8.15995e+8 
           3730      8.11113e+8 
           3750      8.72994e+8 
           3770      8.64631e+8 
           3790      8.74361e+8 
           3810      8.97931e+8 
           3830      8.14356e+8 
           3850      8.89663e+8 
           3870      8.66758e+8 
           3890      7.82209e+8 
           3910      8.58133e+8 
           3930      8.27322e+8 
           3950      8.24543e+8 
           3970      7.25712e+8 
           3990      7.98439e+8 
           4010      7.87706e+8 
           4030      7.58706e+8 
           4050      7.62095e+8 
           4070      7.34632e+8 
           4090      7.10372e+8 
           4110      6.55504e+8 
           4130       7.0061e+8 
           4150      6.94661e+8 
           4170      6.89183e+8 
           4190      6.81718e+8 
           4210      6.74959e+8 
           4230      6.61033e+8 
           4250      6.45941e+8 
           4270      6.29449e+8 
           4290      6.23348e+8 
           4310      6.08106e+8 
           4330      5.83091e+8 
           4350      5.42761e+8 
           4370      5.79764e+8 
           4390      5.75628e+8 
           4410      5.69333e+8 
           4430      5.62457e+8 
           4450      5.54826e+8 
           4470      5.37598e+8 
           4490      5.38463e+8 
           4510      5.33494e+8 
           4530      5.24718e+8 
           4550       5.1764e+8 
           4570      5.09097e+8 
           4590      5.01433e+8 
           4610      4.90817e+8 
           4630      4.84283e+8 
           4650      4.70457e+8 
           4670      4.70564e+8 
           4690       4.6697e+8 
           4710      4.51177e+8 
           4730      4.50181e+8 
           4750      4.43192e+8 
           4770      4.42911e+8 
           4790      4.35444e+8 
           4810       4.2732e+8 
           4830      4.21237e+8 
           4850      4.08545e+8 
           4870      3.74062e+8 
           4890      4.04897e+8 
           4910      3.99605e+8 
           4930      3.88356e+8 
           4950      3.87008e+8 
           4970      3.84189e+8 
           4990      3.78074e+8 
           5010        3.637e+8 
           5030      3.67231e+8 
           5050      3.59069e+8 
           5070      3.57605e+8 
           5090      3.52445e+8 
           5110      3.47109e+8 
           5130      3.39798e+8 
           5150      3.36383e+8 
           5170      3.33884e+8 
           5190      3.29651e+8 
           5210      3.24266e+8 
           5230      3.20592e+8 
           5250      3.16624e+8 
           5270       3.1177e+8 
           5290      3.08367e+8 
           5310       3.0395e+8 
           5330      3.00255e+8 
           5350      2.95974e+8 
           5370      2.92781e+8 
           5390      2.88706e+8 
           5410      2.85365e+8 
           5430      2.81184e+8 
           5450      2.77513e+8 
           5470      2.73977e+8 
           5490      2.70559e+8 
           5510      2.67618e+8 
           5530      2.63715e+8 
           5550      2.61023e+8 
           5570      2.57452e+8 
           5590       2.5454e+8 
           5610      2.51124e+8 
           5630      2.48262e+8 
           5650      2.43958e+8 
           5670      2.40025e+8 
           5690      2.36561e+8 
           5710      2.35345e+8 
           5730      2.32627e+8 
           5750        2.292e+8 
           5770      2.27489e+8 
           5790      2.24527e+8 
           5810      2.21879e+8 
           5830      2.18719e+8 
           5850      2.16422e+8 
           5870      2.09199e+8 
           5890      2.09594e+8 
           5910      2.08189e+8 
           5930      2.05276e+8 
           5950      2.02653e+8 
           5970      2.01594e+8 
           5990      1.98276e+8 
           6010      1.96604e+8 
           6030      1.93913e+8 
           6050      1.91841e+8 
           6070      1.89935e+8 
           6090      1.87714e+8 
           6110      1.85549e+8 
           6130      1.83518e+8 
           6150      1.80563e+8 
           6170      1.78821e+8 
           6190      1.77087e+8 
           6210      1.75205e+8 
           6230      1.73257e+8 
           6250      1.70954e+8 
           6270      1.69156e+8 
           6290      1.67359e+8 
           6310      1.65344e+8 
           6330       1.6368e+8 
           6350      1.61277e+8 
           6370      1.59839e+8 
           6390      1.58093e+8 
           6410      1.56402e+8 
           6430      1.54774e+8 
           6450      1.52992e+8 
           6470      1.50896e+8 
           6490       1.4926e+8 
           6510      1.47936e+8 
           6530      1.46147e+8 
           6550      1.42973e+8 
           6570      1.29335e+8 
           6590      1.40237e+8 
           6610      1.39855e+8 
           6630      1.38541e+8 
           6650      1.37002e+8 
           6670        1.347e+8 
           6690      1.33306e+8 
           6710      1.32797e+8 
           6730      1.31094e+8 
           6750      1.30021e+8 
           6770      1.28645e+8 
           6790      1.26328e+8 
           6810       1.2575e+8 
           6830      1.24441e+8 
           6850      1.23266e+8 
           6870      1.21974e+8 
           6890      1.20593e+8 
           6910      1.19264e+8 
           6930      1.18177e+8 
           6950      1.16991e+8 
           6970      1.15793e+8 
           6990      1.14568e+8 
           7010      1.13394e+8 
           7030      1.12224e+8 
           7050      1.11065e+8 
           7070       1.0829e+8 
           7090      1.08841e+8 
           7110       1.0697e+8 
           7130      1.05986e+8 
           7150      1.05541e+8 
           7170      1.04484e+8 
           7190      1.03459e+8 
           7210      1.02415e+8 
           7230      9.98959e+7 
           7250      1.00213e+8 
           7270      9.93556e+7 
           7290      9.76415e+7 
           7310      9.73759e+7 
           7330      9.63965e+7 
           7350       9.5489e+7 
           7370      9.45623e+7 
           7390      9.36303e+7 
           7410      9.27139e+7 
           7430      9.17719e+7 
           7450      9.08997e+7 
           7470      8.97047e+7 
           7490      8.91121e+7 
           7510      8.82307e+7 
           7530       8.7364e+7 
           7550      8.65977e+7 
           7570      8.57726e+7 
           7590      8.49288e+7 
           7610      8.40536e+7 
           7630      8.33029e+7 
           7650      8.25267e+7 
           7670      8.17447e+7 
           7690      8.09633e+7 
           7710      8.01826e+7 
           7730      7.94214e+7 
           7750      7.86984e+7 
           7770      7.76261e+7 
           7790      7.72405e+7 
           7810      7.64624e+7 
           7830      7.58081e+7 
           7850      7.51044e+7 
           7870      7.43521e+7 
           7890      7.35036e+7 
           7910      7.29698e+7 
           7930      7.22008e+7 
           7950      7.14983e+7 
           7970      7.08611e+7 
           7990      7.02059e+7 
           8010      6.95974e+7 
           8030       6.8994e+7 
           8050      6.84191e+7 
           8070      6.78316e+7 
           8090      6.71168e+7 
           8110      6.63336e+7 
           8130      6.60419e+7 
           8150      6.53325e+7 
           8170      6.48888e+7 
           8190      6.41118e+7 
           8210      6.33359e+7 
           8230       6.2767e+7 
           8250      6.24409e+7 
           8270      6.13846e+7 
           8290      6.12423e+7 
           8310      6.07351e+7 
           8330      6.02103e+7 
           8350      5.94306e+7 
           8370      5.89318e+7 
           8390      5.85174e+7 
           8410      5.79411e+7 
           8430      5.74226e+7 
           8450      5.65602e+7 
           8470      5.60361e+7 
           8490      5.62323e+7 
           8510      5.47667e+7 
           8530      5.55509e+7 
           8550      5.30959e+7 
           8570      5.53361e+7 
           8590      5.28221e+7 
