# Kurucz ODFNEW /NOVER (2003)
# teff = 6250 K (value for the effective temperature for the model. Temperatures are given in K)
# logg = 1 log(cm/s2) (value for Log(G) for the model.)
# meta = -4  (value for the Metallicity for the model.)
# lh = 1.25  (l/Hp where l is the  mixing length of the convective element and Hp is the pressure scale height)
# vtur = 2 km/s (Microturbulence velocity)
# alpha = 0.4  (Alpha)
#
# column 1: WAVELENGTH (ANGSTROM), Wavelength in Angstrom
# column 2: FLUX (ERG/CM2/S/A), Flux in erg/cm2/s/A
          147.2     1.73866e-35 
            151     1.65225e-35 
          155.2     1.56403e-35 
          158.8     1.49392e-35 
            162     1.43549e-35 
            166     1.36714e-35 
          170.3     1.29897e-35 
          173.4     1.25294e-35 
          176.8     1.20522e-35 
          180.2     1.16017e-35 
          181.7     1.14109e-35 
          186.1     1.08777e-35 
            191     1.03267e-35 
          193.9     1.00201e-35 
          198.4     9.57076e-36 
          201.8     9.25097e-36 
            205     8.96441e-36 
          210.5     8.50208e-36 
          216.2     8.05969e-36 
          219.8     7.79784e-36 
            223     7.57565e-36 
          226.8     7.32392e-36 
            230     7.12154e-36 
            234     6.88015e-36 
            240     6.54044e-36 
          246.5     6.20006e-36 
          252.4     5.91358e-36 
          256.8     5.71267e-36 
            260     5.57292e-36 
            264     5.40532e-36 
          268.5     5.22566e-36 
          273.5     5.03634e-36 
          278.5     4.85712e-36 
            284     4.67082e-36 
            290     4.47954e-36 
            296     4.29978e-36 
            301     4.15812e-36 
            308     3.97126e-36 
            318     3.72542e-36 
            328     3.50172e-36 
            338     3.29759e-36 
            348     3.11079e-36 
            357     2.95592e-36 
            366     4.80797e-24 
            375     7.96617e-23 
            385      6.5093e-22 
            395     4.63327e-21 
            405     2.97892e-20 
            414     1.46831e-19 
            422     5.71407e-19 
            430     2.11021e-18 
            441     1.17408e-17 
            451     5.18325e-17 
            460     1.86264e-16 
            470     7.26956e-16 
            480     2.67471e-15 
            490     9.31154e-15 
            500     3.07758e-14 
            506     6.05581e-14 
            512      1.2116e-13 
            520     2.91213e-13 
            530     8.38273e-13 
            540     2.31632e-12 
            550     6.15794e-12 
            560     1.57828e-11 
            570     3.90783e-11 
            580     9.36347e-11 
            590     2.17488e-10 
            600     4.90502e-10 
            610      1.07562e-9 
            620      2.29664e-9 
            630      4.78111e-9 
            640      9.71531e-9 
            650      1.92939e-8 
            658      3.28765e-8 
            665       5.1831e-8 
            675      9.76086e-8 
            685       1.8027e-7 
            695      3.26747e-7 
            705      5.81749e-7 
            716      1.07583e-6 
            726      1.84928e-6 
            735      2.97109e-6 
            745      4.96018e-6 
            755      8.16211e-6 
            765      1.32455e-5 
            775      2.12104e-5 
            785       3.3532e-5 
            795      5.23621e-5 
            805      8.08019e-5 
            815      0.00012328 
            825     0.000186028 
            835     0.000277755 
            845     0.000410515 
            855     0.000600788 
            865      0.00087095 
            875       0.0012511 
            885      0.00178142 
            895      0.00251498 
            905      0.00352142 
            915      0.00873759 
            925       0.0377832 
            935        0.050561 
            945       0.0840383 
            955        0.143025 
            965        0.115678 
            975       0.0763505 
            985        0.357414 
            995        0.416751 
           1005        0.372393 
           1015        0.231934 
           1025        0.561316 
           1035        0.464219 
           1045         1.15676 
           1055         1.98833 
           1065         2.92821 
           1075         3.74765 
           1085         4.55989 
           1095         5.09061 
           1105         4.65426 
           1115         4.14085 
           1125         3.78448 
           1135         3.52654 
           1145         3.30688 
           1155         3.21005 
           1165         3.18737 
           1175         3.07878 
           1185         21.9458 
           1195         6.19166 
           1205          6.0587 
           1215          6.2993 
           1225         8.35539 
           1235         11.7473 
           1245         5.87324 
           1255         9.16263 
           1265         12.5217 
           1275         15.6916 
           1285         19.4876 
           1295         24.1692 
           1305         28.9257 
           1315         36.4829 
           1325         44.0112 
           1335         54.2299 
           1345         69.1911 
           1355         85.2636 
           1365         105.866 
           1375         130.696 
           1385         161.281 
           1395         199.436 
           1405         245.787 
           1415         302.215 
           1425         371.345 
           1435         455.648 
           1442         534.069 
           1447         596.057 
           1455         706.043 
           1465          880.78 
           1475          1121.5 
           1485         1431.24 
           1495         1368.67 
           1505         1537.24 
           1512         1679.52 
           1517         1828.24 
           1525         1981.96 
           1535         2231.38 
           1545         2555.33 
           1555         2851.93 
           1565         3144.61 
           1575         3595.34 
           1585         4012.74 
           1595         4475.84 
           1605         4952.42 
           1615         5374.72 
           1625         5853.05 
           1635         6498.28 
           1645          7858.2 
           1655         10362.2 
           1665         20585.3 
           1672         27409.9 
           1677         38497.7 
           1685           55953 
           1695         80234.9 
           1705          106193 
           1715          136207 
           1725          157598 
           1735          185184 
           1745          199040 
           1755          225314 
           1765          230580 
           1775          259485 
           1785          280080 
           1795          312056 
           1805          320761 
           1815          345323 
           1825          355371 
           1835          391003 
           1845          394213 
           1855          433285 
           1865          465173 
           1875          489115 
           1885          518015 
           1895          543301 
           1905          548688 
           1915          593300 
           1925          633663 
           1935          644899 
           1945          696701 
           1955          723677 
           1967          767414 
           1976          775481 
           1984          798613 
           1995          842941 
           2005          860034 
           2015          883511 
           2025          900972 
           2035          967472 
           2045      1.00073e+6 
           2055      1.00868e+6 
           2065      1.04638e+6 
           2074      1.11158e+6 
           2078      1.12292e+6 
           2085      1.13897e+6 
           2095      1.16572e+6 
           2105       1.1999e+6 
           2115      1.24054e+6 
           2125      1.26902e+6 
           2135      1.27113e+6 
           2145      1.33889e+6 
           2155      1.36868e+6 
           2165      1.37809e+6 
           2175      1.42756e+6 
           2185      1.47134e+6 
           2195      1.54077e+6 
           2205       1.5496e+6 
           2215      1.52965e+6 
           2225       1.5931e+6 
           2235      1.68808e+6 
           2245      1.69355e+6 
           2255      1.68272e+6 
           2265      1.68919e+6 
           2275      1.79564e+6 
           2285      1.83926e+6 
           2295       1.8418e+6 
           2305       1.9025e+6 
           2315      1.92743e+6 
           2325      1.96532e+6 
           2335      1.97802e+6 
           2345      1.92358e+6 
           2355      2.07513e+6 
           2365      2.01855e+6 
           2375      2.12361e+6 
           2385      2.00418e+6 
           2395      2.16868e+6 
           2405      2.19582e+6 
           2415      2.23936e+6 
           2425      2.36751e+6 
           2435      2.35795e+6 
           2445      2.42642e+6 
           2455      2.45676e+6 
           2465      2.45237e+6 
           2475      2.46537e+6 
           2485      2.51451e+6 
           2495      2.52992e+6 
           2505      2.64616e+6 
           2513      2.57786e+6 
           2518      2.58658e+6 
           2525      2.56062e+6 
           2535      2.59557e+6 
           2545      2.67228e+6 
           2555      2.80307e+6 
           2565      2.81807e+6 
           2575      2.90179e+6 
           2585      2.94834e+6 
           2595      2.95531e+6 
           2605      2.95093e+6 
           2615      2.97605e+6 
           2625      3.03002e+6 
           2635      3.09182e+6 
           2645      3.26966e+6 
           2655      3.29099e+6 
           2665      3.24835e+6 
           2675      3.31698e+6 
           2685       3.3925e+6 
           2695      3.39289e+6 
           2705      3.44734e+6 
           2715      3.39751e+6 
           2725      3.44274e+6 
           2735      3.50796e+6 
           2745       3.3688e+6 
           2755      3.43979e+6 
           2765      3.55653e+6 
           2775      3.68059e+6 
           2785      3.69608e+6 
           2795      3.24255e+6 
           2805      3.47779e+6 
           2815       3.8637e+6 
           2825      3.89143e+6 
           2835      3.86829e+6 
           2845      3.90231e+6 
           2855      3.84738e+6 
           2865       3.9058e+6 
           2875      3.97042e+6 
           2885      4.01867e+6 
           2895      4.09888e+6 
           2910      4.17351e+6 
           2930      4.18734e+6 
           2950      4.22517e+6 
           2970       4.3076e+6 
           2990      4.37153e+6 
           3010      4.45209e+6 
           3030      4.51415e+6 
           3050      4.57623e+6 
           3070      4.58675e+6 
           3090      4.68658e+6 
           3110      4.73478e+6 
           3130      4.78521e+6 
           3150      4.83512e+6 
           3170      4.89052e+6 
           3190      4.89899e+6 
           3210       4.9767e+6 
           3230      4.96617e+6 
           3250      5.06003e+6 
           3270      5.15229e+6 
           3290       5.2207e+6 
           3310      5.26921e+6 
           3330      5.26488e+6 
           3350      5.27169e+6 
           3370        5.342e+6 
           3390      5.37848e+6 
           3410      5.47756e+6 
           3430       5.5189e+6 
           3450      5.54024e+6 
           3470      5.57699e+6 
           3490      5.62739e+6 
           3510      5.67658e+6 
           3530      5.72007e+6 
           3550      5.76072e+6 
           3570       5.7673e+6 
           3590      5.80524e+6 
           3610      5.84169e+6 
           3630      5.87756e+6 
           3640      5.88995e+6 
           3650       5.9304e+6 
           3670      5.96187e+6 
           3690      6.60683e+6 
           3710      8.59295e+6 
           3730      1.10569e+7 
           3750      1.41179e+7 
           3770      1.44387e+7 
           3790      1.58226e+7 
           3810      1.72937e+7 
           3830      1.49709e+7 
           3850      1.80807e+7 
           3870      1.86972e+7 
           3890      1.43924e+7 
           3910      1.85591e+7 
           3930      1.82727e+7 
           3950      1.85357e+7 
           3970      1.40333e+7 
           3990      1.82611e+7 
           4010      1.85292e+7 
           4030      1.84624e+7 
           4050      1.83687e+7 
           4070      1.81384e+7 
           4090      1.69946e+7 
           4110      1.45028e+7 
           4130       1.7893e+7 
           4150        1.792e+7 
           4170      1.78519e+7 
           4190      1.77641e+7 
           4210      1.76561e+7 
           4230      1.75457e+7 
           4250      1.74729e+7 
           4270       1.7382e+7 
           4290      1.72604e+7 
           4310      1.70454e+7 
           4330      1.56395e+7 
           4350      1.40369e+7 
           4370      1.68076e+7 
           4390      1.67815e+7 
           4410      1.67265e+7 
           4430       1.6667e+7 
           4450      1.65639e+7 
           4470      1.64786e+7 
           4490      1.63955e+7 
           4510      1.62993e+7 
           4530      1.62064e+7 
           4550      1.60991e+7 
           4570      1.60262e+7 
           4590      1.59437e+7 
           4610      1.58629e+7 
           4630      1.57704e+7 
           4650      1.56851e+7 
           4670      1.55971e+7 
           4690      1.55106e+7 
           4710      1.54193e+7 
           4730      1.53356e+7 
           4750        1.525e+7 
           4770       1.5163e+7 
           4790      1.50768e+7 
           4810      1.49678e+7 
           4830      1.48141e+7 
           4850      1.38284e+7 
           4870      1.20881e+7 
           4890      1.45153e+7 
           4910      1.45406e+7 
           4930      1.44754e+7 
           4950      1.44057e+7 
           4970      1.43263e+7 
           4990      1.42438e+7 
           5010      1.41567e+7 
           5030      1.40832e+7 
           5050      1.40022e+7 
           5070      1.39228e+7 
           5090      1.38427e+7 
           5110      1.37634e+7 
           5130      1.36834e+7 
           5150      1.36043e+7 
           5170      1.34877e+7 
           5190      1.34281e+7 
           5210      1.33695e+7 
           5230      1.32887e+7 
           5250      1.32207e+7 
           5270      1.31371e+7 
           5290      1.30692e+7 
           5310      1.29931e+7 
           5330      1.29159e+7 
           5350      1.28466e+7 
           5370      1.27715e+7 
           5390      1.26986e+7 
           5410      1.26256e+7 
           5430      1.25528e+7 
           5450      1.24813e+7 
           5470       1.2411e+7 
           5490      1.23404e+7 
           5510      1.22696e+7 
           5530      1.21981e+7 
           5550      1.21295e+7 
           5570      1.20598e+7 
           5590      1.19899e+7 
           5610      1.19217e+7 
           5630      1.18541e+7 
           5650      1.17862e+7 
           5670      1.17183e+7 
           5690      1.16523e+7 
           5710      1.15859e+7 
           5730      1.15189e+7 
           5750      1.14537e+7 
           5770       1.1388e+7 
           5790       1.1323e+7 
           5810      1.12585e+7 
           5830      1.11947e+7 
           5850      1.11304e+7 
           5870      1.10667e+7 
           5890      1.09993e+7 
           5910      1.09412e+7 
           5930      1.08793e+7 
           5950      1.08169e+7 
           5970      1.07562e+7 
           5990       1.0695e+7 
           6010      1.06333e+7 
           6030      1.05732e+7 
           6050      1.05137e+7 
           6070      1.04538e+7 
           6090      1.03944e+7 
           6110      1.03355e+7 
           6130      1.02772e+7 
           6150      1.02184e+7 
           6170      1.01602e+7 
           6190      1.01045e+7 
           6210      1.00473e+7 
           6230      9.99069e+6 
           6250       9.9336e+6 
           6270        9.878e+6 
           6290       9.8229e+6 
           6310      9.76735e+6 
           6330      9.71231e+6 
           6350      9.65776e+6 
           6370      9.60371e+6 
           6390      9.55015e+6 
           6410      9.49615e+6 
           6430      9.44354e+6 
           6450       9.3896e+6 
           6470      9.33704e+6 
           6490      9.28405e+6 
           6510      9.21732e+6 
           6530      9.12383e+6 
           6550      8.71854e+6 
           6570      7.40308e+6 
           6590      8.91508e+6 
           6610      8.94829e+6 
           6630      8.92696e+6 
           6650      8.87845e+6 
           6670      8.82868e+6 
           6690      8.77933e+6 
           6710      8.73042e+6 
           6730      8.68194e+6 
           6750      8.63387e+6 
           6770      8.58622e+6 
           6790      8.53817e+6 
           6810      8.49134e+6 
           6830      8.44411e+6 
           6850      8.39728e+6 
           6870      8.35085e+6 
           6890      8.30482e+6 
           6910      8.25918e+6 
           6930      8.21393e+6 
           6950      8.16829e+6 
           6970      8.12303e+6 
           6990      8.07893e+6 
           7010      8.03442e+6 
           7030       7.9903e+6 
           7050      7.94654e+6 
           7070       7.9024e+6 
           7090      7.85938e+6 
           7110      7.81597e+6 
           7130      7.77293e+6 
           7150      7.73024e+6 
           7170      7.68791e+6 
           7190      7.64593e+6 
           7210      7.60429e+6 
           7230        7.563e+6 
           7250      7.52133e+6 
           7270      7.48072e+6 
           7290      7.43973e+6 
           7310      7.39907e+6 
           7330      7.35875e+6 
           7350      7.31876e+6 
           7370      7.27909e+6 
           7390      7.23905e+6 
           7410      7.20003e+6 
           7430      7.16064e+6 
           7450      7.12224e+6 
           7470      7.08348e+6 
           7490      7.04503e+6 
           7510      7.00689e+6 
           7530      6.96905e+6 
           7550      6.93152e+6 
           7570      6.89428e+6 
           7590      6.85669e+6 
           7610      6.82004e+6 
           7630      6.78304e+6 
           7650      6.74698e+6 
           7670      6.71056e+6 
           7690      6.67442e+6 
           7710      6.63857e+6 
           7730      6.60301e+6 
           7750      6.56771e+6 
           7770      6.53145e+6 
           7790      6.49734e+6 
           7810      6.46287e+6 
           7830      6.42805e+6 
           7850      6.39411e+6 
           7870      6.35983e+6 
           7890      6.32581e+6 
           7910      6.29206e+6 
           7930      6.25856e+6 
           7950      6.22533e+6 
           7970      6.19234e+6 
           7990      6.15961e+6 
           8010      6.12654e+6 
           8030      6.09431e+6 
           8050      6.06174e+6 
           8070      6.02999e+6 
           8090      5.99791e+6 
           8110      5.96608e+6 
           8130      5.93505e+6 
           8150      5.90369e+6 
           8170      5.87256e+6 
           8190      5.84111e+6 
           8210      5.81548e+6 
           8230      5.78613e+6 
           8250      5.75756e+6 
           8270      5.72644e+6 
           8290      5.69446e+6 
           8310      5.65453e+6 
           8330      5.61764e+6 
           8350      5.60049e+6 
           8370      5.51944e+6 
           8390      5.51831e+6 
           8410      5.47985e+6 
           8430      5.53021e+6 
           8450      5.49246e+6 
           8470      5.36205e+6 
           8490      5.57044e+6 
           8510      5.27899e+6 
           8530      5.56906e+6 
           8550      5.18952e+6 
           8570      5.57157e+6 
           8590      5.41904e+6 
