# Kurucz ODFNEW /NOVER (2003)
# teff = 7500 K (value for the effective temperature for the model. Temperatures are given in K)
# logg = 0.5 log(cm/s2) (value for Log(G) for the model.)
# meta = -1  (value for the Metallicity for the model.)
# lh = 1.25  (l/Hp where l is the  mixing length of the convective element and Hp is the pressure scale height)
# vtur = 2 km/s (Microturbulence velocity)
# alpha = 0.4  (Alpha)
#
# column 1: WAVELENGTH (ANGSTROM), Wavelength in Angstrom
# column 2: FLUX (ERG/CM2/S/A), Flux in erg/cm2/s/A
            385     2.02584e-23 
            395     1.80581e-22 
            405     1.27458e-21 
            414     6.73249e-21 
            422     2.77717e-20 
            430     1.08487e-19 
            441     6.49859e-19 
            451     3.05864e-18 
            460     1.16167e-17 
            470     4.80897e-17 
            480      1.8722e-16 
            490     6.88124e-16 
            500       2.396e-15 
            506     4.86325e-15 
            512     1.00195e-14 
            520      2.5021e-14 
            530     7.54277e-14 
            540     2.17911e-13 
            550      6.0471e-13 
            560      1.6154e-12 
            570     4.16258e-12 
            580     1.03664e-11 
            590     2.49934e-11 
            600      5.8436e-11 
            610     1.32691e-10 
            620     2.93043e-10 
            630     6.30312e-10 
            640      1.32205e-9 
            650      2.70719e-9 
            658      4.72448e-9 
            665      7.60197e-9 
            675      1.47293e-8 
            685      2.79642e-8 
            695       5.2064e-8 
            705      9.51402e-8 
            716      1.80907e-7 
            726      3.18701e-7 
            735      5.23178e-7 
            745      8.94064e-7 
            755      1.50493e-6 
            765      2.49679e-6 
            775      4.08521e-6 
            785      6.59525e-6 
            795      1.05116e-5 
            805      1.65481e-5 
            815      2.57428e-5 
            825      3.95906e-5 
            835      6.02194e-5 
            845      9.06229e-5 
            855     0.000134994 
            865     0.000199108 
            875     0.000290883 
            885     0.000421061 
            895     0.000604112 
            905     0.000859276 
            915       0.0550948 
            925        0.203866 
            935        0.253779 
            945        0.355866 
            955        0.521706 
            965        0.655982 
            975         0.67196 
            985         1.09246 
            995         1.30817 
           1005         1.73646 
           1015         1.91289 
           1025         2.13787 
           1035         3.40132 
           1045         4.37541 
           1055         5.43521 
           1065         6.45395 
           1075         8.05341 
           1085         9.78893 
           1095         11.3953 
           1105         35.7037 
           1115         105.229 
           1125         138.726 
           1135          167.32 
           1145         180.683 
           1155         167.407 
           1165           177.1 
           1175         156.127 
           1185         314.159 
           1195         42.7638 
           1205         28.1997 
           1215         7.13916 
           1225         33.2614 
           1235         91.0464 
           1245         215.026 
           1255         405.928 
           1265         536.882 
           1275         911.242 
           1285         1434.59 
           1295         1972.53 
           1305         1819.56 
           1315         3214.96 
           1325         4493.39 
           1335         5485.98 
           1345         8330.42 
           1355         10134.8 
           1365           12677 
           1375         16401.8 
           1385         21065.3 
           1395         28008.5 
           1405           37369 
           1415         42669.9 
           1425         59087.5 
           1435         62337.4 
           1442         78809.4 
           1447         93917.5 
           1455          121118 
           1465          129003 
           1475          141764 
           1485          171552 
           1495          211640 
           1505          242535 
           1512          236652 
           1517          271732 
           1525          300784 
           1535          892936 
           1545       2.0162e+6 
           1555      1.89952e+6 
           1565      1.74012e+6 
           1575      2.39755e+6 
           1585      2.69475e+6 
           1595      3.42992e+6 
           1605      3.06543e+6 
           1615       2.9415e+6 
           1625      2.69512e+6 
           1635      3.07319e+6 
           1645      3.55982e+6 
           1655      2.45319e+6 
           1665      3.60922e+6 
           1672      1.52628e+6 
           1677      3.83303e+6 
           1685      4.69859e+6 
           1695      4.70167e+6 
           1705      4.37155e+6 
           1715      5.00995e+6 
           1725       5.1132e+6 
           1735      5.80871e+6 
           1745      5.44936e+6 
           1755       6.4841e+6 
           1765      5.51896e+6 
           1775      6.35147e+6 
           1785      6.07052e+6 
           1795      7.47385e+6 
           1805      6.59665e+6 
           1815      7.08235e+6 
           1825       6.3618e+6 
           1835      6.29198e+6 
           1845      5.95514e+6 
           1855      6.46107e+6 
           1865      6.63057e+6 
           1875      6.84015e+6 
           1885       7.0693e+6 
           1895      7.25548e+6 
           1905      6.64551e+6 
           1915      7.32199e+6 
           1925      7.65287e+6 
           1935      6.93678e+6 
           1945      8.01593e+6 
           1955      8.07183e+6 
           1967      8.38406e+6 
           1976      8.17857e+6 
           1984      8.03905e+6 
           1995      7.86441e+6 
           2005      7.74905e+6 
           2015      7.40353e+6 
           2025      7.18075e+6 
           2035      7.86931e+6 
           2045      8.38763e+6 
           2055      7.61108e+6 
           2065      7.55266e+6 
           2074      8.70796e+6 
           2078      9.02894e+6 
           2085       8.7327e+6 
           2095        8.454e+6 
           2105      8.06737e+6 
           2115       8.1357e+6 
           2125      8.32478e+6 
           2135      6.58616e+6 
           2145      7.84995e+6 
           2155      8.07855e+6 
           2165      7.62175e+6 
           2175      7.64381e+6 
           2185      7.79842e+6 
           2195      8.51507e+6 
           2205      8.15287e+6 
           2215      7.24937e+6 
           2225      7.17081e+6 
           2235      8.41664e+6 
           2245      7.50988e+6 
           2255       7.1516e+6 
           2265      7.16577e+6 
           2275      7.97041e+6 
           2285      8.27384e+6 
           2295      7.67045e+6 
           2305      7.88838e+6 
           2315       7.6594e+6 
           2325      7.46612e+6 
           2335      6.36351e+6 
           2345      5.39435e+6 
           2355      7.35522e+6 
           2365      5.58679e+6 
           2375      6.82847e+6 
           2385      4.78132e+6 
           2395      5.87934e+6 
           2405      5.58012e+6 
           2415      6.22322e+6 
           2425      7.72534e+6 
           2435      7.51206e+6 
           2445      8.00405e+6 
           2455      7.75958e+6 
           2465      7.69303e+6 
           2475      7.29212e+6 
           2485      7.77956e+6 
           2495      7.59084e+6 
           2505      8.72508e+6 
           2513      7.47294e+6 
           2518      7.79089e+6 
           2525      7.00382e+6 
           2535      6.77691e+6 
           2545      6.99305e+6 
           2555      7.63959e+6 
           2565      7.39462e+6 
           2575      8.11966e+6 
           2585      7.86471e+6 
           2595      7.48197e+6 
           2605      6.93111e+6 
           2615      6.73661e+6 
           2625      7.83734e+6 
           2635      8.28148e+6 
           2645      1.01419e+7 
           2655      1.00593e+7 
           2665      8.99889e+6 
           2675      9.47717e+6 
           2685      9.43911e+6 
           2695      9.00766e+6 
           2705      9.26143e+6 
           2715      8.57645e+6 
           2725      8.74395e+6 
           2735      9.53933e+6 
           2745      7.13609e+6 
           2755      7.74502e+6 
           2765      8.22177e+6 
           2775       9.1846e+6 
           2785      8.09148e+6 
           2795      3.40227e+6 
           2805      4.35445e+6 
           2815        9.079e+6 
           2825      9.94006e+6 
           2835      9.71398e+6 
           2845       9.4587e+6 
           2855      8.91512e+6 
           2865        9.826e+6 
           2875      9.55904e+6 
           2885      9.84775e+6 
           2895       9.4481e+6 
           2910      1.07452e+7 
           2930      1.04015e+7 
           2950      1.04186e+7 
           2970      1.08258e+7 
           2990      1.10055e+7 
           3010      1.12947e+7 
           3030      1.12655e+7 
           3050      1.11798e+7 
           3070      1.10602e+7 
           3090      1.14884e+7 
           3110      1.11693e+7 
           3130      1.11736e+7 
           3150      1.15249e+7 
           3170      1.15817e+7 
           3190       1.1036e+7 
           3210      1.14787e+7 
           3230      1.11929e+7 
           3250      1.15275e+7 
           3270      1.16141e+7 
           3290      1.18827e+7 
           3310       1.2061e+7 
           3330       1.1796e+7 
           3350      1.16223e+7 
           3370      1.17193e+7 
           3390      1.18132e+7 
           3410      1.21986e+7 
           3430      1.23568e+7 
           3450       1.2294e+7 
           3470       1.2142e+7 
           3490      1.21063e+7 
           3510      1.24164e+7 
           3530      1.25999e+7 
           3550      1.27223e+7 
           3570      1.24279e+7 
           3590        1.245e+7 
           3610      1.25599e+7 
           3630      1.26311e+7 
           3640      1.24822e+7 
           3650      1.28222e+7 
           3670      1.29052e+7 
           3690      1.47595e+7 
           3710      2.12824e+7 
           3730      3.71262e+7 
           3750      4.75543e+7 
           3770      4.73798e+7 
           3790      5.16308e+7 
           3810      5.56552e+7 
           3830       4.7114e+7 
           3850      5.61161e+7 
           3870      5.65035e+7 
           3890      4.70212e+7 
           3910      5.48359e+7 
           3930      4.46249e+7 
           3950      5.47208e+7 
           3970      4.12753e+7 
           3990      5.46751e+7 
           4010      5.42787e+7 
           4030      5.35627e+7 
           4050      5.33083e+7 
           4070       5.2606e+7 
           4090      5.21851e+7 
           4110      4.36675e+7 
           4130      5.14265e+7 
           4150      5.16692e+7 
           4170      5.00222e+7 
           4190      5.01123e+7 
           4210      4.97754e+7 
           4230       4.9148e+7 
           4250      4.87303e+7 
           4270      4.82397e+7 
           4290      4.75781e+7 
           4310      4.57727e+7 
           4330      4.44707e+7 
           4350      3.94458e+7 
           4370      4.63867e+7 
           4390      4.50638e+7 
           4410      4.42899e+7 
           4430      4.51425e+7 
           4450       4.4515e+7 
           4470       4.4176e+7 
           4490      4.35984e+7 
           4510       4.3557e+7 
           4530      4.27125e+7 
           4550       4.1639e+7 
           4570      4.24046e+7 
           4590      4.14905e+7 
           4610      4.22622e+7 
           4630      4.11123e+7 
           4650      4.13466e+7 
           4670      4.09051e+7 
           4690      4.05912e+7 
           4710      3.95374e+7 
           4730       3.9884e+7 
           4750      3.97058e+7 
           4770      3.91302e+7 
           4790      3.87368e+7 
           4810      3.83713e+7 
           4830      3.79799e+7 
           4850      3.57374e+7 
           4870      2.98611e+7 
           4890      3.68693e+7 
           4910      3.66836e+7 
           4930      3.59696e+7 
           4950      3.60609e+7 
           4970      3.58612e+7 
           4990       3.5299e+7 
           5010      3.44158e+7 
           5030      3.46058e+7 
           5050      3.42347e+7 
           5070      3.41029e+7 
           5090      3.38238e+7 
           5110      3.34961e+7 
           5130      3.29763e+7 
           5150      3.26667e+7 
           5170      3.19042e+7 
           5190      3.15399e+7 
           5210      3.17396e+7 
           5230      3.11158e+7 
           5250      3.12796e+7 
           5270      3.03902e+7 
           5290      3.07101e+7 
           5310      3.01064e+7 
           5330      2.97974e+7 
           5350      2.99936e+7 
           5370      2.95916e+7 
           5390      2.92777e+7 
           5410      2.90115e+7 
           5430      2.86678e+7 
           5450      2.86163e+7 
           5470      2.83584e+7 
           5490      2.81021e+7 
           5510      2.78389e+7 
           5530      2.74618e+7 
           5550      2.74146e+7 
           5570      2.71392e+7 
           5590      2.68838e+7 
           5610      2.66662e+7 
           5630      2.64438e+7 
           5650      2.61271e+7 
           5670      2.59103e+7 
           5690      2.57354e+7 
           5710      2.55081e+7 
           5730      2.52982e+7 
           5750      2.50587e+7 
           5770      2.48479e+7 
           5790      2.46159e+7 
           5810      2.44021e+7 
           5830      2.41817e+7 
           5850      2.39748e+7 
           5870      2.37505e+7 
           5890      2.33701e+7 
           5910      2.33438e+7 
           5930      2.31384e+7 
           5950      2.29097e+7 
           5970      2.27385e+7 
           5990      2.24893e+7 
           6010      2.23304e+7 
           6030      2.21432e+7 
           6050      2.19425e+7 
           6070      2.17674e+7 
           6090      2.15699e+7 
           6110      2.13754e+7 
           6130       2.1178e+7 
           6150      2.08184e+7 
           6170      2.08033e+7 
           6190      2.06652e+7 
           6210      2.04893e+7 
           6230       2.0291e+7 
           6250      1.99521e+7 
           6270      1.99764e+7 
           6290      1.98048e+7 
           6310       1.9599e+7 
           6330      1.94622e+7 
           6350      1.91726e+7 
           6370       1.9032e+7 
           6390       1.8973e+7 
           6410      1.87787e+7 
           6430      1.86493e+7 
           6450      1.83726e+7 
           6470      1.83492e+7 
           6490      1.81128e+7 
           6510      1.79608e+7 
           6530      1.77644e+7 
           6550      1.65953e+7 
           6570      1.31849e+7 
           6590      1.71847e+7 
           6610      1.72275e+7 
           6630      1.71614e+7 
           6650      1.70405e+7 
           6670      1.68978e+7 
           6690      1.67624e+7 
           6710      1.66275e+7 
           6730      1.64814e+7 
           6750        1.635e+7 
           6770      1.62346e+7 
           6790      1.60958e+7 
           6810      1.59729e+7 
           6830      1.58303e+7 
           6850      1.57131e+7 
           6870      1.55914e+7 
           6890      1.54669e+7 
           6910      1.53436e+7 
           6930      1.52198e+7 
           6950      1.51012e+7 
           6970      1.49797e+7 
           6990      1.48641e+7 
           7010      1.47088e+7 
           7030      1.46275e+7 
           7050      1.45143e+7 
           7070      1.44014e+7 
           7090      1.42918e+7 
           7110       1.4137e+7 
           7130      1.40615e+7 
           7150      1.39483e+7 
           7170      1.38472e+7 
           7190      1.37345e+7 
           7210      1.36251e+7 
           7230      1.35124e+7 
           7250      1.34186e+7 
           7270      1.33227e+7 
           7290      1.32093e+7 
           7310      1.30955e+7 
           7330      1.30088e+7 
           7350      1.29123e+7 
           7370       1.2827e+7 
           7390      1.27246e+7 
           7410      1.26169e+7 
           7430      1.25156e+7 
           7450      1.24268e+7 
           7470      1.23151e+7 
           7490      1.22393e+7 
           7510      1.21488e+7 
           7530      1.20691e+7 
           7550      1.19854e+7 
           7570       1.1886e+7 
           7590      1.18071e+7 
           7610      1.17198e+7 
           7630      1.16332e+7 
           7650      1.15389e+7 
           7670      1.14551e+7 
           7690      1.13733e+7 
           7710      1.12758e+7 
           7730      1.12105e+7 
           7750      1.11277e+7 
           7770      1.08383e+7 
           7790      1.09684e+7 
           7810      1.08869e+7 
           7830       1.0805e+7 
           7850      1.07194e+7 
           7870      1.06224e+7 
           7890      1.05275e+7 
           7910      1.04924e+7 
           7930       1.0415e+7 
           7950      1.03269e+7 
           7970      1.02763e+7 
           7990      1.01429e+7 
           8010      1.01287e+7 
           8030      1.00549e+7 
           8050      9.98469e+6 
           8070      9.91328e+6 
           8090       9.8436e+6 
           8110      9.77392e+6 
           8130      9.70708e+6 
           8150      9.63908e+6 
           8170      9.57106e+6 
           8190      9.46933e+6 
           8210       9.4512e+6 
           8230      9.38641e+6 
           8250      9.30497e+6 
           8270      9.28922e+6 
           8290      9.20279e+6 
           8310      9.08544e+6 
           8330      8.95826e+6 
           8350      9.02562e+6 
           8370        8.754e+6 
           8390      8.89534e+6 
           8410      8.87173e+6 
           8430      9.16631e+6 
           8450      9.00426e+6 
           8470      8.77274e+6 
           8490      9.56143e+6 
           8510       8.6322e+6 
           8530      9.73654e+6 
           8550      8.32435e+6 
           8570      9.94748e+6 
           8590      9.48919e+6 
           8610      9.22308e+6 
           8630      1.02042e+7 
           8650      1.00664e+7 
           8670      8.26792e+6 
           8690      9.94553e+6 
           8710      9.99525e+6 
           8730       9.8724e+6 
           8750      8.32261e+6 
           8770      9.66548e+6 
           8790       9.7254e+6 
           8810      9.62499e+6 
           8830      9.55487e+6 
           8850      9.30394e+6 
           8870      8.04293e+6 
           8890      9.35101e+6 
           8910       9.2621e+6 
           8930      9.19137e+6 
           8950      9.20066e+6 
           8970      9.13486e+6 
           8990      9.03553e+6 
           9010      7.83947e+6 
           9030      8.56757e+6 
           9050      8.87334e+6 
           9070      8.71931e+6 
           9090      8.59025e+6 
           9110      8.64971e+6 
           9130      8.63852e+6 
           9150       8.5891e+6 
           9170      8.52524e+6 
           9190      8.45562e+6 
           9210      8.29458e+6 
           9230      6.96963e+6 
           9250      8.09883e+6 
           9270      8.07137e+6 
           9290      8.18507e+6 
           9310      8.13299e+6 
           9330      8.07349e+6 
           9350      8.02348e+6 
           9370      7.97167e+6 
           9390      7.90442e+6 
           9410      7.76024e+6 
           9430      7.78963e+6 
           9450      7.75417e+6 
           9470       7.7059e+6 
