# Kurucz ODFNEW /NOVER (2003)
# teff = 25000 K (value for the effective temperature for the model. Temperatures are given in K)
# logg = 4 log(cm/s2) (value for Log(G) for the model.)
# meta = 0.2  (value for the Metallicity for the model.)
# lh = 1.25  (l/Hp where l is the  mixing length of the convective element and Hp is the pressure scale height)
# vtur = 2 km/s (Microturbulence velocity)
# alpha = 0  (Alpha)
#
# column 1: WAVELENGTH (ANGSTROM), Wavelength in Angstrom
# column 2: FLUX (ERG/CM2/S/A), Flux in erg/cm2/s/A
          147.2     2.99536e-14 
            151      1.2491e-13 
          155.2     5.60862e-13 
          158.8     1.91611e-12 
            162     5.47825e-12 
            166      1.9315e-11 
          170.3     7.02407e-11 
          173.4     1.72367e-10 
          176.8     4.45629e-10 
          180.2      1.11455e-9 
          181.7      1.65207e-9 
          186.1      5.07684e-9 
            191      1.67654e-8 
          193.9      3.31045e-8 
          198.4      9.17204e-8 
          201.8      1.92614e-7 
            205      3.79159e-7 
          210.5      1.16172e-6 
          216.2      3.50234e-6 
          219.8        6.838e-6 
            223      1.21832e-5 
          226.8      2.37375e-5 
            230      0.00173545 
            234      0.00394845 
            240      0.00914485 
          246.5       0.0219116 
          252.4       0.0470798 
          256.8       0.0772354 
            260        0.126606 
            264        0.199348 
          268.5        0.331516 
          273.5        0.567797 
          278.5        0.955008 
            284         1.78453 
            290         3.14343 
            296         5.45298 
            301         8.38442 
            308         15.7722 
            318         37.2419 
            328         76.6982 
            338         161.328 
            348         313.786 
            357         1206.76 
            366         2305.53 
            375         3496.32 
            385         5818.24 
            395         10428.2 
            405         15861.6 
            414         23573.6 
            422           32851 
            430         46823.2 
            441         70374.9 
            451         96650.8 
            460          128029 
            470          180741 
            480          245757 
            490          333894 
            500          438438 
            506      2.16883e+6 
            512      1.88735e+7 
            520      2.10587e+7 
            530      2.40334e+7 
            540      2.55843e+7 
            550      3.74264e+7 
            560      4.44423e+7 
            570      5.24777e+7 
            580      5.02582e+7 
            590      6.55072e+7 
            600      7.21081e+7 
            610      8.45257e+7 
            620      9.26143e+7 
            630      9.62089e+7 
            640      8.61723e+7 
            650      6.09847e+7 
            658       9.6496e+7 
            665      1.22894e+8 
            675      1.33403e+8 
            685      1.35566e+8 
            695      1.79932e+8 
            705      1.80988e+8 
            716      2.05731e+8 
            726      2.11731e+8 
            735        2.189e+8 
            745      2.49967e+8 
            755      2.65556e+8 
            765      2.84569e+8 
            775      3.03221e+8 
            785      3.24114e+8 
            795      3.34745e+8 
            805      3.45665e+8 
            815      3.54244e+8 
            825      3.86989e+8 
            835      3.35619e+8 
            845      3.95104e+8 
            855      4.01242e+8 
            865      4.28164e+8 
            875      4.55707e+8 
            885      4.92878e+8 
            895      5.14424e+8 
            905      5.04958e+8 
            915      7.11724e+8 
            925      4.87453e+9 
            935     1.13925e+10 
            945     2.12806e+10 
            955     2.65302e+10 
            965     2.97136e+10 
            975       4.7191e+9 
            985     2.26797e+10 
            995     2.34841e+10 
           1005     2.85785e+10 
           1015     2.93529e+10 
           1025     1.61187e+10 
           1035     2.27372e+10 
           1045     3.53262e+10 
           1055      3.2134e+10 
           1065     2.52296e+10 
           1075      2.9415e+10 
           1085     2.60434e+10 
           1095     2.95436e+10 
           1105     2.64535e+10 
           1115     2.52033e+10 
           1125      1.9468e+10 
           1135     2.67022e+10 
           1145     2.41766e+10 
           1155     2.46587e+10 
           1165     2.41847e+10 
           1175     1.30786e+10 
           1185     2.26195e+10 
           1195      2.0873e+10 
           1205     1.35807e+10 
           1215      1.1527e+10 
           1225     1.93533e+10 
           1235     2.24325e+10 
           1245     2.15328e+10 
           1255     2.12044e+10 
           1265     2.17218e+10 
           1275     2.25179e+10 
           1285      2.2381e+10 
           1295     1.51743e+10 
           1305     1.65531e+10 
           1315     2.16688e+10 
           1325     2.00392e+10 
           1335     1.91816e+10 
           1345     1.96623e+10 
           1355     1.92667e+10 
           1365     1.74231e+10 
           1375     1.68215e+10 
           1385      1.6211e+10 
           1395     1.10679e+10 
           1405     1.22367e+10 
           1415     1.40657e+10 
           1425     1.38555e+10 
           1435     1.44859e+10 
           1442     1.48441e+10 
           1447     1.45653e+10 
           1455     1.40024e+10 
           1465     1.26683e+10 
           1475     1.31352e+10 
           1485     1.29676e+10 
           1495     1.26516e+10 
           1505     1.12723e+10 
           1512      9.94332e+9 
           1517      1.0304e+10 
           1525     1.07168e+10 
           1535      8.83375e+9 
           1545      8.42905e+9 
           1555      8.26366e+9 
           1565      9.10574e+9 
           1575       9.7884e+9 
           1585      9.89531e+9 
           1595      9.71179e+9 
           1605      9.96846e+9 
           1615      9.70356e+9 
           1625      9.51744e+9 
           1635     1.02013e+10 
           1645     1.02031e+10 
           1655     1.00609e+10 
           1665     1.02756e+10 
           1672      9.68363e+9 
           1677     1.07969e+10 
           1685     1.03857e+10 
           1695      9.71135e+9 
           1705      9.46494e+9 
           1715      8.85932e+9 
           1725      8.70993e+9 
           1735      9.14245e+9 
           1745       8.9088e+9 
           1755      8.96731e+9 
           1765      8.85607e+9 
           1775      8.20031e+9 
           1785       8.4161e+9 
           1795      8.71417e+9 
           1805      8.80763e+9 
           1815       7.6904e+9 
           1825       8.0735e+9 
           1835      7.79499e+9 
           1845      7.03562e+9 
           1855      7.14598e+9 
           1865      7.24134e+9 
           1875       7.6358e+9 
           1885      6.70171e+9 
           1895      6.20513e+9 
           1905      6.82728e+9 
           1915       6.3284e+9 
           1925      5.96281e+9 
           1935      6.42987e+9 
           1945      6.56539e+9 
           1955       5.8302e+9 
           1967      6.44612e+9 
           1976      6.72909e+9 
           1984      6.20482e+9 
           1995      6.09228e+9 
           2005      6.39433e+9 
           2015      6.28231e+9 
           2025      6.48739e+9 
           2035      5.82985e+9 
           2045      5.99241e+9 
           2055      5.69801e+9 
           2065      5.66663e+9 
           2074      6.02438e+9 
           2078      5.33134e+9 
           2085      5.72578e+9 
           2095      5.41212e+9 
           2105      5.63646e+9 
           2115      5.67205e+9 
           2125      5.70689e+9 
           2135      5.60975e+9 
           2145      5.26845e+9 
           2155      5.53977e+9 
           2165      5.52448e+9 
           2175      5.45915e+9 
           2185      5.22962e+9 
           2195      5.33775e+9 
           2205      5.32408e+9 
           2215      5.21799e+9 
           2225      5.07097e+9 
           2235      4.99289e+9 
           2245      5.04748e+9 
           2255      4.85849e+9 
           2265      4.94111e+9 
           2275      4.85897e+9 
           2285      4.86228e+9 
           2295      4.36187e+9 
           2305      4.67573e+9 
           2315      4.52281e+9 
           2325      4.47479e+9 
           2335       4.3244e+9 
           2345      4.36467e+9 
           2355      4.35051e+9 
           2365      4.30443e+9 
           2375      4.20708e+9 
           2385      4.17572e+9 
           2395      4.13291e+9 
           2405      4.04481e+9 
           2415      4.01894e+9 
           2425        4.012e+9 
           2435       3.8805e+9 
           2445      3.90132e+9 
           2455      3.90798e+9 
           2465      3.82779e+9 
           2475      3.76457e+9 
           2485      3.68828e+9 
           2495      3.12645e+9 
           2505      3.56736e+9 
           2513      3.40843e+9 
           2518      3.55492e+9 
           2525      3.50782e+9 
           2535       3.4656e+9 
           2545      3.33198e+9 
           2555      3.38957e+9 
           2565      3.33851e+9 
           2575      3.35314e+9 
           2585      3.30137e+9 
           2595      3.27122e+9 
           2605      3.24427e+9 
           2615        3.193e+9 
           2625      3.17239e+9 
           2635       3.1451e+9 
           2645      3.10715e+9 
           2655       3.0973e+9 
           2665      2.95507e+9 
           2675      2.97861e+9 
           2685      2.97053e+9 
           2695      2.85396e+9 
           2705      2.78852e+9 
           2715      2.79919e+9 
           2725      2.80086e+9 
           2735      2.78162e+9 
           2745      2.70339e+9 
           2755      2.69716e+9 
           2765      2.66817e+9 
           2775      2.69315e+9 
           2785      2.64509e+9 
           2795      2.54509e+9 
           2805      2.57045e+9 
           2815      2.57627e+9 
           2825      2.53819e+9 
           2835      2.43492e+9 
           2845      2.47107e+9 
           2855      2.42514e+9 
           2865      2.42981e+9 
           2875      2.40227e+9 
           2885      2.37469e+9 
           2895      2.33413e+9 
           2910       2.2878e+9 
           2930      2.26027e+9 
           2950      2.18912e+9 
           2970      2.15974e+9 
           2990      2.10983e+9 
           3010      2.02953e+9 
           3030      2.02762e+9 
           3050      1.99378e+9 
           3070      1.96265e+9 
           3090      1.88067e+9 
           3110      1.87553e+9 
           3130      1.82833e+9 
           3150      1.79957e+9 
           3170      1.75017e+9 
           3190      1.71522e+9 
           3210      1.69344e+9 
           3230      1.65166e+9 
           3250       1.6279e+9 
           3270      1.59004e+9 
           3290      1.55835e+9 
           3310       1.5306e+9 
           3330      1.49688e+9 
           3350      1.47083e+9 
           3370      1.44082e+9 
           3390      1.41908e+9 
           3410       1.3928e+9 
           3430      1.36088e+9 
           3450      1.33081e+9 
           3470      1.30747e+9 
           3490      1.28106e+9 
           3510      1.25998e+9 
           3530      1.24424e+9 
           3550      1.22072e+9 
           3570      1.20362e+9 
           3590      1.16622e+9 
           3610      1.14654e+9 
           3630      1.13103e+9 
           3640      1.13042e+9 
           3650      1.10379e+9 
           3670      1.09188e+9 
           3690      1.06865e+9 
           3710      1.02773e+9 
           3730      9.89311e+8 
           3750      1.03395e+9 
           3770      1.02597e+9 
           3790       1.0702e+9 
           3810      1.10809e+9 
           3830      9.76103e+8 
           3850      1.11744e+9 
           3870      1.10326e+9 
           3890      9.24564e+8 
           3910      1.10172e+9 
           3930      1.06409e+9 
           3950      1.05347e+9 
           3970      8.57919e+8 
           3990      1.01726e+9 
           4010      1.01161e+9 
           4030      9.57011e+8 
           4050      9.76913e+8 
           4070      9.30606e+8 
           4090      8.75179e+8 
           4110      7.86685e+8 
           4130      8.88678e+8 
           4150      8.83414e+8 
           4170      8.79575e+8 
           4190      8.70447e+8 
           4210      8.62791e+8 
           4230      8.42903e+8 
           4250        8.192e+8 
           4270      7.95986e+8 
           4290      7.86964e+8 
           4310       7.6179e+8 
           4330      7.05982e+8 
           4350      6.51126e+8 
           4370      7.24089e+8 
           4390      7.20302e+8 
           4410      7.16611e+8 
           4430      7.09906e+8 
           4450      6.99068e+8 
           4470      6.67712e+8 
           4490      6.77512e+8 
           4510      6.72664e+8 
           4530      6.61157e+8 
           4550      6.52409e+8 
           4570      6.41047e+8 
           4590      6.30287e+8 
           4610      6.14443e+8 
           4630      6.05561e+8 
           4650      5.86651e+8 
           4670      5.88719e+8 
           4690      5.84394e+8 
           4710      5.60965e+8 
           4730      5.62596e+8 
           4750      5.53677e+8 
           4770      5.54177e+8 
           4790      5.43845e+8 
           4810      5.32004e+8 
           4830      5.22262e+8 
           4850      4.91282e+8 
           4870      4.40984e+8 
           4890      5.00797e+8 
           4910      4.95709e+8 
           4930      4.78691e+8 
           4950      4.80058e+8 
           4970      4.77316e+8 
           4990      4.69049e+8 
           5010      4.48156e+8 
           5030      4.54576e+8 
           5050      4.43626e+8 
           5070      4.42976e+8 
           5090      4.35692e+8 
           5110      4.28364e+8 
           5130      4.18073e+8 
           5150      4.14037e+8 
           5170       4.1153e+8 
           5190       4.0642e+8 
           5210      3.99212e+8 
           5230      3.94732e+8 
           5250      3.89653e+8 
           5270      3.83133e+8 
           5290      3.79111e+8 
           5310      3.73481e+8 
           5330      3.68602e+8 
           5350      3.62916e+8 
           5370      3.59159e+8 
           5390      3.53957e+8 
           5410       3.4971e+8 
           5430      3.44366e+8 
           5450      3.39611e+8 
           5470       3.3508e+8 
           5490      3.30806e+8 
           5510      3.27267e+8 
           5530      3.22046e+8 
           5550      3.18873e+8 
           5570      3.14329e+8 
           5590      3.10685e+8 
           5610      3.06295e+8 
           5630      3.02744e+8 
           5650      2.96958e+8 
           5670      2.91785e+8 
           5690      2.87364e+8 
           5710      2.86013e+8 
           5730      2.82872e+8 
           5750      2.78367e+8 
           5770      2.76474e+8 
           5790      2.72657e+8 
           5810      2.69355e+8 
           5830      2.65238e+8 
           5850      2.62414e+8 
           5870      2.52057e+8 
           5890      2.53302e+8 
           5910      2.51828e+8 
           5930      2.48225e+8 
           5950      2.44899e+8 
           5970      2.43969e+8 
           5990      2.39487e+8 
           6010      2.37656e+8 
           6030      2.34165e+8 
           6050      2.31611e+8 
           6070       2.2931e+8 
           6090      2.26577e+8 
           6110      2.23845e+8 
           6130      2.21384e+8 
           6150      2.17337e+8 
           6170      2.15317e+8 
           6190      2.13338e+8 
           6210      2.11048e+8 
           6230      2.08676e+8 
           6250      2.05577e+8 
           6270      2.03444e+8 
           6290      2.01305e+8 
           6310      1.98753e+8 
           6330      1.96766e+8 
           6350      1.93669e+8 
           6370      1.92037e+8 
           6390      1.89831e+8 
           6410      1.87713e+8 
           6430      1.85782e+8 
           6450      1.83545e+8 
           6470      1.80756e+8 
           6490      1.78839e+8 
           6510      1.77182e+8 
           6530      1.74437e+8 
           6550      1.68034e+8 
           6570      1.48877e+8 
           6590      1.66807e+8 
           6610      1.67093e+8 
           6630      1.65666e+8 
           6650      1.63794e+8 
           6670       1.6062e+8 
           6690      1.58946e+8 
           6710      1.58652e+8 
           6730       1.5648e+8 
           6750      1.55272e+8 
           6770        1.536e+8 
           6790      1.50409e+8 
           6810      1.49949e+8 
           6830      1.48353e+8 
           6850      1.46982e+8 
           6870      1.45394e+8 
           6890      1.43654e+8 
           6910      1.41964e+8 
           6930      1.40745e+8 
           6950      1.39305e+8 
           6970      1.37839e+8 
           6990      1.36327e+8 
           7010      1.34883e+8 
           7030      1.33461e+8 
           7050      1.32038e+8 
           7070      1.28504e+8 
           7090      1.29241e+8 
           7110      1.26823e+8 
           7130      1.25624e+8 
           7150      1.25187e+8 
           7170      1.24021e+8 
           7190        1.228e+8 
           7210      1.21525e+8 
           7230      1.18295e+8 
           7250      1.18812e+8 
           7270       1.1781e+8 
           7290      1.15654e+8 
           7310      1.15396e+8 
           7330      1.14192e+8 
           7350      1.13111e+8 
           7370      1.11985e+8 
           7390      1.10862e+8 
           7410       1.0975e+8 
           7430      1.08587e+8 
           7450      1.07543e+8 
           7470      1.05955e+8 
           7490      1.05356e+8 
           7510      1.04302e+8 
           7530      1.03224e+8 
           7550       1.0234e+8 
           7570       1.0134e+8 
           7590      1.00323e+8 
           7610      9.92172e+7 
           7630      9.83483e+7 
           7650      9.74163e+7 
           7670      9.64735e+7 
           7690      9.55328e+7 
           7710      9.45815e+7 
           7730       9.3645e+7 
           7750      9.28111e+7 
           7770      9.14166e+7 
           7790      9.10471e+7 
           7810       9.0112e+7 
           7830      8.93143e+7 
           7850       8.8438e+7 
           7870      8.74964e+7 
           7890      8.64482e+7 
           7910      8.58911e+7 
           7930      8.50391e+7 
           7950      8.41289e+7 
           7970       8.3381e+7 
           7990      8.24979e+7 
           8010      8.18223e+7 
           8030      8.10646e+7 
           8050      8.03426e+7 
           8070       7.9673e+7 
           8090      7.88018e+7 
           8110      7.78122e+7 
           8130       7.7521e+7 
           8150      7.67213e+7 
           8170      7.61711e+7 
           8190      7.51088e+7 
           8210       7.4285e+7 
           8230      7.35072e+7 
           8250      7.32509e+7 
           8270      7.18725e+7 
           8290      7.18385e+7 
           8310      7.12531e+7 
           8330      7.06291e+7 
           8350      6.96373e+7 
           8370      6.91759e+7 
           8390      6.87234e+7 
           8410      6.80613e+7 
           8430       6.7426e+7 
           8450      6.61839e+7 
           8470      6.61237e+7 
           8490      6.54833e+7 
           8510      6.46869e+7 
           8530       6.4446e+7 
           8550      6.28926e+7 
           8570      6.40356e+7 
           8590      6.14097e+7 
