# Kurucz ODFNEW /NOVER (2003)
# teff = 21000 K (value for the effective temperature for the model. Temperatures are given in K)
# logg = 4 log(cm/s2) (value for Log(G) for the model.)
# meta = -2.5  (value for the Metallicity for the model.)
# lh = 1.25  (l/Hp where l is the  mixing length of the convective element and Hp is the pressure scale height)
# vtur = 2 km/s (Microturbulence velocity)
# alpha = 0  (Alpha)
#
# column 1: WAVELENGTH (ANGSTROM), Wavelength in Angstrom
# column 2: FLUX (ERG/CM2/S/A), Flux in erg/cm2/s/A
          147.2     2.61355e-19 
            151     1.73338e-18 
          155.2     1.26045e-17 
          158.8     6.35112e-17 
            162     2.51713e-16 
            166     1.30566e-15 
          170.3     7.02264e-15 
          173.4     2.24101e-14 
          176.8      7.6295e-14 
          180.2     2.47777e-13 
          181.7     4.10689e-13 
          186.1     1.72346e-12 
            191     7.85926e-12 
          193.9     1.85874e-11 
          198.4     6.71436e-11 
          201.8     1.70375e-10 
            205       3.975e-10 
          210.5      1.60171e-9 
          216.2      6.28156e-9 
          219.8      1.43348e-8 
            223      2.91572e-8 
          226.8      6.59343e-8 
            230      1.57778e-7 
            234      3.62825e-7 
            240      1.13065e-6 
          246.5      3.62753e-6 
          252.4      9.92004e-6 
          256.8      2.02554e-5 
            260      3.37234e-5 
            264      6.23504e-5 
          268.5     0.000121596 
          273.5     0.000248589 
          278.5     0.000494989 
            284      0.00102506 
            290      0.00219368 
            296      0.00454272 
            301      0.00814284 
            308       0.0177801 
            318        0.051191 
            328        0.137341 
            338        0.346148 
            348        0.824329 
            357           1.721 
            366         3.45636 
            375         6.69447 
            385         13.4174 
            395         25.8815 
            405          48.191 
            414         81.9944 
            422         128.785 
            430         198.575 
            441          350.17 
            451         571.074 
            460         869.219 
            470         1357.47 
            480         2076.43 
            490         3115.51 
            500         4589.77 
            506           28286 
            512           82924 
            520          107112 
            530          159221 
            540          178559 
            550          262166 
            560          327548 
            570          408721 
            580          423081 
            590          573287 
            600          744302 
            610          899959 
            620      1.07413e+6 
            630      1.27693e+6 
            640      1.49671e+6 
            650      1.76604e+6 
            658       2.0024e+6 
            665      2.22328e+6 
            675        2.558e+6 
            685      2.93491e+6 
            695      3.40201e+6 
            705      3.87815e+6 
            716      4.45794e+6 
            726      5.03644e+6 
            735      5.62425e+6 
            745      6.32388e+6 
            755      7.07956e+6 
            765       7.8909e+6 
            775      8.77807e+6 
            785      9.72659e+6 
            795      1.07376e+7 
            805      1.18241e+7 
            815      1.29746e+7 
            825      1.42179e+7 
            835      1.53766e+7 
            845      1.69005e+7 
            855      1.83195e+7 
            865      1.99169e+7 
            875       2.1554e+7 
            885      2.32798e+7 
            895      2.50708e+7 
            905       2.6707e+7 
            915      4.77377e+7 
            925      2.94836e+8 
            935      1.13123e+9 
            945       4.9699e+9 
            955      8.50096e+9 
            965     1.14901e+10 
            975      4.13179e+9 
            985     1.45194e+10 
            995     1.45806e+10 
           1005     1.49099e+10 
           1015     1.26202e+10 
           1025      2.77929e+9 
           1035     1.10255e+10 
           1045     1.44223e+10 
           1055     1.42568e+10 
           1065     1.33878e+10 
           1075     1.37049e+10 
           1085     1.28649e+10 
           1095     1.33625e+10 
           1105     1.28051e+10 
           1115     1.26547e+10 
           1125     1.20586e+10 
           1135      1.2203e+10 
           1145     1.17511e+10 
           1155     1.18309e+10 
           1165     1.16167e+10 
           1175      1.0494e+10 
           1185     1.10769e+10 
           1195     1.02021e+10 
           1205      8.29491e+9 
           1215      1.89056e+9 
           1225      7.76819e+9 
           1235      9.72436e+9 
           1245       9.7863e+9 
           1255      9.64556e+9 
           1265      9.43763e+9 
           1275      9.44103e+9 
           1285      9.27253e+9 
           1295      8.72867e+9 
           1305      8.66531e+9 
           1315      8.77084e+9 
           1325      8.49882e+9 
           1335      8.18871e+9 
           1345      8.28085e+9 
           1355      8.16893e+9 
           1365      7.99629e+9 
           1375       7.8567e+9 
           1385       7.7303e+9 
           1395      7.47738e+9 
           1405      7.39384e+9 
           1415      7.32207e+9 
           1425      7.21391e+9 
           1435      7.09835e+9 
           1442      7.02272e+9 
           1447      6.95969e+9 
           1455      6.86309e+9 
           1465      6.73952e+9 
           1475      6.62975e+9 
           1485      6.51359e+9 
           1495      6.40753e+9 
           1505      6.27543e+9 
           1512      6.19884e+9 
           1517      6.16033e+9 
           1525      6.07173e+9 
           1535      5.91022e+9 
           1545      5.85668e+9 
           1555      5.73252e+9 
           1565      5.69226e+9 
           1575       5.6152e+9 
           1585      5.52612e+9 
           1595      5.44475e+9 
           1605      5.31511e+9 
           1615      5.23014e+9 
           1625      5.18537e+9 
           1635      5.11382e+9 
           1645      5.00255e+9 
           1655      4.95218e+9 
           1665      4.88961e+9 
           1672      4.77733e+9 
           1677      4.80368e+9 
           1685      4.74437e+9 
           1695      4.66351e+9 
           1705      4.58603e+9 
           1715      4.50619e+9 
           1725      4.44346e+9 
           1735      4.38726e+9 
           1745      4.31782e+9 
           1755      4.26728e+9 
           1765      4.14977e+9 
           1775       4.1279e+9 
           1785      4.07775e+9 
           1795      4.02578e+9 
           1805      3.97182e+9 
           1815      3.90667e+9 
           1825      3.85527e+9 
           1835      3.80016e+9 
           1845      3.71946e+9 
           1855      3.62122e+9 
           1865      3.58888e+9 
           1875      3.58381e+9 
           1885      3.49531e+9 
           1895      3.41666e+9 
           1905      3.42418e+9 
           1915      3.33704e+9 
           1925      3.29229e+9 
           1935      3.27063e+9 
           1945      3.24784e+9 
           1955      3.16354e+9 
           1967      3.15378e+9 
           1976      3.12956e+9 
           1984      3.07528e+9 
           1995      3.00473e+9 
           2005      3.00332e+9 
           2015      2.97386e+9 
           2025      2.94071e+9 
           2035       2.8935e+9 
           2045      2.85581e+9 
           2055      2.79445e+9 
           2065      2.76489e+9 
           2074      2.76293e+9 
           2078       2.7154e+9 
           2085      2.71349e+9 
           2095      2.66482e+9 
           2105       2.6478e+9 
           2115      2.61937e+9 
           2125      2.59119e+9 
           2135      2.55755e+9 
           2145      2.52271e+9 
           2155       2.4948e+9 
           2165       2.4641e+9 
           2175      2.43305e+9 
           2185      2.40459e+9 
           2195      2.37656e+9 
           2205      2.34691e+9 
           2215      2.31848e+9 
           2225      2.28954e+9 
           2235      2.26269e+9 
           2245      2.23675e+9 
           2255      2.20902e+9 
           2265      2.18405e+9 
           2275      2.15791e+9 
           2285      2.13322e+9 
           2295      2.09972e+9 
           2305      2.08317e+9 
           2315      2.05804e+9 
           2325      2.03452e+9 
           2335      2.00905e+9 
           2345      1.98366e+9 
           2355      1.96468e+9 
           2365      1.94035e+9 
           2375       1.9193e+9 
           2385      1.89457e+9 
           2395      1.87412e+9 
           2405      1.85361e+9 
           2415      1.83222e+9 
           2425      1.81419e+9 
           2435      1.79297e+9 
           2445      1.77304e+9 
           2455      1.75438e+9 
           2465      1.73403e+9 
           2475      1.71525e+9 
           2485      1.69635e+9 
           2495      1.66862e+9 
           2505      1.65922e+9 
           2513       1.6414e+9 
           2518      1.63578e+9 
           2525      1.62276e+9 
           2535      1.60436e+9 
           2545      1.58683e+9 
           2555      1.57166e+9 
           2565      1.55411e+9 
           2575      1.53848e+9 
           2585      1.52192e+9 
           2595      1.50557e+9 
           2605      1.50108e+9 
           2615      1.48593e+9 
           2625      1.46993e+9 
           2635      1.45115e+9 
           2645      1.43729e+9 
           2655      1.42012e+9 
           2665      1.40285e+9 
           2675      1.38754e+9 
           2685      1.38182e+9 
           2695      1.35753e+9 
           2705      1.35333e+9 
           2715      1.33924e+9 
           2725      1.31497e+9 
           2735      1.31202e+9 
           2745      1.29622e+9 
           2755      1.28346e+9 
           2765      1.26158e+9 
           2775      1.25959e+9 
           2785      1.24673e+9 
           2795      1.22499e+9 
           2805      1.21848e+9 
           2815      1.20979e+9 
           2825      1.18542e+9 
           2835      1.17923e+9 
           2845      1.17394e+9 
           2855       1.1624e+9 
           2865      1.15099e+9 
           2875      1.13963e+9 
           2885      1.12853e+9 
           2895      1.11751e+9 
           2910      1.10121e+9 
           2930      1.07982e+9 
           2950      1.05224e+9 
           2970       1.0391e+9 
           2990      1.01931e+9 
           3010      1.00015e+9 
           3030      9.81452e+8 
           3050      9.63115e+8 
           3070      9.45251e+8 
           3090      9.27767e+8 
           3110      9.10771e+8 
           3130      8.95208e+8 
           3150      8.78864e+8 
           3170      8.62636e+8 
           3190      8.40673e+8 
           3210      8.31802e+8 
           3230      8.16875e+8 
           3250      8.02251e+8 
           3270      7.88979e+8 
           3290      7.74126e+8 
           3310      7.61636e+8 
           3330      7.48438e+8 
           3350      7.34324e+8 
           3370      7.22881e+8 
           3390      7.10508e+8 
           3410       6.9844e+8 
           3430      6.84171e+8 
           3450      6.70532e+8 
           3470      6.61073e+8 
           3490      6.49961e+8 
           3510      6.41352e+8 
           3530      6.31475e+8 
           3550      6.21271e+8 
           3570      6.13709e+8 
           3590      6.00664e+8 
           3610      5.92003e+8 
           3630      5.81295e+8 
           3640       5.7984e+8 
           3650      5.74772e+8 
           3670      5.67937e+8 
           3690      5.54244e+8 
           3710      5.37501e+8 
           3730      5.20298e+8 
           3750      5.66547e+8 
           3770       5.7476e+8 
           3790      6.14764e+8 
           3810      6.47905e+8 
           3830      5.56687e+8 
           3850      6.72915e+8 
           3870      6.82127e+8 
           3890      5.26327e+8 
           3910      6.72234e+8 
           3930      6.65043e+8 
           3950      6.51637e+8 
           3970      4.90437e+8 
           3990       6.2522e+8 
           4010      6.23333e+8 
           4030      5.86148e+8 
           4050       6.1014e+8 
           4070      5.97699e+8 
           4090      5.43966e+8 
           4110      4.66783e+8 
           4130      5.60581e+8 
           4150      5.56591e+8 
           4170      5.52239e+8 
           4190      5.45091e+8 
           4210      5.36333e+8 
           4230      5.27736e+8 
           4250      5.19277e+8 
           4270      5.10622e+8 
           4290      5.02167e+8 
           4310       4.9121e+8 
           4330      4.38418e+8 
           4350       3.9641e+8 
           4370      4.67181e+8 
           4390      4.50306e+8 
           4410      4.57388e+8 
           4430      4.48238e+8 
           4450      4.43609e+8 
           4470      4.16495e+8 
           4490      4.29761e+8 
           4510       4.2368e+8 
           4530      4.17285e+8 
           4550      4.10986e+8 
           4570      4.04835e+8 
           4590      3.98811e+8 
           4610      3.92877e+8 
           4630      3.87047e+8 
           4650      3.81303e+8 
           4670      3.75729e+8 
           4690      3.70219e+8 
           4710      3.60102e+8 
           4730      3.59438e+8 
           4750       3.5418e+8 
           4770       3.4918e+8 
           4790      3.44152e+8 
           4810      3.38511e+8 
           4830       3.3166e+8 
           4850       3.0212e+8 
           4870      2.66715e+8 
           4890      3.16308e+8 
           4910      3.14534e+8 
           4930      3.03384e+8 
           4950      3.07072e+8 
           4970      3.02806e+8 
           4990      2.98598e+8 
           5010      2.90771e+8 
           5030      2.90414e+8 
           5050      2.84617e+8 
           5070      2.82508e+8 
           5090      2.78664e+8 
           5110      2.74871e+8 
           5130      2.71157e+8 
           5150      2.67492e+8 
           5170      2.63905e+8 
           5190      2.60364e+8 
           5210       2.5687e+8 
           5230      2.53477e+8 
           5250      2.50114e+8 
           5270      2.46809e+8 
           5290      2.43559e+8 
           5310      2.40365e+8 
           5330      2.37212e+8 
           5350      2.34126e+8 
           5370      2.31092e+8 
           5390      2.28096e+8 
           5410      2.25151e+8 
           5430      2.22244e+8 
           5450      2.19398e+8 
           5470        2.166e+8 
           5490      2.13838e+8 
           5510      2.11122e+8 
           5530      2.08452e+8 
           5550      2.05827e+8 
           5570      2.03234e+8 
           5590      2.00685e+8 
           5610       1.9818e+8 
           5630      1.95716e+8 
           5650      1.93271e+8 
           5670      1.90891e+8 
           5690      1.88527e+8 
           5710      1.86215e+8 
           5730      1.83931e+8 
           5750      1.81685e+8 
           5770      1.79477e+8 
           5790      1.77295e+8 
           5810       1.7515e+8 
           5830      1.73031e+8 
           5850      1.70958e+8 
           5870      1.63793e+8 
           5890      1.66678e+8 
           5910      1.64894e+8 
           5930      1.62937e+8 
           5950      1.61003e+8 
           5970      1.59102e+8 
           5990      1.57222e+8 
           6010      1.55385e+8 
           6030      1.53568e+8 
           6050      1.51772e+8 
           6070      1.50007e+8 
           6090      1.48272e+8 
           6110      1.46556e+8 
           6130      1.44869e+8 
           6150      1.43202e+8 
           6170      1.41562e+8 
           6190      1.39941e+8 
           6210      1.38347e+8 
           6230      1.36781e+8 
           6250      1.35232e+8 
           6270      1.33709e+8 
           6290      1.32203e+8 
           6310      1.30714e+8 
           6330       1.2925e+8 
           6350      1.27802e+8 
           6370      1.26378e+8 
           6390       1.2498e+8 
           6410      1.23596e+8 
           6430      1.22236e+8 
           6450       1.2089e+8 
           6470      1.19559e+8 
           6490      1.18251e+8 
           6510      1.16823e+8 
           6530      1.15013e+8 
           6550      1.09157e+8 
           6570      9.61179e+7 
           6590       1.1056e+8 
           6610      1.10461e+8 
           6630      1.09581e+8 
           6650       1.0848e+8 
           6670      1.06273e+8 
           6690      1.05167e+8 
           6710      1.05051e+8 
           6730      1.03945e+8 
           6750      1.02842e+8 
           6770      1.01759e+8 
           6790      1.00686e+8 
           6810      9.96329e+7 
           6830       9.8598e+7 
           6850      9.75655e+7 
           6870      9.65512e+7 
           6890      9.55551e+7 
           6910      9.45609e+7 
           6930      9.35844e+7 
           6950      9.26254e+7 
           6970      9.16758e+7 
           6990      9.07356e+7 
           7010      8.98123e+7 
           7030       8.8898e+7 
           7050      8.80002e+7 
           7070      8.57394e+7 
           7090      8.62231e+7 
           7110      8.53586e+7 
           7130      8.45025e+7 
           7150      8.36546e+7 
           7170      8.28002e+7 
           7190      8.19904e+7 
           7210       8.1181e+7 
           7230      8.03506e+7 
           7250      7.95782e+7 
           7270      7.87916e+7 
           7290      7.74171e+7 
           7310      7.72408e+7 
           7330      7.64973e+7 
           7350      7.57469e+7 
           7370      7.50103e+7 
           7390      7.42807e+7 
           7410      7.35646e+7 
           7430      7.28484e+7 
           7450      7.21591e+7 
           7470      7.14627e+7 
           7490      7.07793e+7 
           7510      7.00756e+7 
           7530      6.94314e+7 
           7550      6.87666e+7 
           7570      6.81145e+7 
           7590      6.74682e+7 
           7610      6.68279e+7 
           7630      6.61997e+7 
           7650      6.55772e+7 
           7670      6.49603e+7 
           7690      6.43489e+7 
           7710      6.37493e+7 
           7730      6.31551e+7 
           7750      6.25648e+7 
           7770      6.19811e+7 
           7790      6.14118e+7 
           7810      6.08099e+7 
           7830      6.02833e+7 
           7850      5.97907e+7 
           7870       5.9239e+7 
           7890      5.86698e+7 
           7910      5.81633e+7 
           7930      5.76331e+7 
           7950       5.7105e+7 
           7970      5.65021e+7 
           7990      5.59829e+7 
           8010      5.54653e+7 
           8030      5.49732e+7 
           8050      5.44923e+7 
           8070      5.40212e+7 
           8090      5.34517e+7 
           8110      5.30366e+7 
           8130      5.26101e+7 
           8150      5.20697e+7 
           8170      5.16864e+7 
           8190      5.11726e+7 
           8210      5.06581e+7 
           8230      5.03554e+7 
           8250      4.99317e+7 
           8270      4.92685e+7 
           8290      4.90251e+7 
           8310      4.86181e+7 
           8330      4.81808e+7 
           8350      4.75455e+7 
           8370      4.72659e+7 
           8390      4.69193e+7 
           8410      4.64882e+7 
           8430      4.60192e+7 
           8450      4.53695e+7 
           8470      4.50715e+7 
           8490      4.47815e+7 
           8510      4.40896e+7 
           8530      4.41352e+7 
           8550      4.26684e+7 
           8570       4.4015e+7 
           8590      4.18788e+7 
