# Kurucz ODFNEW /NOVER (2003)
# teff = 10000 K (value for the effective temperature for the model. Temperatures are given in K)
# logg = 4.5 log(cm/s2) (value for Log(G) for the model.)
# meta = 0  (value for the Metallicity for the model.)
# lh = 1.25  (l/Hp where l is the  mixing length of the convective element and Hp is the pressure scale height)
# vtur = 2 km/s (Microturbulence velocity)
# alpha = 0  (Alpha)
#
# column 1: WAVELENGTH (ANGSTROM), Wavelength in Angstrom
# column 2: FLUX (ERG/CM2/S/A), Flux in erg/cm2/s/A
          268.5     3.75009e-23 
          273.5     1.69709e-22 
          278.5     6.62609e-22 
            284     2.73037e-21 
            290     1.20446e-20 
            296     5.00193e-20 
            301     1.58083e-19 
            308     7.46557e-19 
            318     6.13726e-18 
            328     4.48116e-17 
            338     2.92958e-16 
            348     1.73386e-15 
            357     7.92483e-15 
            366     3.37818e-14 
            375     1.34385e-13 
            385     5.79232e-13 
            395     2.33023e-12 
            405     8.76635e-12 
            414     2.73124e-11 
            422     7.20737e-11 
            430     1.83807e-10 
            441     6.30778e-10 
            451      1.83128e-9 
            460        4.595e-9 
            470       1.2276e-8 
            480      3.14399e-8 
            490      7.73857e-8 
            500      1.83528e-7 
            506      3.40156e-7 
            512      5.77014e-7 
            520        1.074e-6 
            530      2.28492e-6 
            540      4.70447e-6 
            550      9.47129e-6 
            560      1.85385e-5 
            570      3.54594e-5 
            580      6.61875e-5 
            590     0.000121309 
            600     0.000217226 
            610      0.00038169 
            620     0.000658532 
            630      0.00111519 
            640      0.00185578 
            650      0.00303889 
            658      0.00446205 
            665      0.00619081 
            675      0.00976251 
            685       0.0151784 
            695       0.0232983 
            705       0.0352842 
            716       0.0549373 
            726       0.0811317 
            735        0.114122 
            745        0.165034 
            755        0.236173 
            765        0.334562 
            775        0.469349 
            785        0.652494 
            795         0.89875 
            805         1.22746 
            815         1.66244 
            825         2.23378 
            835         2.97839 
            845         3.94186 
            855         5.17869 
            865         6.75744 
            875         8.75857 
            885         11.2799 
            895         14.4352 
            905         18.3626 
            915         230.724 
            925         1662.39 
            935         2763.77 
            945         4483.92 
            955         6389.77 
            965         8332.57 
            975         7264.51 
            985         11385.5 
            995         12433.3 
           1005         15449.6 
           1015         17548.8 
           1025         13571.4 
           1035         22486.8 
           1045         26804.4 
           1055           30601 
           1065         33546.8 
           1075         39354.3 
           1085         44450.1 
           1095         48147.5 
           1105         75989.2 
           1115          642960 
           1125      1.24619e+6 
           1135      2.04404e+6 
           1145      1.83183e+6 
           1155      2.13724e+6 
           1165      1.97149e+6 
           1175      1.14741e+6 
           1185          695201 
           1195          211400 
           1205          193919 
           1215         47413.2 
           1225          200635 
           1235          421405 
           1245          904889 
           1255      7.29289e+6 
           1265      1.26104e+7 
           1275      3.12229e+7 
           1285      5.45966e+7 
           1295      5.96468e+7 
           1305      3.16731e+7 
           1315      6.77611e+7 
           1325      8.17137e+7 
           1335      7.80653e+7 
           1345       9.9481e+7 
           1355      9.14685e+7 
           1365      8.23872e+7 
           1375      9.08773e+7 
           1385      8.13389e+7 
           1395      8.64511e+7 
           1405      9.65114e+7 
           1415      9.71954e+7 
           1425      1.10372e+8 
           1435      9.61168e+7 
           1442      1.13606e+8 
           1447      1.22623e+8 
           1455      1.23648e+8 
           1465      1.11641e+8 
           1475      1.07454e+8 
           1485       1.1401e+8 
           1495      1.25877e+8 
           1505      1.27556e+8 
           1512      1.13178e+8 
           1517      1.26702e+8 
           1525      1.15498e+8 
           1535      1.15424e+8 
           1545      1.37892e+8 
           1555      1.05117e+8 
           1565       8.9733e+7 
           1575      1.18951e+8 
           1585      1.37869e+8 
           1595      1.48587e+8 
           1605      1.41936e+8 
           1615      1.39807e+8 
           1625      1.21264e+8 
           1635      1.26158e+8 
           1645      1.44579e+8 
           1655      1.12209e+8 
           1665      1.40583e+8 
           1672      9.87067e+7 
           1677      1.32419e+8 
           1685      1.49088e+8 
           1695      1.29833e+8 
           1705      1.26835e+8 
           1715      1.28214e+8 
           1725      1.25971e+8 
           1735      1.35149e+8 
           1745      1.31403e+8 
           1755      1.45419e+8 
           1765      1.20306e+8 
           1775      1.38322e+8 
           1785      1.36989e+8 
           1795       1.5027e+8 
           1805      1.40735e+8 
           1815      1.40092e+8 
           1825      1.33346e+8 
           1835      1.28708e+8 
           1845      1.17622e+8 
           1855       1.2516e+8 
           1865      1.26399e+8 
           1875      1.31634e+8 
           1885      1.30029e+8 
           1895      1.29699e+8 
           1905      1.22143e+8 
           1915      1.28627e+8 
           1925       1.2953e+8 
           1935      1.23466e+8 
           1945      1.32078e+8 
           1955      1.29883e+8 
           1967      1.34282e+8 
           1976      1.31826e+8 
           1984      1.27674e+8 
           1995      1.23496e+8 
           2005      1.21134e+8 
           2015      1.15731e+8 
           2025      1.15372e+8 
           2035       1.1918e+8 
           2045      1.23693e+8 
           2055      1.17648e+8 
           2065      1.15628e+8 
           2074      1.21344e+8 
           2078       1.2455e+8 
           2085       1.2252e+8 
           2095      1.17808e+8 
           2105      1.14149e+8 
           2115      1.14201e+8 
           2125      1.15806e+8 
           2135        9.893e+7 
           2145      1.10439e+8 
           2155      1.11088e+8 
           2165      1.05225e+8 
           2175      1.03487e+8 
           2185      1.04097e+8 
           2195       1.0975e+8 
           2205      1.05061e+8 
           2215      9.61822e+7 
           2225       9.4726e+7 
           2235      1.05155e+8 
           2245      9.44809e+7 
           2255      9.23038e+7 
           2265      9.28931e+7 
           2275      9.83818e+7 
           2285      1.01397e+8 
           2295      9.49651e+7 
           2305      9.30722e+7 
           2315      9.00134e+7 
           2325      8.95265e+7 
           2335      8.49679e+7 
           2345       7.8586e+7 
           2355      8.90262e+7 
           2365      7.90743e+7 
           2375      8.35993e+7 
           2385      7.37468e+7 
           2395      8.10267e+7 
           2405      7.69543e+7 
           2415      7.89021e+7 
           2425      8.37621e+7 
           2435      7.97335e+7 
           2445      8.51198e+7 
           2455      8.17838e+7 
           2465      8.15866e+7 
           2475      7.80565e+7 
           2485      8.20722e+7 
           2495      7.90251e+7 
           2505      8.70767e+7 
           2513      7.83445e+7 
           2518      7.96023e+7 
           2525      7.43576e+7 
           2535      7.32211e+7 
           2545      7.29202e+7 
           2555      7.77348e+7 
           2565      7.74619e+7 
           2575      8.27022e+7 
           2585      8.27852e+7 
           2595      8.13988e+7 
           2605      7.78827e+7 
           2615      7.70678e+7 
           2625      8.13093e+7 
           2635      8.14964e+7 
           2645      8.94864e+7 
           2655      8.81722e+7 
           2665      8.10563e+7 
           2675      8.44263e+7 
           2685      8.39763e+7 
           2695      8.04185e+7 
           2705      8.21316e+7 
           2715      7.81545e+7 
           2725      7.87438e+7 
           2735      8.42076e+7 
           2745      7.26408e+7 
           2755      7.32312e+7 
           2765      7.55014e+7 
           2775      8.02417e+7 
           2785        7.819e+7 
           2795      6.02514e+7 
           2805      6.77134e+7 
           2815      8.14814e+7 
           2825      8.23122e+7 
           2835      7.91311e+7 
           2845      7.62114e+7 
           2855      7.40238e+7 
           2865       7.8529e+7 
           2875       7.6311e+7 
           2885      7.78288e+7 
           2895        7.504e+7 
           2910      8.17958e+7 
           2930      7.83747e+7 
           2950      7.80731e+7 
           2970      7.87122e+7 
           2990       7.8771e+7 
           3010      7.96196e+7 
           3030      7.85761e+7 
           3050      7.76866e+7 
           3070      7.67177e+7 
           3090      7.72153e+7 
           3110      7.54347e+7 
           3130      7.49506e+7 
           3150      7.54902e+7 
           3170      7.47918e+7 
           3190      7.21021e+7 
           3210      7.31369e+7 
           3230      7.15767e+7 
           3250      7.20182e+7 
           3270      7.20383e+7 
           3290      7.22023e+7 
           3310      7.21233e+7 
           3330      7.06039e+7 
           3350      6.94142e+7 
           3370      6.92529e+7 
           3390      6.85398e+7 
           3410      6.91993e+7 
           3430      6.87757e+7 
           3450      6.81769e+7 
           3470      6.72994e+7 
           3490      6.68859e+7 
           3510      6.71013e+7 
           3530      6.68994e+7 
           3550       6.6623e+7 
           3570      6.54382e+7 
           3590      6.49888e+7 
           3610      6.45829e+7 
           3630       6.4222e+7 
           3640      6.38782e+7 
           3650       6.4688e+7 
           3670      6.44017e+7 
           3690      6.25904e+7 
           3710      6.16437e+7 
           3730      6.01477e+7 
           3750      7.15069e+7 
           3770      7.53941e+7 
           3790      9.34526e+7 
           3810      1.11038e+8 
           3830      8.74761e+7 
           3850      1.23997e+8 
           3870      1.43838e+8 
           3890      7.53628e+7 
           3910      1.43648e+8 
           3930      1.52971e+8 
           3950      1.43436e+8 
           3970      7.20502e+7 
           3990      1.35714e+8 
           4010      1.57387e+8 
           4030      1.57788e+8 
           4050      1.55653e+8 
           4070      1.46012e+8 
           4090      1.05992e+8 
           4110      7.95338e+7 
           4130      1.35616e+8 
           4150      1.45291e+8 
           4170      1.44821e+8 
           4190      1.43479e+8 
           4210       1.4191e+8 
           4230      1.38866e+8 
           4250      1.37149e+8 
           4270      1.33706e+8 
           4290      1.31826e+8 
           4310      1.21623e+8 
           4330      8.56984e+7 
           4350       7.2473e+7 
           4370      1.16639e+8 
           4390      1.21643e+8 
           4410       1.2214e+8 
           4430      1.21021e+8 
           4450       1.2104e+8 
           4470      1.19292e+8 
           4490       1.1638e+8 
           4510      1.16484e+8 
           4530      1.14584e+8 
           4550      1.12103e+8 
           4570      1.12291e+8 
           4590      1.10068e+8 
           4610      1.10129e+8 
           4630      1.07389e+8 
           4650      1.07258e+8 
           4670       1.0573e+8 
           4690      1.03278e+8 
           4710      9.99269e+7 
           4730      1.01525e+8 
           4750      1.00205e+8 
           4770      9.87203e+7 
           4790      9.69946e+7 
           4810      9.42113e+7 
           4830       8.8081e+7 
           4850       6.5051e+7 
           4870      5.25505e+7 
           4890       8.1961e+7 
           4910      8.79563e+7 
           4930      8.77913e+7 
           4950      8.80135e+7 
           4970      8.75109e+7 
           4990      8.62601e+7 
           5010       8.4306e+7 
           5030      8.41268e+7 
           5050      8.25813e+7 
           5070      8.24807e+7 
           5090       8.1511e+7 
           5110      8.05193e+7 
           5130      7.95648e+7 
           5150       7.8377e+7 
           5170      7.66118e+7 
           5190      7.59246e+7 
           5210       7.5694e+7 
           5230       7.4287e+7 
           5250      7.41677e+7 
           5270      7.23674e+7 
           5290      7.24808e+7 
           5310      7.11382e+7 
           5330      7.02977e+7 
           5350      7.00916e+7 
           5370      6.91355e+7 
           5390      6.83912e+7 
           5410        6.736e+7 
           5430      6.68111e+7 
           5450      6.62354e+7 
           5470      6.54636e+7 
           5490      6.47825e+7 
           5510      6.40587e+7 
           5530      6.32623e+7 
           5550      6.26996e+7 
           5570      6.19745e+7 
           5590       6.1316e+7 
           5610       6.0718e+7 
           5630      6.00817e+7 
           5650      5.93656e+7 
           5670      5.87085e+7 
           5690      5.81266e+7 
           5710      5.75214e+7 
           5730      5.69473e+7 
           5750      5.62784e+7 
           5770      5.57022e+7 
           5790      5.50832e+7 
           5810      5.45238e+7 
           5830      5.39564e+7 
           5850      5.33889e+7 
           5870      5.27589e+7 
           5890      5.19136e+7 
           5910      5.17139e+7 
           5930      5.11921e+7 
           5950      5.05771e+7 
           5970      5.01046e+7 
           5990      4.95144e+7 
           6010      4.90268e+7 
           6030      4.85851e+7 
           6050      4.80678e+7 
           6070      4.76064e+7 
           6090      4.71164e+7 
           6110      4.66299e+7 
           6130      4.61266e+7 
           6150      4.52653e+7 
           6170      4.51693e+7 
           6190      4.47952e+7 
           6210      4.43411e+7 
           6230      4.38734e+7 
           6250      4.32449e+7 
           6270      4.30394e+7 
           6290      4.26129e+7 
           6310      4.21341e+7 
           6330      4.17535e+7 
           6350      4.10004e+7 
           6370       4.0722e+7 
           6390      4.05164e+7 
           6410      4.00494e+7 
           6430      3.96467e+7 
           6450      3.90145e+7 
           6470      3.87656e+7 
           6490      3.81514e+7 
           6510      3.74213e+7 
           6530      3.57841e+7 
           6550      3.01928e+7 
           6570      2.44637e+7 
           6590      3.33225e+7 
           6610      3.53414e+7 
           6630      3.56256e+7 
           6650      3.55113e+7 
           6670      3.52631e+7 
           6690      3.49978e+7 
           6710      3.47267e+7 
           6730      3.43984e+7 
           6750      3.40956e+7 
           6770      3.38139e+7 
           6790      3.34957e+7 
           6810      3.31896e+7 
           6830       3.2863e+7 
           6850      3.25703e+7 
           6870      3.22811e+7 
           6890      3.19892e+7 
           6910      3.16931e+7 
           6930      3.13927e+7 
           6950      3.11172e+7 
           6970      3.08311e+7 
           6990      3.05631e+7 
           7010      3.02173e+7 
           7030      2.99975e+7 
           7050      2.97222e+7 
           7070      2.94737e+7 
           7090      2.92169e+7 
           7110      2.87622e+7 
           7130      2.86596e+7 
           7150      2.84051e+7 
           7170      2.81773e+7 
           7190      2.79253e+7 
           7210      2.76865e+7 
           7230      2.74333e+7 
           7250      2.71661e+7 
           7270      2.69676e+7 
           7290      2.67128e+7 
           7310      2.64858e+7 
           7330      2.62636e+7 
           7350      2.60449e+7 
           7370      2.58226e+7 
           7390      2.55885e+7 
           7410      2.53524e+7 
           7430      2.50762e+7 
           7450      2.48976e+7 
           7470      2.46227e+7 
           7490      2.44632e+7 
           7510       2.4281e+7 
           7530      2.40944e+7 
           7550      2.39008e+7 
           7570      2.36958e+7 
           7590      2.34978e+7 
           7610      2.33036e+7 
           7630      2.31026e+7 
           7650      2.29021e+7 
           7670       2.2699e+7 
           7690      2.25173e+7 
           7710      2.23253e+7 
           7730       2.2155e+7 
           7750        2.197e+7 
           7770      2.13834e+7 
           7790      2.16121e+7 
           7810      2.14354e+7 
           7830      2.12437e+7 
           7850      2.10451e+7 
           7870      2.08148e+7 
           7890      2.06047e+7 
           7910       2.0532e+7 
           7930      2.03866e+7 
           7950      2.01441e+7 
           7970      2.00763e+7 
           7990      1.97269e+7 
           8010      1.97477e+7 
           8030      1.95823e+7 
           8050       1.9434e+7 
           8070      1.92712e+7 
           8090      1.91196e+7 
           8110      1.89705e+7 
           8130      1.88265e+7 
           8150      1.86775e+7 
           8170      1.85297e+7 
           8190      1.82928e+7 
           8210      1.82065e+7 
           8230      1.80498e+7 
           8250      1.79579e+7 
           8270      1.79246e+7 
           8290      1.77774e+7 
           8310      1.76608e+7 
           8330      1.74572e+7 
           8350      1.74039e+7 
           8370        1.728e+7 
           8390      1.71372e+7 
           8410      1.69978e+7 
           8430      1.68414e+7 
           8450      1.65101e+7 
           8470      1.64543e+7 
           8490      1.64333e+7 
           8510      1.59259e+7 
           8530      1.62479e+7 
           8550      1.51728e+7 
           8570      1.62069e+7 
           8590      1.52646e+7 
           8610      1.49783e+7 
           8630      1.61417e+7 
           8650      1.54055e+7 
           8670      1.32872e+7 
           8690      1.56028e+7 
           8710       1.6208e+7 
           8730      1.53983e+7 
           8750      1.24027e+7 
           8770      1.45656e+7 
           8790      1.60757e+7 
           8810      1.62669e+7 
           8830        1.567e+7 
           8850      1.36368e+7 
           8870      1.17275e+7 
           8890      1.46922e+7 
           8910      1.56926e+7 
           8930      1.59191e+7 
           8950      1.59228e+7 
           8970      1.54815e+7 
           8990      1.43411e+7 
           9010      1.13506e+7 
           9030       1.2296e+7 
           9050      1.44142e+7 
           9070      1.48833e+7 
           9090      1.49305e+7 
           9110      1.51269e+7 
           9130      1.50928e+7 
           9150      1.49607e+7 
           9170      1.46617e+7 
           9190       1.4052e+7 
