# Kurucz ODFNEW /NOVER (2003)
# teff = 10000 K (value for the effective temperature for the model. Temperatures are given in K)
# logg = 4 log(cm/s2) (value for Log(G) for the model.)
# meta = 0  (value for the Metallicity for the model.)
# lh = 1.25  (l/Hp where l is the  mixing length of the convective element and Hp is the pressure scale height)
# vtur = 2 km/s (Microturbulence velocity)
# alpha = 0  (Alpha)
#
# column 1: WAVELENGTH (ANGSTROM), Wavelength in Angstrom
# column 2: FLUX (ERG/CM2/S/A), Flux in erg/cm2/s/A
          268.5     3.12191e-24 
          273.5     6.71042e-23 
          278.5     2.73038e-22 
            284     1.15874e-21 
            290     5.19448e-21 
            296     2.18734e-20 
            301      6.9769e-20 
            308     3.33685e-19 
            318     2.78907e-18 
            328     2.06763e-17 
            338     1.37018e-16 
            348     8.20378e-16 
            357     3.79038e-15 
            366     1.62899e-14 
            375     6.53909e-14 
            385     2.85117e-13 
            395     1.15473e-12 
            405     4.37537e-12 
            414      1.3754e-11 
            422     3.65551e-11 
            430     9.35976e-11 
            441     3.23903e-10 
            451      9.4882e-10 
            460       2.3996e-9 
            470      6.44976e-9 
            480      1.66144e-8 
            490      4.11923e-8 
            500      9.85117e-8 
            506      1.96755e-7 
            512       3.4367e-7 
            520      6.41791e-7 
            530      1.36958e-6 
            540      2.81849e-6 
            550        5.702e-6 
            560      1.11952e-5 
            570      2.14721e-5 
            580      4.00818e-5 
            590      7.38394e-5 
            600     0.000132672 
            610     0.000233702 
            620     0.000403739 
            630     0.000686219 
            640       0.0011461 
            650      0.00188445 
            658      0.00277124 
            665      0.00385125 
            675      0.00609192 
            685      0.00951006 
            695       0.0146488 
            705       0.0222502 
            716       0.0347713 
            726       0.0515094 
            735       0.0726994 
            745         0.10552 
            755        0.151544 
            765        0.215394 
            775         0.30319 
            785        0.422889 
            795        0.584462 
            805        0.801333 
            815         1.08937 
            825         1.46867 
            835          1.9643 
            845         2.60947 
            855           3.441 
            865          4.5056 
            875          5.8589 
            885         7.57138 
            895         9.72317 
            905         12.4087 
            915          245.15 
            925         1807.11 
            935         2950.01 
            945         4730.71 
            955         6834.23 
            965         8898.13 
            975         7797.93 
            985         12103.8 
            995         13132.7 
           1005         16379.9 
           1015         18647.3 
           1025         14606.3 
           1035         23923.4 
           1045         28695.3 
           1055         32851.6 
           1065         35785.5 
           1075         42105.7 
           1085         47595.8 
           1095         51163.8 
           1105         84504.8 
           1115      1.53389e+6 
           1125      2.73076e+6 
           1135      4.22401e+6 
           1145      3.77785e+6 
           1155      4.54891e+6 
           1165       4.4148e+6 
           1175      2.79745e+6 
           1185      1.82762e+6 
           1195          198020 
           1205          180492 
           1215         41755.5 
           1225          185352 
           1235          420294 
           1245      1.81571e+6 
           1255      1.64153e+7 
           1265      2.01018e+7 
           1275      4.71994e+7 
           1285      7.28647e+7 
           1295       7.1117e+7 
           1305      3.53121e+7 
           1315      7.89046e+7 
           1325      9.52389e+7 
           1335      8.62352e+7 
           1345      1.12545e+8 
           1355      1.04841e+8 
           1365      9.14758e+7 
           1375      1.02472e+8 
           1385      9.71113e+7 
           1395       1.0237e+8 
           1405      1.08695e+8 
           1415      1.04185e+8 
           1425      1.17821e+8 
           1435      1.04152e+8 
           1442       1.2028e+8 
           1447       1.3134e+8 
           1455       1.3142e+8 
           1465      1.18592e+8 
           1475      1.12747e+8 
           1485      1.21185e+8 
           1495      1.32767e+8 
           1505      1.34209e+8 
           1512       1.1871e+8 
           1517       1.3252e+8 
           1525      1.21211e+8 
           1535      1.18142e+8 
           1545      1.40892e+8 
           1555      1.14199e+8 
           1565      9.96449e+7 
           1575      1.21828e+8 
           1585       1.3834e+8 
           1595      1.48528e+8 
           1605      1.39059e+8 
           1615      1.37327e+8 
           1625      1.21374e+8 
           1635      1.26643e+8 
           1645      1.38708e+8 
           1655      1.12193e+8 
           1665       1.3525e+8 
           1672      9.28798e+7 
           1677      1.27606e+8 
           1685      1.43594e+8 
           1695      1.29211e+8 
           1705      1.23009e+8 
           1715      1.22153e+8 
           1725       1.2018e+8 
           1735      1.28792e+8 
           1745      1.25761e+8 
           1755      1.39768e+8 
           1765      1.16156e+8 
           1775      1.31722e+8 
           1785      1.30593e+8 
           1795      1.44213e+8 
           1805      1.35624e+8 
           1815      1.34831e+8 
           1825      1.28505e+8 
           1835      1.23629e+8 
           1845      1.13217e+8 
           1855      1.20123e+8 
           1865      1.20799e+8 
           1875      1.26811e+8 
           1885      1.24653e+8 
           1895      1.23876e+8 
           1905      1.17067e+8 
           1915      1.22905e+8 
           1925      1.23898e+8 
           1935      1.19733e+8 
           1945      1.26492e+8 
           1955      1.24176e+8 
           1967      1.29004e+8 
           1976      1.27407e+8 
           1984      1.22955e+8 
           1995      1.18688e+8 
           2005      1.17282e+8 
           2015      1.11073e+8 
           2025      1.12129e+8 
           2035      1.14541e+8 
           2045      1.18955e+8 
           2055      1.12786e+8 
           2065      1.10804e+8 
           2074      1.16912e+8 
           2078      1.19717e+8 
           2085      1.17883e+8 
           2095      1.13276e+8 
           2105      1.09898e+8 
           2115      1.09762e+8 
           2125      1.11318e+8 
           2135      9.44918e+7 
           2145      1.05608e+8 
           2155      1.07048e+8 
           2165      1.01472e+8 
           2175       9.9633e+7 
           2185      9.96858e+7 
           2195      1.05504e+8 
           2205      1.00907e+8 
           2215      9.21509e+7 
           2225      9.01525e+7 
           2235      1.00359e+8 
           2245      8.99661e+7 
           2255      8.79624e+7 
           2265      8.90746e+7 
           2275      9.43784e+7 
           2285      9.72556e+7 
           2295      9.12243e+7 
           2305      8.89029e+7 
           2315      8.55567e+7 
           2325      8.51638e+7 
           2335      8.01173e+7 
           2345      7.42357e+7 
           2355      8.45566e+7 
           2365      7.45144e+7 
           2375      7.92046e+7 
           2385       6.9369e+7 
           2395      7.67576e+7 
           2405       7.2636e+7 
           2415      7.48908e+7 
           2425      7.98863e+7 
           2435      7.61309e+7 
           2445      8.14899e+7 
           2455      7.81584e+7 
           2465      7.79037e+7 
           2475      7.46002e+7 
           2485      7.88266e+7 
           2495      7.59145e+7 
           2505      8.36966e+7 
           2513       7.4974e+7 
           2518      7.65423e+7 
           2525      7.12614e+7 
           2535      7.02547e+7 
           2545      7.01923e+7 
           2555      7.47858e+7 
           2565      7.43012e+7 
           2575      7.94296e+7 
           2585      7.91996e+7 
           2595      7.75946e+7 
           2605       7.4152e+7 
           2615      7.34703e+7 
           2625      7.77064e+7 
           2635      7.79913e+7 
           2645       8.6067e+7 
           2655      8.46663e+7 
           2665      7.75926e+7 
           2675      8.09832e+7 
           2685      8.01877e+7 
           2695       7.7021e+7 
           2705      7.88725e+7 
           2715      7.50012e+7 
           2725      7.56896e+7 
           2735      8.12261e+7 
           2745       6.9441e+7 
           2755      6.99702e+7 
           2765      7.21161e+7 
           2775      7.71156e+7 
           2785      7.53631e+7 
           2795      5.83852e+7 
           2805      6.54917e+7 
           2815      7.82818e+7 
           2825      7.92344e+7 
           2835      7.59672e+7 
           2845      7.31674e+7 
           2855      7.11166e+7 
           2865      7.55182e+7 
           2875      7.32436e+7 
           2885      7.47735e+7 
           2895      7.18395e+7 
           2910      7.87572e+7 
           2930       7.5474e+7 
           2950      7.51987e+7 
           2970      7.59361e+7 
           2990      7.60783e+7 
           3010      7.70707e+7 
           3030      7.60074e+7 
           3050      7.50503e+7 
           3070      7.40356e+7 
           3090      7.47099e+7 
           3110      7.28601e+7 
           3130      7.23319e+7 
           3150      7.29653e+7 
           3170        7.228e+7 
           3190      6.96957e+7 
           3210      7.07823e+7 
           3230      6.92874e+7 
           3250      6.96749e+7 
           3270      6.96214e+7 
           3290      6.98565e+7 
           3310      6.98057e+7 
           3330       6.8297e+7 
           3350      6.71517e+7 
           3370      6.70304e+7 
           3390      6.63565e+7 
           3410      6.70967e+7 
           3430      6.67135e+7 
           3450       6.6148e+7 
           3470        6.525e+7 
           3490       6.4826e+7 
           3510      6.50893e+7 
           3530      6.49736e+7 
           3550      6.47039e+7 
           3570      6.35878e+7 
           3590      6.31648e+7 
           3610      6.27791e+7 
           3630      6.23923e+7 
           3640      6.20556e+7 
           3650       6.3014e+7 
           3670      6.26144e+7 
           3690       6.0258e+7 
           3710       6.1203e+7 
           3730      6.24114e+7 
           3750       7.9375e+7 
           3770      8.54559e+7 
           3790      1.07644e+8 
           3810      1.26482e+8 
           3830      9.87865e+7 
           3850      1.38589e+8 
           3870      1.57421e+8 
           3890      8.50648e+7 
           3910      1.55257e+8 
           3930      1.60345e+8 
           3950      1.54504e+8 
           3970      8.07651e+7 
           3990      1.47137e+8 
           4010      1.60873e+8 
           4030      1.59512e+8 
           4050      1.57906e+8 
           4070      1.50943e+8 
           4090      1.17193e+8 
           4110      8.81491e+7 
           4130      1.41759e+8 
           4150      1.47452e+8 
           4170      1.45621e+8 
           4190       1.4418e+8 
           4210      1.42518e+8 
           4230      1.39595e+8 
           4250      1.37681e+8 
           4270      1.34816e+8 
           4290      1.33418e+8 
           4310      1.25998e+8 
           4330      9.40894e+7 
           4350      7.94292e+7 
           4370      1.21644e+8 
           4390      1.23087e+8 
           4410      1.22888e+8 
           4430      1.21685e+8 
           4450      1.21265e+8 
           4470      1.19432e+8 
           4490      1.16533e+8 
           4510      1.16358e+8 
           4530      1.14472e+8 
           4550      1.11855e+8 
           4570      1.12137e+8 
           4590      1.09859e+8 
           4610      1.10083e+8 
           4630      1.07162e+8 
           4650      1.07197e+8 
           4670       1.0559e+8 
           4690      1.03494e+8 
           4710      1.00416e+8 
           4730      1.01621e+8 
           4750       1.0026e+8 
           4770      9.89538e+7 
           4790      9.74609e+7 
           4810      9.52892e+7 
           4830       9.1083e+7 
           4850      7.02577e+7 
           4870      5.64231e+7 
           4890      8.57752e+7 
           4910      8.92111e+7 
           4930      8.82501e+7 
           4950      8.81949e+7 
           4970      8.75216e+7 
           4990      8.62798e+7 
           5010       8.4231e+7 
           5030       8.3957e+7 
           5050      8.24277e+7 
           5070      8.22696e+7 
           5090      8.13016e+7 
           5110       8.0248e+7 
           5130      7.93515e+7 
           5150      7.81427e+7 
           5170       7.6454e+7 
           5190      7.57498e+7 
           5210      7.54414e+7 
           5230      7.40102e+7 
           5250       7.3882e+7 
           5270      7.21232e+7 
           5290      7.22331e+7 
           5310      7.08176e+7 
           5330      7.01293e+7 
           5350      6.98705e+7 
           5370      6.89134e+7 
           5390      6.81669e+7 
           5410      6.71657e+7 
           5430      6.65568e+7 
           5450      6.60071e+7 
           5470      6.52168e+7 
           5490      6.45338e+7 
           5510      6.37844e+7 
           5530      6.30246e+7 
           5550      6.24562e+7 
           5570      6.17365e+7 
           5590      6.10917e+7 
           5610      6.04917e+7 
           5630      5.98369e+7 
           5650      5.91001e+7 
           5670      5.84636e+7 
           5690      5.78858e+7 
           5710      5.72811e+7 
           5730       5.6688e+7 
           5750      5.60345e+7 
           5770      5.54555e+7 
           5790      5.48236e+7 
           5810      5.42683e+7 
           5830      5.36959e+7 
           5850      5.31379e+7 
           5870      5.24867e+7 
           5890      5.16986e+7 
           5910      5.14582e+7 
           5930      5.09392e+7 
           5950      5.03026e+7 
           5970      4.98446e+7 
           5990      4.92445e+7 
           6010      4.87901e+7 
           6030      4.83375e+7 
           6050      4.78095e+7 
           6070      4.73477e+7 
           6090      4.68605e+7 
           6110      4.63796e+7 
           6130       4.5885e+7 
           6150      4.50153e+7 
           6170      4.49416e+7 
           6190      4.45435e+7 
           6210       4.4092e+7 
           6230       4.3624e+7 
           6250      4.29749e+7 
           6270      4.27893e+7 
           6290      4.23615e+7 
           6310      4.18795e+7 
           6330      4.15081e+7 
           6350      4.07538e+7 
           6370      4.04732e+7 
           6390      4.02784e+7 
           6410      3.98385e+7 
           6430      3.94836e+7 
           6450      3.88479e+7 
           6470      3.86279e+7 
           6490      3.80789e+7 
           6510      3.75128e+7 
           6530      3.63363e+7 
           6550      3.13335e+7 
           6570      2.52064e+7 
           6590       3.4209e+7 
           6610       3.5563e+7 
           6630       3.5593e+7 
           6650      3.53869e+7 
           6670       3.5092e+7 
           6690      3.48337e+7 
           6710      3.45351e+7 
           6730      3.41713e+7 
           6750      3.38765e+7 
           6770      3.35854e+7 
           6790      3.32628e+7 
           6810      3.29613e+7 
           6830      3.26329e+7 
           6850      3.23398e+7 
           6870      3.20504e+7 
           6890      3.17599e+7 
           6910      3.14643e+7 
           6930      3.11645e+7 
           6950       3.0891e+7 
           6970       3.0607e+7 
           6990      3.03395e+7 
           7010      2.99988e+7 
           7030      2.97811e+7 
           7050      2.94994e+7 
           7070      2.92513e+7 
           7090      2.89973e+7 
           7110      2.85855e+7 
           7130      2.84484e+7 
           7150      2.81944e+7 
           7170       2.7964e+7 
           7190      2.77161e+7 
           7210      2.74749e+7 
           7230      2.72186e+7 
           7250      2.69618e+7 
           7270      2.67574e+7 
           7290      2.65073e+7 
           7310      2.62743e+7 
           7330      2.60575e+7 
           7350      2.58385e+7 
           7370      2.56173e+7 
           7390      2.53864e+7 
           7410      2.51548e+7 
           7430      2.48804e+7 
           7450      2.46981e+7 
           7470      2.44303e+7 
           7490      2.42725e+7 
           7510      2.40806e+7 
           7530       2.3899e+7 
           7550      2.37045e+7 
           7570      2.35005e+7 
           7590      2.33036e+7 
           7610       2.3111e+7 
           7630      2.29111e+7 
           7650      2.27103e+7 
           7670      2.25139e+7 
           7690      2.23307e+7 
           7710       2.2137e+7 
           7730      2.19684e+7 
           7750      2.17849e+7 
           7770      2.12093e+7 
           7790      2.14277e+7 
           7810      2.12526e+7 
           7830      2.10655e+7 
           7850      2.08684e+7 
           7870      2.06415e+7 
           7890      2.04335e+7 
           7910      2.03628e+7 
           7930      2.02159e+7 
           7950      1.99736e+7 
           7970       1.9902e+7 
           7990      1.95511e+7 
           8010      1.95769e+7 
           8030       1.9414e+7 
           8050      1.92642e+7 
           8070      1.91035e+7 
           8090      1.89539e+7 
           8110      1.88009e+7 
           8130       1.8659e+7 
           8150      1.85108e+7 
           8170      1.83649e+7 
           8190        1.814e+7 
           8210      1.80596e+7 
           8230       1.7904e+7 
           8250      1.78229e+7 
           8270      1.77797e+7 
           8290       1.7631e+7 
           8310      1.75184e+7 
           8330      1.73231e+7 
           8350      1.72553e+7 
           8370      1.71224e+7 
           8390      1.69644e+7 
           8410      1.67975e+7 
           8430      1.66452e+7 
           8450      1.63312e+7 
           8470      1.61402e+7 
           8490      1.63125e+7 
           8510      1.55727e+7 
           8530      1.62267e+7 
           8550      1.47234e+7 
           8570      1.63167e+7 
           8590      1.50915e+7 
           8610      1.47171e+7 
           8630      1.64143e+7 
           8650      1.56165e+7 
           8670       1.2982e+7 
           8690      1.59385e+7 
           8710      1.66405e+7 
           8730      1.58224e+7 
           8750      1.23486e+7 
           8770       1.4929e+7 
           8790      1.65209e+7 
           8810       1.6679e+7 
           8830      1.61358e+7 
           8850      1.40557e+7 
           8870      1.18492e+7 
           8890      1.51832e+7 
           8910      1.60291e+7 
           8930      1.61241e+7 
           8950      1.61137e+7 
           8970       1.5784e+7 
           8990      1.48254e+7 
           9010      1.15794e+7 
           9030      1.26721e+7 
           9050       1.4836e+7 
           9070      1.51017e+7 
           9090      1.50577e+7 
           9110      1.51945e+7 
           9130      1.51457e+7 
           9150      1.50395e+7 
           9170      1.48077e+7 
           9190      1.43472e+7 
