# Kurucz ODFNEW /NOVER (2003)
# teff = 19000 K (value for the effective temperature for the model. Temperatures are given in K)
# logg = 3 log(cm/s2) (value for Log(G) for the model.)
# meta = -2  (value for the Metallicity for the model.)
# lh = 1.25  (l/Hp where l is the  mixing length of the convective element and Hp is the pressure scale height)
# vtur = 2 km/s (Microturbulence velocity)
# alpha = 0.4  (Alpha)
#
# column 1: WAVELENGTH (ANGSTROM), Wavelength in Angstrom
# column 2: FLUX (ERG/CM2/S/A), Flux in erg/cm2/s/A
          147.2     7.97731e-22 
            151     6.11696e-21 
          155.2     5.12471e-20 
          158.8     2.89926e-19 
            162     1.26913e-18 
            166     7.42248e-18 
          170.3     4.52069e-17 
          173.4     1.57257e-16 
          176.8     5.86615e-16 
          180.2     2.08215e-15 
          181.7     3.58576e-15 
          186.1     1.67788e-14 
            191     8.59101e-14 
          193.9     2.17096e-13 
          198.4     8.65904e-13 
          201.8     2.36131e-12 
            205     5.88442e-12 
          210.5     2.64364e-11 
          216.2     1.15391e-10 
          219.8     2.80995e-10 
            223     6.04484e-10 
          226.8      1.45797e-9 
            230      4.60379e-9 
            234      1.15518e-8 
            240      3.88299e-8 
          246.5      1.34752e-7 
          252.4      3.95335e-7 
          256.8      8.44219e-7 
            260      1.46178e-6 
            264      2.82017e-6 
          268.5      5.76024e-6 
          273.5      1.23783e-5 
          278.5      2.58802e-5 
            284      5.64422e-5 
            290     0.000127559 
            296     0.000278316 
            301     0.000520554 
            308      0.00119996 
            318      0.00374703 
            328       0.0108182 
            338       0.0292413 
            348       0.0744102 
            357        0.164438 
            366        0.348786 
            375        0.711319 
            385         1.50616 
            395         3.06068 
            405         5.99069 
            414         10.6427 
            422         17.3423 
            430         27.6995 
            441         51.2092 
            451         86.9955 
            460         137.157 
            470         222.422 
            480         352.759 
            490         548.054 
            500         834.953 
            506         6792.98 
            512         20231.6 
            520         26814.1 
            530         41947.2 
            540         47164.8 
            550         74237.5 
            560         95032.9 
            570          122365 
            580          124475 
            590          175172 
            600          238522 
            610          297384 
            620          360363 
            630          439546 
            640          519557 
            650          626191 
            658          726791 
            665          812606 
            675          941689 
            685      1.10098e+6 
            695      1.30913e+6 
            705      1.50745e+6 
            716      1.76417e+6 
            726       2.0146e+6 
            735      2.28663e+6 
            745      2.61819e+6 
            755      2.97345e+6 
            765      3.34787e+6 
            775       3.7874e+6 
            785      4.25041e+6 
            795      4.73528e+6 
            805      5.28046e+6 
            815      5.84243e+6 
            825      6.48985e+6 
            835      7.05991e+6 
            845      7.84509e+6 
            855       8.5779e+6 
            865      9.43957e+6 
            875      1.03199e+7 
            885       1.1289e+7 
            895      1.22661e+7 
            905      1.31033e+7 
            915       2.7394e+7 
            925      4.05179e+8 
            935      1.56686e+9 
            945      4.09767e+9 
            955      5.20302e+9 
            965      6.43077e+9 
            975       2.5642e+9 
            985      6.89566e+9 
            995      6.63293e+9 
           1005      6.90591e+9 
           1015      6.54306e+9 
           1025      2.64687e+9 
           1035       5.7106e+9 
           1045      7.25291e+9 
           1055        7.068e+9 
           1065      6.46458e+9 
           1075      6.90721e+9 
           1085       6.4979e+9 
           1095      6.92835e+9 
           1105       6.4848e+9 
           1115      6.50718e+9 
           1125      6.20448e+9 
           1135      6.53429e+9 
           1145      6.18991e+9 
           1155      6.40315e+9 
           1165      6.40334e+9 
           1175      5.67103e+9 
           1185      6.27218e+9 
           1195      5.67933e+9 
           1205      4.43065e+9 
           1215      1.70715e+9 
           1225      4.95645e+9 
           1235      5.70766e+9 
           1245      5.77699e+9 
           1255      5.62287e+9 
           1265      5.54774e+9 
           1275      5.63788e+9 
           1285      5.53929e+9 
           1295      4.90684e+9 
           1305      4.93856e+9 
           1315      5.33431e+9 
           1325      5.18071e+9 
           1335      4.96599e+9 
           1345      5.06735e+9 
           1355      5.07654e+9 
           1365      4.92843e+9 
           1375      4.86856e+9 
           1385      4.85154e+9 
           1395      4.57722e+9 
           1405      4.61459e+9 
           1415      4.63954e+9 
           1425      4.58114e+9 
           1435       4.5649e+9 
           1442      4.55402e+9 
           1447      4.51397e+9 
           1455      4.44952e+9 
           1465      4.37845e+9 
           1475      4.32292e+9 
           1485      4.25276e+9 
           1495      4.18881e+9 
           1505      4.08194e+9 
           1512       4.0233e+9 
           1517      4.03742e+9 
           1525      3.98286e+9 
           1535      3.83808e+9 
           1545      3.86605e+9 
           1555      3.75666e+9 
           1565      3.77879e+9 
           1575      3.76635e+9 
           1585      3.71582e+9 
           1595      3.68729e+9 
           1605      3.58211e+9 
           1615      3.53702e+9 
           1625      3.52116e+9 
           1635      3.50358e+9 
           1645      3.44385e+9 
           1655       3.4003e+9 
           1665       3.3873e+9 
           1672      3.30442e+9 
           1677       3.3465e+9 
           1685      3.30989e+9 
           1695      3.24354e+9 
           1705      3.18163e+9 
           1715      3.10877e+9 
           1725      3.08385e+9 
           1735      3.06517e+9 
           1745      3.01839e+9 
           1755      3.01173e+9 
           1765      2.89474e+9 
           1775      2.89857e+9 
           1785      2.87635e+9 
           1795      2.86602e+9 
           1805      2.83458e+9 
           1815      2.77107e+9 
           1825      2.75787e+9 
           1835      2.72129e+9 
           1845      2.62104e+9 
           1855      2.56067e+9 
           1865       2.5609e+9 
           1875      2.57888e+9 
           1885      2.47016e+9 
           1895      2.39066e+9 
           1905       2.4522e+9 
           1915      2.37529e+9 
           1925      2.33787e+9 
           1935      2.35442e+9 
           1945      2.35497e+9 
           1955       2.2578e+9 
           1967      2.29362e+9 
           1976      2.30356e+9 
           1984      2.23573e+9 
           1995      2.17697e+9 
           2005      2.19701e+9 
           2015      2.19196e+9 
           2025      2.18497e+9 
           2035       2.1298e+9 
           2045      2.10695e+9 
           2055      2.04644e+9 
           2065      2.04761e+9 
           2074      2.06876e+9 
           2078      2.01771e+9 
           2085      2.02013e+9 
           2095       1.9723e+9 
           2105      1.97801e+9 
           2115      1.96247e+9 
           2125      1.95722e+9 
           2135      1.92992e+9 
           2145      1.89461e+9 
           2155      1.88842e+9 
           2165      1.86684e+9 
           2175      1.84374e+9 
           2185       1.8258e+9 
           2195      1.81037e+9 
           2205       1.7881e+9 
           2215      1.76792e+9 
           2225      1.74354e+9 
           2235      1.72737e+9 
           2245      1.71254e+9 
           2255      1.68938e+9 
           2265      1.67597e+9 
           2275      1.65697e+9 
           2285      1.64214e+9 
           2295      1.61055e+9 
           2305      1.60512e+9 
           2315      1.58418e+9 
           2325       1.5694e+9 
           2335       1.5432e+9 
           2345      1.52185e+9 
           2355      1.51934e+9 
           2365      1.49675e+9 
           2375      1.48424e+9 
           2385      1.46142e+9 
           2395       1.4499e+9 
           2405      1.43566e+9 
           2415      1.41746e+9 
           2425      1.41271e+9 
           2435      1.39453e+9 
           2445      1.38119e+9 
           2455      1.36996e+9 
           2465      1.35329e+9 
           2475      1.34053e+9 
           2485      1.32641e+9 
           2495      1.29673e+9 
           2505      1.29955e+9 
           2513      1.27983e+9 
           2518      1.27951e+9 
           2525      1.27018e+9 
           2535      1.25543e+9 
           2545      1.23773e+9 
           2555      1.23522e+9 
           2565      1.21827e+9 
           2575      1.21207e+9 
           2585      1.19938e+9 
           2595      1.18691e+9 
           2605      1.18209e+9 
           2615      1.17158e+9 
           2625       1.1601e+9 
           2635      1.14475e+9 
           2645      1.13982e+9 
           2655      1.12778e+9 
           2665      1.11445e+9 
           2675       1.1045e+9 
           2685      1.09964e+9 
           2695      1.08127e+9 
           2705      1.07793e+9 
           2715      1.06698e+9 
           2725      1.04887e+9 
           2735      1.04695e+9 
           2745      1.02929e+9 
           2755      1.02104e+9 
           2765      1.00844e+9 
           2775      1.00794e+9 
           2785       9.9775e+8 
           2795      9.69887e+8 
           2805      9.71507e+8 
           2815      9.70417e+8 
           2825       9.5341e+8 
           2835      9.45336e+8 
           2845      9.42752e+8 
           2855      9.34218e+8 
           2865      9.26009e+8 
           2875      9.17163e+8 
           2885      9.08824e+8 
           2895      9.00489e+8 
           2910      8.87982e+8 
           2930       8.7081e+8 
           2950      8.50991e+8 
           2970       8.4055e+8 
           2990      8.24961e+8 
           3010      8.10541e+8 
           3030      7.96389e+8 
           3050      7.82293e+8 
           3070      7.68536e+8 
           3090      7.54595e+8 
           3110      7.41805e+8 
           3130      7.29779e+8 
           3150      7.16934e+8 
           3170      7.04392e+8 
           3190      6.87517e+8 
           3210      6.80549e+8 
           3230      6.68897e+8 
           3250      6.57587e+8 
           3270      6.47172e+8 
           3290      6.35568e+8 
           3310      6.25814e+8 
           3330      6.15431e+8 
           3350      6.04311e+8 
           3370      5.95335e+8 
           3390       5.8561e+8 
           3410      5.76105e+8 
           3430      5.64667e+8 
           3450      5.53929e+8 
           3470      5.46498e+8 
           3490      5.38242e+8 
           3510      5.32157e+8 
           3530      5.23937e+8 
           3550      5.15778e+8 
           3570      5.09335e+8 
           3590       4.9935e+8 
           3610      4.91953e+8 
           3630       4.8386e+8 
           3640       4.8237e+8 
           3650      4.78232e+8 
           3670      4.71887e+8 
           3690      4.54584e+8 
           3710      4.61055e+8 
           3730      4.69609e+8 
           3750      5.32712e+8 
           3770      5.36697e+8 
           3790       5.5397e+8 
           3810      5.77002e+8 
           3830       5.1051e+8 
           3850      5.86145e+8 
           3870      5.79473e+8 
           3890      4.89705e+8 
           3910      5.69674e+8 
           3930      5.57329e+8 
           3950       5.5182e+8 
           3970      4.55491e+8 
           3990      5.32861e+8 
           4010      5.24794e+8 
           4030      5.02873e+8 
           4050      5.12067e+8 
           4070      5.02885e+8 
           4090      4.79174e+8 
           4110      4.22826e+8 
           4130      4.74553e+8 
           4150      4.69072e+8 
           4170      4.64301e+8 
           4190      4.58549e+8 
           4210      4.51588e+8 
           4230      4.44633e+8 
           4250      4.37726e+8 
           4270      4.30164e+8 
           4290      4.24484e+8 
           4310      4.17389e+8 
           4330       3.9152e+8 
           4350      3.57786e+8 
           4370      3.98491e+8 
           4390      3.86834e+8 
           4410      3.87614e+8 
           4430      3.80455e+8 
           4450      3.76473e+8 
           4470      3.60384e+8 
           4490      3.64936e+8 
           4510      3.60206e+8 
           4530      3.54922e+8 
           4550      3.49697e+8 
           4570      3.44605e+8 
           4590      3.39767e+8 
           4610       3.3491e+8 
           4630      3.30125e+8 
           4650      3.25114e+8 
           4670       3.2078e+8 
           4690      3.16338e+8 
           4710      3.08324e+8 
           4730      3.07272e+8 
           4750      3.02786e+8 
           4770      2.98994e+8 
           4790      2.94828e+8 
           4810      2.90655e+8 
           4830       2.8617e+8 
           4850       2.7177e+8 
           4870      2.43826e+8 
           4890      2.74149e+8 
           4910       2.7131e+8 
           4930      2.63285e+8 
           4950      2.64053e+8 
           4970      2.60529e+8 
           4990      2.57007e+8 
           5010      2.50907e+8 
           5030      2.50166e+8 
           5050      2.45205e+8 
           5070      2.43596e+8 
           5090      2.40377e+8 
           5110      2.37201e+8 
           5130      2.34081e+8 
           5150      2.31016e+8 
           5170       2.2802e+8 
           5190      2.25063e+8 
           5210       2.2202e+8 
           5230      2.19279e+8 
           5250      2.16463e+8 
           5270       2.1367e+8 
           5290      2.10954e+8 
           5310      2.08259e+8 
           5330      2.05598e+8 
           5350      2.02958e+8 
           5370      2.00443e+8 
           5390      1.97921e+8 
           5410      1.95431e+8 
           5430      1.92933e+8 
           5450      1.90556e+8 
           5470      1.88195e+8 
           5490      1.85889e+8 
           5510      1.83574e+8 
           5530      1.81313e+8 
           5550      1.79103e+8 
           5570      1.76896e+8 
           5590      1.74753e+8 
           5610      1.72599e+8 
           5630      1.70531e+8 
           5650      1.68382e+8 
           5670      1.66388e+8 
           5690      1.64406e+8 
           5710       1.6247e+8 
           5730      1.60523e+8 
           5750        1.586e+8 
           5770      1.56732e+8 
           5790      1.54876e+8 
           5810      1.53042e+8 
           5830       1.5124e+8 
           5850       1.4947e+8 
           5870      1.44266e+8 
           5890      1.45926e+8 
           5910      1.44293e+8 
           5930      1.42625e+8 
           5950      1.40955e+8 
           5970      1.39346e+8 
           5990      1.37735e+8 
           6010      1.36162e+8 
           6030      1.34608e+8 
           6050      1.33071e+8 
           6070      1.31562e+8 
           6090      1.30069e+8 
           6110      1.28604e+8 
           6130      1.27154e+8 
           6150      1.25711e+8 
           6170      1.24313e+8 
           6190      1.22931e+8 
           6210      1.21555e+8 
           6230      1.20203e+8 
           6250      1.18866e+8 
           6270      1.17562e+8 
           6290      1.16264e+8 
           6310      1.14979e+8 
           6330      1.13727e+8 
           6350      1.12414e+8 
           6370      1.11226e+8 
           6390      1.10051e+8 
           6410      1.08852e+8 
           6430      1.07684e+8 
           6450      1.06519e+8 
           6470      1.05376e+8 
           6490      1.04244e+8 
           6510      1.03125e+8 
           6530      1.01876e+8 
           6550      9.87342e+7 
           6570      8.83852e+7 
           6590       9.8268e+7 
           6610       9.7769e+7 
           6630      9.67516e+7 
           6650      9.58042e+7 
           6670      9.41212e+7 
           6690      9.31636e+7 
           6710       9.2835e+7 
           6730      9.18682e+7 
           6750      9.09194e+7 
           6770      8.99803e+7 
           6790      8.90506e+7 
           6810      8.81384e+7 
           6830      8.72353e+7 
           6850      8.63413e+7 
           6870      8.54641e+7 
           6890      8.45957e+7 
           6910      8.37359e+7 
           6930      8.28846e+7 
           6950      8.20572e+7 
           6970      8.12303e+7 
           6990      8.04037e+7 
           7010      7.96083e+7 
           7030      7.88129e+7 
           7050      7.80253e+7 
           7070      7.61525e+7 
           7090      7.64879e+7 
           7110      7.57303e+7 
           7130        7.498e+7 
           7150      7.42442e+7 
           7170      7.35008e+7 
           7190      7.27944e+7 
           7210      7.20831e+7 
           7230      7.12993e+7 
           7250      7.06864e+7 
           7270      7.00015e+7 
           7290      6.88332e+7 
           7310      6.86446e+7 
           7330       6.7995e+7 
           7350      6.73423e+7 
           7370      6.66971e+7 
           7390        6.606e+7 
           7410      6.54301e+7 
           7430      6.48067e+7 
           7450       6.4202e+7 
           7470       6.3594e+7 
           7490      6.29936e+7 
           7510      6.23787e+7 
           7530      6.18139e+7 
           7550       6.1235e+7 
           7570      6.06621e+7 
           7590      6.00956e+7 
           7610      5.95362e+7 
           7630      5.89837e+7 
           7650      5.84369e+7 
           7670      5.78975e+7 
           7690      5.73623e+7 
           7710      5.68306e+7 
           7730      5.63144e+7 
           7750      5.57926e+7 
           7770      5.52587e+7 
           7790      5.47853e+7 
           7810      5.42482e+7 
           7830      5.37951e+7 
           7850      5.33581e+7 
           7870      5.28755e+7 
           7890      5.23651e+7 
           7910      5.19339e+7 
           7930      5.14158e+7 
           7950      5.08904e+7 
           7970      5.04088e+7 
           7990      5.00074e+7 
           8010       4.9542e+7 
           8030      4.91202e+7 
           8050      4.87131e+7 
           8070      4.83042e+7 
           8090      4.77939e+7 
           8110      4.74079e+7 
           8130      4.70615e+7 
           8150      4.65591e+7 
           8170      4.62456e+7 
           8190      4.58134e+7 
           8210      4.53194e+7 
           8230      4.50588e+7 
           8250      4.46773e+7 
           8270       4.4088e+7 
           8290      4.38552e+7 
           8310      4.34916e+7 
           8330      4.31098e+7 
           8350      4.25556e+7 
           8370      4.22084e+7 
           8390      4.18811e+7 
           8410      4.14648e+7 
           8430      4.11061e+7 
           8450      4.06278e+7 
           8470      3.99678e+7 
           8490      4.04419e+7 
           8510      3.90722e+7 
           8530      4.00878e+7 
           8550      3.77459e+7 
           8570      4.01438e+7 
           8590       3.7898e+7 
