# Kurucz ODFNEW /NOVER (2003)
# teff = 19000 K (value for the effective temperature for the model. Temperatures are given in K)
# logg = 5 log(cm/s2) (value for Log(G) for the model.)
# meta = -0.5  (value for the Metallicity for the model.)
# lh = 1.25  (l/Hp where l is the  mixing length of the convective element and Hp is the pressure scale height)
# vtur = 2 km/s (Microturbulence velocity)
# alpha = 0  (Alpha)
#
# column 1: WAVELENGTH (ANGSTROM), Wavelength in Angstrom
# column 2: FLUX (ERG/CM2/S/A), Flux in erg/cm2/s/A
          147.2     9.50698e-21 
            151     6.23691e-20 
          155.2     4.48424e-19 
          158.8     2.23551e-18 
            162     8.78935e-18 
            166     4.52209e-17 
          170.3     2.41479e-16 
          173.4      7.6744e-16 
          176.8     2.60351e-15 
          180.2     8.43684e-15 
          181.7     1.39726e-14 
          186.1     5.86373e-14 
            191     2.67824e-13 
          193.9     6.32632e-13 
          198.4     2.28722e-12 
          201.8     5.83329e-12 
            205     1.37156e-11 
          210.5     5.57822e-11 
          216.2      2.2169e-10 
          219.8     5.10961e-10 
            223       1.0468e-9 
          226.8      2.39375e-9 
            230      5.94371e-9 
            234      1.48494e-8 
            240      4.85811e-8 
          246.5      1.62764e-7 
          252.4       4.6262e-7 
          256.8      9.66585e-7 
            260      1.65477e-6 
            264      3.14174e-6 
          268.5      6.30267e-6 
          273.5      1.32869e-5 
          278.5      2.73252e-5 
            284      5.85814e-5 
            290     0.000130019 
            296     0.000278712 
            301     0.000514733 
            308       0.0011658 
            318      0.00356735 
            328       0.0100976 
            338       0.0268681 
            348       0.0673829 
            357        0.147273 
            366        0.309582 
            375        0.625002 
            385         1.31154 
            395         2.64224 
            405         5.13491 
            414         9.07293 
            422         14.7067 
            430         23.3536 
            441         43.0211 
            451         72.8081 
            460         114.395 
            470         184.971 
            480         292.521 
            490         453.519 
            500          689.37 
            506         5857.61 
            512         16463.5 
            520         21323.4 
            530         30308.7 
            540         37320.2 
            550         54100.8 
            560         69597.6 
            570           90967 
            580          102547 
            590          141330 
            600          180380 
            610          226726 
            620          275383 
            630          338088 
            640          399355 
            650          480751 
            658          566716 
            665          633912 
            675          740056 
            685          872325 
            695      1.04044e+6 
            705      1.20608e+6 
            716      1.41482e+6 
            726      1.62471e+6 
            735      1.84025e+6 
            745      2.12052e+6 
            755      2.42359e+6 
            765      2.74044e+6 
            775      3.11382e+6 
            785      3.51178e+6 
            795        3.917e+6 
            805      4.38024e+6 
            815      4.85584e+6 
            825      5.42418e+6 
            835      5.91496e+6 
            845      6.57248e+6 
            855      7.21482e+6 
            865      7.96986e+6 
            875      8.74677e+6 
            885      9.62476e+6 
            895      1.04837e+7 
            905      1.11626e+7 
            915      1.67651e+7 
            925      5.04184e+7 
            935      1.02096e+8 
            945      4.29746e+8 
            955      1.64695e+9 
            965      2.46635e+9 
            975      5.61314e+8 
            985      5.63099e+9 
            995      6.64093e+9 
           1005      7.30874e+9 
           1015      4.30182e+9 
           1025      3.19015e+8 
           1035      2.82351e+9 
           1045      8.03154e+9 
           1055      8.63209e+9 
           1065      7.41286e+9 
           1075      8.65324e+9 
           1085      7.90821e+9 
           1095      8.53986e+9 
           1105      7.75411e+9 
           1115      7.57413e+9 
           1125       7.1707e+9 
           1135      7.93684e+9 
           1145      7.04767e+9 
           1155      7.40821e+9 
           1165      7.65242e+9 
           1175       6.3502e+9 
           1185      7.24042e+9 
           1195      4.88948e+9 
           1205      2.64381e+9 
           1215      3.69833e+8 
           1225      2.08102e+9 
           1235       5.5397e+9 
           1245      6.47575e+9 
           1255       6.4751e+9 
           1265      5.97173e+9 
           1275      6.48861e+9 
           1285      6.61502e+9 
           1295      5.33209e+9 
           1305      4.83547e+9 
           1315      6.23146e+9 
           1325      5.95729e+9 
           1335      5.47922e+9 
           1345      5.90576e+9 
           1355       5.7194e+9 
           1365      5.40176e+9 
           1375      5.39701e+9 
           1385       5.4421e+9 
           1395      5.09914e+9 
           1405      5.21556e+9 
           1415      5.07624e+9 
           1425      5.08373e+9 
           1435       5.0133e+9 
           1442      5.11639e+9 
           1447      5.05878e+9 
           1455      4.94316e+9 
           1465      4.75251e+9 
           1475      4.66612e+9 
           1485      4.51346e+9 
           1495       4.5234e+9 
           1505      4.32161e+9 
           1512      4.08724e+9 
           1517      4.21684e+9 
           1525      4.17547e+9 
           1535      3.92075e+9 
           1545      4.03066e+9 
           1555      3.81104e+9 
           1565      3.75572e+9 
           1575      3.87478e+9 
           1585      3.85543e+9 
           1595      3.88424e+9 
           1605      3.72997e+9 
           1615      3.69605e+9 
           1625      3.57594e+9 
           1635      3.61196e+9 
           1645      3.56665e+9 
           1655      3.36371e+9 
           1665      3.55187e+9 
           1672      3.39403e+9 
           1677      3.44362e+9 
           1685      3.46513e+9 
           1695      3.34792e+9 
           1705      3.21273e+9 
           1715      3.09584e+9 
           1725      3.04511e+9 
           1735      3.11398e+9 
           1745      3.01183e+9 
           1755      3.07264e+9 
           1765      2.84069e+9 
           1775       2.9348e+9 
           1785      2.90816e+9 
           1795       2.9419e+9 
           1805      2.90257e+9 
           1815      2.78582e+9 
           1825      2.80447e+9 
           1835      2.71625e+9 
           1845      2.57223e+9 
           1855      2.50648e+9 
           1865      2.51249e+9 
           1875      2.60181e+9 
           1885      2.44143e+9 
           1895      2.34691e+9 
           1905      2.44234e+9 
           1915      2.34263e+9 
           1925      2.29924e+9 
           1935       2.3195e+9 
           1945      2.35009e+9 
           1955      2.22123e+9 
           1967      2.30122e+9 
           1976      2.33694e+9 
           1984      2.22845e+9 
           1995      2.15899e+9 
           2005       2.1853e+9 
           2015      2.13935e+9 
           2025      2.19177e+9 
           2035      2.10406e+9 
           2045      2.09173e+9 
           2055      2.01254e+9 
           2065      2.03427e+9 
           2074      2.05492e+9 
           2078      2.00261e+9 
           2085      2.01683e+9 
           2095      1.94389e+9 
           2105      1.96084e+9 
           2115      1.94166e+9 
           2125      1.95505e+9 
           2135      1.90339e+9 
           2145      1.87389e+9 
           2155      1.87974e+9 
           2165      1.83405e+9 
           2175      1.81236e+9 
           2185      1.78792e+9 
           2195      1.79591e+9 
           2205      1.74998e+9 
           2215      1.71471e+9 
           2225      1.66836e+9 
           2235      1.69879e+9 
           2245      1.66582e+9 
           2255      1.62567e+9 
           2265      1.63169e+9 
           2275      1.61963e+9 
           2285      1.61667e+9 
           2295      1.57136e+9 
           2305      1.55208e+9 
           2315      1.52429e+9 
           2325      1.51239e+9 
           2335      1.46706e+9 
           2345      1.42278e+9 
           2355      1.44007e+9 
           2365       1.3966e+9 
           2375      1.40376e+9 
           2385      1.35877e+9 
           2395      1.38291e+9 
           2405      1.34623e+9 
           2415      1.34072e+9 
           2425      1.34551e+9 
           2435      1.30265e+9 
           2445       1.3096e+9 
           2455      1.30276e+9 
           2465      1.27411e+9 
           2475      1.25812e+9 
           2485      1.26961e+9 
           2495      1.23452e+9 
           2505      1.24918e+9 
           2513      1.21314e+9 
           2518      1.22835e+9 
           2525      1.19141e+9 
           2535      1.17394e+9 
           2545      1.16153e+9 
           2555      1.17883e+9 
           2565      1.16073e+9 
           2575      1.16775e+9 
           2585      1.16274e+9 
           2595      1.15055e+9 
           2605      1.13163e+9 
           2615      1.12227e+9 
           2625      1.11084e+9 
           2635      1.10281e+9 
           2645      1.11834e+9 
           2655      1.10576e+9 
           2665      1.08024e+9 
           2675      1.08113e+9 
           2685      1.07142e+9 
           2695      1.05228e+9 
           2705      1.04755e+9 
           2715      1.02947e+9 
           2725      1.01381e+9 
           2735        1.019e+9 
           2745      9.80943e+8 
           2755      9.74976e+8 
           2765      9.75033e+8 
           2775      9.81863e+8 
           2785      9.69822e+8 
           2795      9.31452e+8 
           2805      9.46417e+8 
           2815      9.49261e+8 
           2825      9.32403e+8 
           2835      9.10416e+8 
           2845      9.07052e+8 
           2855      9.05239e+8 
           2865       9.0531e+8 
           2875      8.92004e+8 
           2885      8.86329e+8 
           2895      8.79902e+8 
           2910      8.70142e+8 
           2930      8.48606e+8 
           2950      8.30082e+8 
           2970      8.21673e+8 
           2990      8.04776e+8 
           3010      7.94325e+8 
           3030      7.81452e+8 
           3050      7.66742e+8 
           3070      7.52907e+8 
           3090      7.40194e+8 
           3110      7.26303e+8 
           3130      7.14705e+8 
           3150      7.01975e+8 
           3170      6.89884e+8 
           3190      6.72005e+8 
           3210      6.65851e+8 
           3230      6.55031e+8 
           3250      6.44105e+8 
           3270       6.3396e+8 
           3290      6.23039e+8 
           3310      6.13366e+8 
           3330      6.03065e+8 
           3350      5.92327e+8 
           3370      5.83228e+8 
           3390      5.73744e+8 
           3410      5.64571e+8 
           3430      5.54612e+8 
           3450      5.44845e+8 
           3470      5.36768e+8 
           3490      5.28283e+8 
           3510      5.20353e+8 
           3530      5.12478e+8 
           3550      5.04239e+8 
           3570        4.976e+8 
           3590      4.87891e+8 
           3610      4.81344e+8 
           3630      4.73081e+8 
           3640      4.71253e+8 
           3650       4.6678e+8 
           3670      4.61286e+8 
           3690      4.54169e+8 
           3710        4.405e+8 
           3730      4.19677e+8 
           3750      4.28233e+8 
           3770      4.25874e+8 
           3790      4.63853e+8 
           3810      4.99586e+8 
           3830      4.24193e+8 
           3850      5.27612e+8 
           3870      5.59878e+8 
           3890      3.89499e+8 
           3910      5.55529e+8 
           3930      5.66671e+8 
           3950      5.41945e+8 
           3970      3.66573e+8 
           3990      5.14237e+8 
           4010      5.37586e+8 
           4030      5.01064e+8 
           4050      5.30809e+8 
           4070      5.13187e+8 
           4090       4.3089e+8 
           4110       3.6067e+8 
           4130      4.75525e+8 
           4150      4.83705e+8 
           4170       4.8276e+8 
           4190      4.77711e+8 
           4210      4.70824e+8 
           4230      4.63098e+8 
           4250      4.55246e+8 
           4270      4.44234e+8 
           4290      4.38178e+8 
           4310      4.22318e+8 
           4330      3.47074e+8 
           4350       3.1086e+8 
           4370      3.99003e+8 
           4390      3.90391e+8 
           4410      4.00379e+8 
           4430      3.93471e+8 
           4450      3.89409e+8 
           4470      3.60912e+8 
           4490      3.74672e+8 
           4510      3.73264e+8 
           4530      3.67222e+8 
           4550       3.6178e+8 
           4570      3.56673e+8 
           4590      3.51407e+8 
           4610      3.46167e+8 
           4630      3.40687e+8 
           4650      3.35759e+8 
           4670      3.31127e+8 
           4690       3.2646e+8 
           4710      3.16476e+8 
           4730      3.16061e+8 
           4750      3.11135e+8 
           4770      3.07455e+8 
           4790      3.02331e+8 
           4810      2.95963e+8 
           4830      2.85847e+8 
           4850       2.4315e+8 
           4870      2.12232e+8 
           4890      2.70304e+8 
           4910      2.74654e+8 
           4930      2.65223e+8 
           4950      2.70372e+8 
           4970      2.67407e+8 
           4990      2.63679e+8 
           5010       2.5565e+8 
           5030      2.56152e+8 
           5050      2.49725e+8 
           5070      2.49635e+8 
           5090      2.46223e+8 
           5110      2.42698e+8 
           5130      2.39506e+8 
           5150      2.36115e+8 
           5170      2.33249e+8 
           5190      2.30168e+8 
           5210      2.26309e+8 
           5230      2.24099e+8 
           5250      2.21206e+8 
           5270      2.18214e+8 
           5290      2.15571e+8 
           5310      2.12695e+8 
           5330      2.09908e+8 
           5350      2.06972e+8 
           5370      2.04637e+8 
           5390      2.02006e+8 
           5410      1.99344e+8 
           5430      1.96562e+8 
           5450      1.94209e+8 
           5470      1.91708e+8 
           5490      1.89477e+8 
           5510      1.87012e+8 
           5530      1.84725e+8 
           5550      1.82442e+8 
           5570      1.80151e+8 
           5590      1.77924e+8 
           5610      1.75664e+8 
           5630      1.73633e+8 
           5650      1.71014e+8 
           5670      1.69036e+8 
           5690      1.67187e+8 
           5710      1.65255e+8 
           5730      1.63266e+8 
           5750      1.61289e+8 
           5770      1.59358e+8 
           5790      1.57416e+8 
           5810      1.55519e+8 
           5830      1.53667e+8 
           5850      1.51837e+8 
           5870      1.45304e+8 
           5890      1.47707e+8 
           5910      1.46493e+8 
           5930      1.44811e+8 
           5950      1.42902e+8 
           5970      1.41407e+8 
           5990      1.39635e+8 
           6010      1.38165e+8 
           6030      1.36556e+8 
           6050      1.34985e+8 
           6070      1.33412e+8 
           6090      1.31867e+8 
           6110        1.304e+8 
           6130      1.28899e+8 
           6150      1.27285e+8 
           6170      1.25976e+8 
           6190      1.24563e+8 
           6210      1.23157e+8 
           6230      1.21746e+8 
           6250      1.20274e+8 
           6270      1.19048e+8 
           6290      1.17711e+8 
           6310       1.1636e+8 
           6330      1.15119e+8 
           6350      1.13348e+8 
           6370      1.12275e+8 
           6390      1.11334e+8 
           6410      1.10072e+8 
           6430      1.08942e+8 
           6450      1.07696e+8 
           6470       1.0642e+8 
           6490       1.0504e+8 
           6510      1.03489e+8 
           6530      1.01045e+8 
           6550      9.21572e+7 
           6570      8.02161e+7 
           6590      9.58911e+7 
           6610      9.77518e+7 
           6630      9.73172e+7 
           6650      9.65112e+7 
           6670      9.46293e+7 
           6690      9.37613e+7 
           6710      9.37219e+7 
           6730      9.27415e+7 
           6750      9.17793e+7 
           6770      9.08269e+7 
           6790      8.98269e+7 
           6810      8.89345e+7 
           6830      8.80025e+7 
           6850       8.7112e+7 
           6870      8.62224e+7 
           6890      8.53337e+7 
           6910      8.44618e+7 
           6930      8.35592e+7 
           6950      8.27514e+7 
           6970      8.19127e+7 
           6990      8.10822e+7 
           7010      8.02522e+7 
           7030      7.94456e+7 
           7050      7.86014e+7 
           7070      7.68836e+7 
           7090      7.70949e+7 
           7110      7.63116e+7 
           7130       7.5558e+7 
           7150      7.48043e+7 
           7170      7.40724e+7 
           7190      7.33475e+7 
           7210      7.26223e+7 
           7230      7.16734e+7 
           7250      7.11925e+7 
           7270      7.05112e+7 
           7290      6.94457e+7 
           7310      6.91445e+7 
           7330      6.84746e+7 
           7350      6.78137e+7 
           7370       6.7159e+7 
           7390      6.65125e+7 
           7410      6.58747e+7 
           7430       6.5221e+7 
           7450      6.46153e+7 
           7470      6.39822e+7 
           7490      6.33831e+7 
           7510      6.27828e+7 
           7530      6.21992e+7 
           7550      6.16137e+7 
           7570      6.10368e+7 
           7590      6.04598e+7 
           7610      5.98979e+7 
           7630      5.93377e+7 
           7650      5.87826e+7 
           7670      5.82376e+7 
           7690      5.76974e+7 
           7710      5.71634e+7 
           7730      5.66328e+7 
           7750      5.61119e+7 
           7770      5.53367e+7 
           7790      5.50871e+7 
           7810      5.45761e+7 
           7830      5.40875e+7 
           7850      5.35494e+7 
           7870      5.30617e+7 
           7890      5.25279e+7 
           7910      5.21651e+7 
           7930       5.1698e+7 
           7950      5.11807e+7 
           7970      5.07682e+7 
           7990      5.02352e+7 
           8010      4.98678e+7 
           8030      4.94228e+7 
           8050      4.89805e+7 
           8070      4.85483e+7 
           8090      4.81076e+7 
           8110      4.76839e+7 
           8130      4.72632e+7 
           8150      4.68478e+7 
           8170      4.64454e+7 
           8190      4.60156e+7 
           8210      4.55401e+7 
           8230        4.516e+7 
           8250      4.48378e+7 
           8270      4.43959e+7 
           8290      4.40756e+7 
           8310      4.37218e+7 
           8330      4.33455e+7 
           8350      4.29117e+7 
           8370      4.25972e+7 
           8390      4.22755e+7 
           8410      4.19095e+7 
           8430       4.1536e+7 
           8450       4.0994e+7 
           8470      4.08022e+7 
           8490      4.04095e+7 
           8510      4.00091e+7 
           8530      3.97223e+7 
           8550      3.90306e+7 
           8570      3.92267e+7 
           8590      3.81237e+7 
