# Kurucz ODFNEW /NOVER (2003)
# teff = 21000 K (value for the effective temperature for the model. Temperatures are given in K)
# logg = 3 log(cm/s2) (value for Log(G) for the model.)
# meta = 0  (value for the Metallicity for the model.)
# lh = 1.25  (l/Hp where l is the  mixing length of the convective element and Hp is the pressure scale height)
# vtur = 2 km/s (Microturbulence velocity)
# alpha = 0.4  (Alpha)
#
# column 1: WAVELENGTH (ANGSTROM), Wavelength in Angstrom
# column 2: FLUX (ERG/CM2/S/A), Flux in erg/cm2/s/A
          147.2     2.48889e-19 
            151     1.41082e-18 
          155.2     8.75609e-18 
          158.8     3.89944e-17 
            162     1.39825e-16 
            166     6.47533e-16 
          170.3     3.11429e-15 
          173.4     9.27504e-15 
          176.8      2.9382e-14 
          180.2     8.93803e-14 
          181.7     1.44154e-13 
          186.1     5.63236e-13 
            191     2.39911e-12 
          193.9      5.4736e-12 
          198.4     1.88161e-11 
          201.8     4.61993e-11 
            205      1.0483e-10 
          210.5     4.05719e-10 
          216.2      1.53803e-9 
          219.8      3.44781e-9 
            223      6.91793e-9 
          226.8        1.543e-8 
            230      4.47696e-7 
            234      1.13928e-6 
            240      3.25825e-6 
          246.5      9.59273e-6 
          252.4      2.46744e-5 
          256.8      4.66114e-5 
            260      7.93918e-5 
            264     0.000139922 
          268.5     0.000261466 
          273.5     0.000507059 
          278.5     0.000972445 
            284       0.0020375 
            290      0.00414098 
            296      0.00821387 
            301       0.0141862 
            308       0.0307951 
            318       0.0865937 
            328        0.215258 
            338         0.53622 
            348         1.22939 
            357          4.5935 
            366         9.39489 
            375         16.6575 
            385         31.6176 
            395         60.0256 
            405         104.958 
            414         172.994 
            422         258.319 
            430         391.297 
            441         661.578 
            451         1034.52 
            460         1505.76 
            470          2296.7 
            480         3387.62 
            490         4998.69 
            500         7198.24 
            506         52500.8 
            512          599030 
            520          720105 
            530          972965 
            540      1.05121e+6 
            550      1.69883e+6 
            560       2.0773e+6 
            570      2.66459e+6 
            580      2.53206e+6 
            590      3.64576e+6 
            600      4.45723e+6 
            610      5.57825e+6 
            620      6.28258e+6 
            630      7.10518e+6 
            640      7.16706e+6 
            650      6.20235e+6 
            658      9.49994e+6 
            665      1.08199e+7 
            675      1.13029e+7 
            685      1.19789e+7 
            695      1.57524e+7 
            705      1.65495e+7 
            716      1.91835e+7 
            726      2.01439e+7 
            735      2.19674e+7 
            745      2.57298e+7 
            755      2.83169e+7 
            765      3.12636e+7 
            775      3.44625e+7 
            785      3.76109e+7 
            795      3.97946e+7 
            805      4.25025e+7 
            815        4.492e+7 
            825      4.98902e+7 
            835      4.38643e+7 
            845      5.38272e+7 
            855       5.6559e+7 
            865      6.14418e+7 
            875      6.65898e+7 
            885      7.36985e+7 
            895       7.8678e+7 
            905      7.79056e+7 
            915      1.64321e+8 
            925      2.35669e+9 
            935      4.86304e+9 
            945      7.50189e+9 
            955      9.00408e+9 
            965      8.78648e+9 
            975       1.4961e+9 
            985      6.12102e+9 
            995      7.22884e+9 
           1005      9.55899e+9 
           1015      9.74894e+9 
           1025      6.59637e+9 
           1035      6.99388e+9 
           1045     1.22376e+10 
           1055     1.11283e+10 
           1065      8.30633e+9 
           1075     1.04814e+10 
           1085      9.13098e+9 
           1095     1.09281e+10 
           1105      8.91359e+9 
           1115      7.68928e+9 
           1125      6.40302e+9 
           1135     1.01345e+10 
           1145      9.06806e+9 
           1155      9.63099e+9 
           1165      9.68953e+9 
           1175      5.54115e+9 
           1185      9.37434e+9 
           1195      7.19968e+9 
           1205      2.38519e+9 
           1215      4.40114e+9 
           1225       8.0707e+9 
           1235       9.6631e+9 
           1245      9.50412e+9 
           1255      9.36762e+9 
           1265      9.23775e+9 
           1275      9.69456e+9 
           1285      9.51346e+9 
           1295      4.63907e+9 
           1305      5.30024e+9 
           1315      9.21244e+9 
           1325      8.63465e+9 
           1335      8.00058e+9 
           1345      8.64591e+9 
           1355      8.52308e+9 
           1365      7.55349e+9 
           1375      7.39959e+9 
           1385      6.97123e+9 
           1395      4.26535e+9 
           1405       5.0791e+9 
           1415      6.28928e+9 
           1425      6.55437e+9 
           1435      6.82814e+9 
           1442      7.08196e+9 
           1447      6.92443e+9 
           1455      6.69848e+9 
           1465      6.12621e+9 
           1475      6.30975e+9 
           1485      6.22454e+9 
           1495      6.09991e+9 
           1505      5.50218e+9 
           1512      4.85548e+9 
           1517      5.08906e+9 
           1525      5.31929e+9 
           1535      4.48419e+9 
           1545      4.43501e+9 
           1555      4.30679e+9 
           1565      4.65893e+9 
           1575      4.99906e+9 
           1585      5.02886e+9 
           1595       5.0048e+9 
           1605      5.10101e+9 
           1615      5.05811e+9 
           1625      4.89918e+9 
           1635      5.26841e+9 
           1645      5.26804e+9 
           1655      5.11957e+9 
           1665      5.30151e+9 
           1672      5.06814e+9 
           1677       5.4673e+9 
           1685      5.37649e+9 
           1695       5.0148e+9 
           1705      4.87178e+9 
           1715      4.54141e+9 
           1725      4.54183e+9 
           1735      4.78361e+9 
           1745       4.6406e+9 
           1755      4.69514e+9 
           1765      4.61258e+9 
           1775      4.30738e+9 
           1785       4.3951e+9 
           1795      4.63121e+9 
           1805      4.69706e+9 
           1815      4.04665e+9 
           1825      4.31789e+9 
           1835      4.14419e+9 
           1845      3.76605e+9 
           1855      3.70037e+9 
           1865      3.77983e+9 
           1875      4.10482e+9 
           1885       3.6041e+9 
           1895       3.3255e+9 
           1905      3.71453e+9 
           1915      3.40464e+9 
           1925      3.25183e+9 
           1935      3.50315e+9 
           1945      3.53285e+9 
           1955       3.1873e+9 
           1967      3.55903e+9 
           1976        3.702e+9 
           1984       3.4337e+9 
           1995      3.35647e+9 
           2005      3.54883e+9 
           2015      3.46525e+9 
           2025      3.61091e+9 
           2035      3.24701e+9 
           2045      3.36424e+9 
           2055      3.23711e+9 
           2065      3.21634e+9 
           2074       3.4592e+9 
           2078      3.02634e+9 
           2085      3.28345e+9 
           2095         3.08e+9 
           2105       3.1768e+9 
           2115      3.21968e+9 
           2125      3.24243e+9 
           2135      3.19634e+9 
           2145      2.99949e+9 
           2155      3.17338e+9 
           2165      3.18143e+9 
           2175      3.14508e+9 
           2185      3.00422e+9 
           2195      3.07802e+9 
           2205      3.07224e+9 
           2215      3.00433e+9 
           2225       2.9194e+9 
           2235      2.90419e+9 
           2245      2.94587e+9 
           2255      2.82727e+9 
           2265      2.89621e+9 
           2275      2.85683e+9 
           2285       2.8694e+9 
           2295      2.61256e+9 
           2305      2.76834e+9 
           2315      2.67088e+9 
           2325      2.63743e+9 
           2335      2.52078e+9 
           2345      2.55345e+9 
           2355      2.56774e+9 
           2365      2.53597e+9 
           2375      2.50043e+9 
           2385       2.4758e+9 
           2395      2.47329e+9 
           2405      2.40802e+9 
           2415      2.39962e+9 
           2425      2.40915e+9 
           2435      2.32656e+9 
           2445        2.352e+9 
           2455      2.35994e+9 
           2465      2.30419e+9 
           2475      2.26599e+9 
           2485      2.22607e+9 
           2495      1.87843e+9 
           2505      2.15386e+9 
           2513      2.08052e+9 
           2518      2.16602e+9 
           2525      2.12614e+9 
           2535      2.10178e+9 
           2545      1.99654e+9 
           2555      2.07402e+9 
           2565      2.03612e+9 
           2575      2.06949e+9 
           2585      2.03727e+9 
           2595        2.024e+9 
           2605       2.0146e+9 
           2615      1.98303e+9 
           2625      1.96959e+9 
           2635      1.95553e+9 
           2645       1.9523e+9 
           2655      1.94697e+9 
           2665      1.86619e+9 
           2675      1.88796e+9 
           2685      1.87737e+9 
           2695      1.81445e+9 
           2705      1.78752e+9 
           2715      1.78873e+9 
           2725      1.77609e+9 
           2735      1.77193e+9 
           2745        1.713e+9 
           2755       1.7123e+9 
           2765      1.70383e+9 
           2775      1.71858e+9 
           2785      1.68872e+9 
           2795      1.62106e+9 
           2805      1.65065e+9 
           2815      1.64964e+9 
           2825      1.63331e+9 
           2835      1.56659e+9 
           2845      1.58385e+9 
           2855      1.56025e+9 
           2865      1.56907e+9 
           2875      1.55047e+9 
           2885      1.53883e+9 
           2895      1.51154e+9 
           2910      1.48479e+9 
           2930      1.46358e+9 
           2950      1.42436e+9 
           2970      1.40781e+9 
           2990      1.37774e+9 
           3010      1.33035e+9 
           3030      1.33053e+9 
           3050      1.30994e+9 
           3070      1.29085e+9 
           3090      1.23994e+9 
           3110      1.23639e+9 
           3130      1.20938e+9 
           3150      1.19145e+9 
           3170      1.16225e+9 
           3190      1.13814e+9 
           3210      1.12535e+9 
           3230       1.1007e+9 
           3250      1.08616e+9 
           3270      1.06358e+9 
           3290      1.04344e+9 
           3310      1.02695e+9 
           3330      1.00647e+9 
           3350      9.89349e+8 
           3370      9.70841e+8 
           3390      9.57092e+8 
           3410      9.41232e+8 
           3430      9.20585e+8 
           3450      9.01682e+8 
           3470         8.87e+8 
           3490      8.70986e+8 
           3510      8.59499e+8 
           3530      8.48608e+8 
           3550      8.33543e+8 
           3570      8.21806e+8 
           3590      7.99111e+8 
           3610      7.85136e+8 
           3630      7.76051e+8 
           3640      7.75347e+8 
           3650      7.63469e+8 
           3670      7.55003e+8 
           3690       7.3024e+8 
           3710      7.23866e+8 
           3730      7.22244e+8 
           3750      7.88205e+8 
           3770       7.8119e+8 
           3790       7.9345e+8 
           3810      8.17686e+8 
           3830      7.35769e+8 
           3850      8.09755e+8 
           3870      7.90767e+8 
           3890      7.07346e+8 
           3910       7.8677e+8 
           3930      7.54976e+8 
           3950      7.55221e+8 
           3970      6.56514e+8 
           3990      7.30548e+8 
           4010      7.22833e+8 
           4030      6.94058e+8 
           4050      6.99324e+8 
           4070      6.71226e+8 
           4090      6.47742e+8 
           4110      5.93504e+8 
           4130      6.39673e+8 
           4150      6.34922e+8 
           4170       6.3175e+8 
           4190      6.25711e+8 
           4210      6.20482e+8 
           4230      6.06986e+8 
           4250       5.9238e+8 
           4270      5.75294e+8 
           4290      5.70045e+8 
           4310      5.56472e+8 
           4330      5.32194e+8 
           4350      4.92411e+8 
           4370      5.31216e+8 
           4390      5.27481e+8 
           4410      5.21933e+8 
           4430      5.15791e+8 
           4450      5.09148e+8 
           4470      4.92536e+8 
           4490      4.93278e+8 
           4510       4.9069e+8 
           4530      4.81961e+8 
           4550       4.7575e+8 
           4570      4.67879e+8 
           4590      4.60592e+8 
           4610      4.50843e+8 
           4630      4.45498e+8 
           4650      4.32544e+8 
           4670      4.32233e+8 
           4690      4.29479e+8 
           4710      4.12746e+8 
           4730      4.13776e+8 
           4750      4.07427e+8 
           4770      4.07925e+8 
           4790      4.00815e+8 
           4810      3.92246e+8 
           4830      3.86679e+8 
           4850      3.74479e+8 
           4870      3.41118e+8 
           4890      3.72332e+8 
           4910      3.67461e+8 
           4930       3.5655e+8 
           4950      3.55873e+8 
           4970      3.53975e+8 
           4990      3.48178e+8 
           5010      3.34087e+8 
           5030      3.37853e+8 
           5050      3.29244e+8 
           5070      3.29451e+8 
           5090      3.24337e+8 
           5110      3.19321e+8 
           5130      3.12871e+8 
           5150      3.09807e+8 
           5170      3.07471e+8 
           5190      3.03567e+8 
           5210      2.97216e+8 
           5230      2.95595e+8 
           5250      2.91911e+8 
           5270      2.87367e+8 
           5290      2.84417e+8 
           5310      2.80315e+8 
           5330      2.76518e+8 
           5350      2.72282e+8 
           5370      2.69984e+8 
           5390      2.66194e+8 
           5410      2.63033e+8 
           5430      2.58697e+8 
           5450      2.55508e+8 
           5470      2.52144e+8 
           5490      2.49573e+8 
           5510      2.46722e+8 
           5530      2.43105e+8 
           5550      2.40684e+8 
           5570      2.37295e+8 
           5590      2.34792e+8 
           5610      2.31301e+8 
           5630      2.29091e+8 
           5650      2.24085e+8 
           5670      2.20854e+8 
           5690      2.18315e+8 
           5710      2.17043e+8 
           5730       2.1475e+8 
           5750      2.11481e+8 
           5770      2.09995e+8 
           5790      2.07311e+8 
           5810      2.04759e+8 
           5830      2.01915e+8 
           5850      1.99789e+8 
           5870      1.92897e+8 
           5890      1.93403e+8 
           5910      1.92139e+8 
           5930      1.89667e+8 
           5950      1.86904e+8 
           5970       1.8613e+8 
           5990      1.83041e+8 
           6010      1.81637e+8 
           6030       1.7918e+8 
           6050      1.77277e+8 
           6070      1.75426e+8 
           6090        1.733e+8 
           6110      1.71401e+8 
           6130      1.69532e+8 
           6150      1.66509e+8 
           6170      1.65164e+8 
           6190      1.63636e+8 
           6210      1.61861e+8 
           6230      1.60076e+8 
           6250      1.57819e+8 
           6270      1.56239e+8 
           6290      1.54571e+8 
           6310      1.52561e+8 
           6330      1.51213e+8 
           6350      1.48683e+8 
           6370      1.47417e+8 
           6390      1.45988e+8 
           6410        1.444e+8 
           6430      1.43056e+8 
           6450      1.41356e+8 
           6470      1.39403e+8 
           6490      1.37964e+8 
           6510      1.36646e+8 
           6530      1.34909e+8 
           6550      1.31795e+8 
           6570      1.18609e+8 
           6590      1.29489e+8 
           6610      1.29284e+8 
           6630      1.28076e+8 
           6650      1.26583e+8 
           6670      1.24462e+8 
           6690      1.23197e+8 
           6710      1.22765e+8 
           6730      1.21188e+8 
           6750      1.20247e+8 
           6770      1.18987e+8 
           6790      1.16784e+8 
           6810      1.16294e+8 
           6830         1.15e+8 
           6850      1.14016e+8 
           6870      1.12811e+8 
           6890       1.1153e+8 
           6910      1.10278e+8 
           6930      1.09258e+8 
           6950       1.0824e+8 
           6970      1.07139e+8 
           6990      1.05979e+8 
           7010      1.04885e+8 
           7030      1.03808e+8 
           7050      1.02758e+8 
           7070      1.00112e+8 
           7090      1.00717e+8 
           7110      9.89442e+7 
           7130      9.80416e+7 
           7150      9.76265e+7 
           7170      9.66723e+7 
           7190       9.5749e+7 
           7210      9.47909e+7 
           7230      9.24078e+7 
           7250      9.26871e+7 
           7270       9.1964e+7 
           7290      9.03613e+7 
           7310      9.01354e+7 
           7330      8.92375e+7 
           7350      8.84039e+7 
           7370      8.75502e+7 
           7390      8.66907e+7 
           7410       8.5846e+7 
           7430      8.49067e+7 
           7450       8.4146e+7 
           7470      8.29331e+7 
           7490      8.24774e+7 
           7510       8.1698e+7 
           7530      8.08859e+7 
           7550      8.02002e+7 
           7570      7.94417e+7 
           7590      7.86377e+7 
           7610      7.78346e+7 
           7630      7.71683e+7 
           7650      7.64435e+7 
           7670      7.57315e+7 
           7690      7.50068e+7 
           7710       7.4295e+7 
           7730       7.3558e+7 
           7750      7.29154e+7 
           7770      7.16294e+7 
           7790      7.15663e+7 
           7810      7.08482e+7 
           7830      7.02471e+7 
           7850      6.94922e+7 
           7870      6.88292e+7 
           7890      6.79966e+7 
           7910      6.76171e+7 
           7930       6.6929e+7 
           7950      6.61337e+7 
           7970       6.5642e+7 
           7990      6.48712e+7 
           8010      6.45125e+7 
           8030       6.3952e+7 
           8050      6.33962e+7 
           8070      6.28799e+7 
           8090       6.2201e+7 
           8110      6.14593e+7 
           8130      6.12143e+7 
           8150      6.05626e+7 
           8170      6.01648e+7 
           8190      5.94052e+7 
           8210       5.8764e+7 
           8230      5.82117e+7 
           8250      5.79907e+7 
           8270      5.69394e+7 
           8290      5.68788e+7 
           8310      5.63926e+7 
           8330      5.59375e+7 
           8350      5.51836e+7 
           8370      5.46943e+7 
           8390      5.43482e+7 
           8410      5.38131e+7 
           8430      5.33248e+7 
           8450      5.23868e+7 
           8470      5.20105e+7 
           8490      5.22466e+7 
           8510      5.08105e+7 
           8530       5.1679e+7 
           8550      4.91808e+7 
           8570      5.15763e+7 
           8590      4.90231e+7 
