# Kurucz ODFNEW /NOVER (2003)
# teff = 7750 K (value for the effective temperature for the model. Temperatures are given in K)
# logg = 3 log(cm/s2) (value for Log(G) for the model.)
# meta = -0.5  (value for the Metallicity for the model.)
# lh = 1.25  (l/Hp where l is the  mixing length of the convective element and Hp is the pressure scale height)
# vtur = 2 km/s (Microturbulence velocity)
# alpha = 0  (Alpha)
#
# column 1: WAVELENGTH (ANGSTROM), Wavelength in Angstrom
# column 2: FLUX (ERG/CM2/S/A), Flux in erg/cm2/s/A
            348     8.11357e-24 
            357     1.36049e-23 
            366     8.77815e-23 
            375     5.14843e-22 
            385     3.31807e-21 
            395     1.93403e-20 
            405     1.02811e-19 
            414     4.29952e-19 
            422     1.45182e-18 
            430     4.67153e-18 
            441     2.16471e-17 
            451      8.1365e-17 
            460     2.54203e-16 
            470     8.53568e-16 
            480     2.71412e-15 
            490     8.20661e-15 
            500      2.3639e-14 
            506     5.78963e-14 
            512     1.18564e-13 
            520     2.56271e-13 
            530     6.52886e-13 
            540       1.575e-12 
            550     3.72009e-12 
            560      8.4435e-12 
            570     1.85686e-11 
            580     3.91814e-11 
            590     8.22225e-11 
            600     1.66075e-10 
            610      3.2713e-10 
            620     6.28738e-10 
            630      1.18106e-9 
            640      2.17162e-9 
            650      3.91174e-9 
            658      6.17383e-9 
            665      9.10847e-9 
            675       1.5638e-8 
            685      2.63777e-8 
            695      4.37537e-8 
            705      7.13074e-8 
            716      1.20201e-7 
            726      1.90046e-7 
            735      2.83636e-7 
            745      4.36932e-7 
            755      6.64469e-7 
            765       9.9811e-7 
            775      1.48139e-6 
            785      2.17408e-6 
            795      3.14074e-6 
            805      4.52366e-6 
            815      6.43626e-6 
            825      9.06033e-6 
            835       1.2635e-5 
            845      1.74608e-5 
            855      2.39187e-5 
            865      3.24917e-5 
            875      4.37284e-5 
            885      5.85182e-5 
            895       7.7648e-5 
            905     0.000102082 
            915        0.105325 
            925        0.364637 
            935        0.479582 
            945        0.635318 
            955        0.879094 
            965         1.13602 
            975         1.36746 
            985         1.79992 
            995            2.19 
           1005          2.9047 
           1015         3.58469 
           1025         4.09243 
           1035         5.49818 
           1045         6.83376 
           1055         8.38737 
           1065         10.0222 
           1075         12.3689 
           1085         15.0717 
           1095         17.8225 
           1105         50.5998 
           1115         153.007 
           1125         215.716 
           1135         294.839 
           1145         359.021 
           1155         380.732 
           1165         483.727 
           1175         523.526 
           1185         569.967 
           1195         240.433 
           1205           172.6 
           1215         45.2466 
           1225         198.147 
           1235         518.279 
           1245         1134.33 
           1255         2261.23 
           1265         2638.15 
           1275         4081.71 
           1285         6043.28 
           1295         7760.91 
           1305         7342.02 
           1315         10789.7 
           1325         13249.1 
           1335         15012.3 
           1345         18833.9 
           1355         19861.5 
           1365           22415 
           1375         24915.7 
           1385         27324.4 
           1395         31411.8 
           1405         35435.8 
           1415         37877.6 
           1425         42553.6 
           1435         43122.5 
           1442           50595 
           1447         53729.3 
           1455         61701.4 
           1465         62701.5 
           1475         69019.5 
           1485         76527.2 
           1495         86417.6 
           1505           95166 
           1512           95587 
           1517          103669 
           1525          113512 
           1535          390572 
           1545          967050 
           1555          870831 
           1565          670683 
           1575      1.04112e+6 
           1585      1.16693e+6 
           1595      1.27287e+6 
           1605      1.22276e+6 
           1615      1.55633e+6 
           1625       1.8638e+6 
           1635      2.73412e+6 
           1645      4.64253e+6 
           1655       2.6716e+6 
           1665      5.43129e+6 
           1672      2.62901e+6 
           1677      6.56922e+6 
           1685      8.52437e+6 
           1695      7.82457e+6 
           1705        8.211e+6 
           1715      1.01983e+7 
           1725      1.04519e+7 
           1735      1.22631e+7 
           1745      1.15983e+7 
           1755      1.37994e+7 
           1765      1.01988e+7 
           1775      1.28816e+7 
           1785      1.25485e+7 
           1795      1.56315e+7 
           1805      1.33566e+7 
           1815      1.44792e+7 
           1825      1.25813e+7 
           1835      1.23304e+7 
           1845      1.08126e+7 
           1855      1.20058e+7 
           1865      1.31067e+7 
           1875      1.29105e+7 
           1885      1.32753e+7 
           1895      1.41207e+7 
           1905      1.28932e+7 
           1915      1.40759e+7 
           1925      1.41201e+7 
           1935      1.11503e+7 
           1945      1.50034e+7 
           1955      1.51292e+7 
           1967      1.63317e+7 
           1976      1.59208e+7 
           1984      1.52941e+7 
           1995      1.48192e+7 
           2005       1.4056e+7 
           2015      1.37007e+7 
           2025      1.26893e+7 
           2035      1.44252e+7 
           2045      1.57672e+7 
           2055      1.48113e+7 
           2065       1.4169e+7 
           2074      1.66326e+7 
           2078      1.73172e+7 
           2085      1.66473e+7 
           2095      1.57352e+7 
           2105      1.46567e+7 
           2115      1.50272e+7 
           2125      1.54976e+7 
           2135      1.22262e+7 
           2145       1.4663e+7 
           2155      1.47219e+7 
           2165      1.36306e+7 
           2175      1.35095e+7 
           2185      1.41965e+7 
           2195      1.55445e+7 
           2205      1.48529e+7 
           2215      1.30959e+7 
           2225      1.29579e+7 
           2235       1.5429e+7 
           2245      1.36908e+7 
           2255      1.27584e+7 
           2265      1.27495e+7 
           2275       1.4041e+7 
           2285       1.4676e+7 
           2295      1.33804e+7 
           2305      1.39502e+7 
           2315      1.35396e+7 
           2325      1.31655e+7 
           2335      1.13394e+7 
           2345      9.38291e+6 
           2355      1.30598e+7 
           2365      9.78258e+6 
           2375      1.18156e+7 
           2385       8.3456e+6 
           2395      1.00001e+7 
           2405      9.64811e+6 
           2415       1.0288e+7 
           2425      1.28427e+7 
           2435      1.24737e+7 
           2445      1.34558e+7 
           2455      1.32033e+7 
           2465       1.3203e+7 
           2475      1.22269e+7 
           2485      1.26095e+7 
           2495      1.19911e+7 
           2505      1.46615e+7 
           2513      1.21761e+7 
           2518      1.25295e+7 
           2525      1.11684e+7 
           2535      1.05235e+7 
           2545      1.05335e+7 
           2555      1.20042e+7 
           2565       1.1672e+7 
           2575      1.31479e+7 
           2585      1.30808e+7 
           2595      1.25242e+7 
           2605      1.16605e+7 
           2615      1.10299e+7 
           2625      1.32795e+7 
           2635       1.3907e+7 
           2645      1.70093e+7 
           2655      1.71871e+7 
           2665      1.47701e+7 
           2675      1.59039e+7 
           2685      1.58928e+7 
           2695      1.46879e+7 
           2705      1.53446e+7 
           2715      1.39776e+7 
           2725      1.42633e+7 
           2735      1.56625e+7 
           2745      1.15583e+7 
           2755      1.26688e+7 
           2765      1.35446e+7 
           2775      1.54584e+7 
           2785      1.43207e+7 
           2795      7.36144e+6 
           2805      9.14193e+6 
           2815      1.60899e+7 
           2825       1.7035e+7 
           2835      1.62514e+7 
           2845      1.55178e+7 
           2855      1.44225e+7 
           2865      1.62892e+7 
           2875      1.58593e+7 
           2885      1.62212e+7 
           2895      1.53636e+7 
           2910       1.7805e+7 
           2930       1.7045e+7 
           2950      1.68921e+7 
           2970      1.75499e+7 
           2990      1.77196e+7 
           3010      1.80437e+7 
           3030      1.79384e+7 
           3050      1.79372e+7 
           3070      1.80616e+7 
           3090      1.84362e+7 
           3110      1.79093e+7 
           3130       1.7853e+7 
           3150      1.84847e+7 
           3170      1.84625e+7 
           3190      1.74058e+7 
           3210      1.80034e+7 
           3230      1.73428e+7 
           3250      1.80042e+7 
           3270      1.83349e+7 
           3290      1.85794e+7 
           3310      1.88614e+7 
           3330        1.845e+7 
           3350      1.82267e+7 
           3370      1.81032e+7 
           3390      1.81961e+7 
           3410      1.84744e+7 
           3430      1.86874e+7 
           3450      1.85391e+7 
           3470      1.83076e+7 
           3490      1.82694e+7 
           3510      1.86846e+7 
           3530      1.86921e+7 
           3550      1.90581e+7 
           3570      1.83761e+7 
           3590      1.83037e+7 
           3610      1.83943e+7 
           3630      1.85905e+7 
           3640      1.83557e+7 
           3650       1.9002e+7 
           3670       1.8772e+7 
           3690      1.82343e+7 
           3710      2.09841e+7 
           3730      2.34585e+7 
           3750      3.10465e+7 
           3770      3.33607e+7 
           3790      4.09458e+7 
           3810      4.76592e+7 
           3830       3.7573e+7 
           3850      5.22834e+7 
           3870      5.82416e+7 
           3890      3.43067e+7 
           3910      5.76672e+7 
           3930      5.19424e+7 
           3950      5.73937e+7 
           3970      3.16616e+7 
           3990       5.6483e+7 
           4010      6.23427e+7 
           4030      6.20085e+7 
           4050      6.13447e+7 
           4070      5.85327e+7 
           4090      4.76291e+7 
           4110      3.65576e+7 
           4130      5.60161e+7 
           4150      5.85377e+7 
           4170      5.80014e+7 
           4190      5.72966e+7 
           4210      5.70894e+7 
           4230      5.56728e+7 
           4250      5.55609e+7 
           4270      5.41078e+7 
           4290      5.38132e+7 
           4310      4.98673e+7 
           4330      3.99598e+7 
           4350      3.41918e+7 
           4370      5.02177e+7 
           4390      5.10455e+7 
           4410      5.02426e+7 
           4430      5.01739e+7 
           4450      5.02756e+7 
           4470      4.97984e+7 
           4490       4.9324e+7 
           4510      4.97525e+7 
           4530       4.8231e+7 
           4550      4.72474e+7 
           4570      4.82165e+7 
           4590      4.68907e+7 
           4610      4.74827e+7 
           4630      4.62457e+7 
           4650      4.63975e+7 
           4670      4.60217e+7 
           4690      4.47891e+7 
           4710      4.33363e+7 
           4730      4.45399e+7 
           4750      4.42892e+7 
           4770      4.36089e+7 
           4790      4.30485e+7 
           4810      4.22402e+7 
           4830      4.05266e+7 
           4850      3.26816e+7 
           4870      2.63523e+7 
           4890      3.82935e+7 
           4910      3.98699e+7 
           4930      3.93254e+7 
           4950      3.96141e+7 
           4970      3.96924e+7 
           4990       3.8694e+7 
           5010      3.76653e+7 
           5030      3.81749e+7 
           5050      3.75777e+7 
           5070      3.77156e+7 
           5090      3.72395e+7 
           5110      3.69962e+7 
           5130      3.63489e+7 
           5150       3.5749e+7 
           5170        3.485e+7 
           5190      3.45693e+7 
           5210       3.4607e+7 
           5230      3.41293e+7 
           5250      3.45463e+7 
           5270      3.30516e+7 
           5290      3.37647e+7 
           5310      3.32356e+7 
           5330      3.24827e+7 
           5350      3.29353e+7 
           5370      3.24226e+7 
           5390      3.21344e+7 
           5410      3.15909e+7 
           5430      3.14864e+7 
           5450      3.14092e+7 
           5470      3.11208e+7 
           5490       3.0957e+7 
           5510      3.06793e+7 
           5530      3.02668e+7 
           5550      3.02276e+7 
           5570      2.97924e+7 
           5590      2.94626e+7 
           5610      2.92984e+7 
           5630      2.91762e+7 
           5650      2.88496e+7 
           5670      2.85117e+7 
           5690       2.8378e+7 
           5710      2.81137e+7 
           5730      2.80084e+7 
           5750      2.76806e+7 
           5770      2.74732e+7 
           5790       2.7205e+7 
           5810      2.69935e+7 
           5830      2.67776e+7 
           5850       2.6499e+7 
           5870      2.62882e+7 
           5890      2.57624e+7 
           5910      2.58364e+7 
           5930      2.56153e+7 
           5950      2.53902e+7 
           5970      2.51908e+7 
           5990      2.49241e+7 
           6010      2.46688e+7 
           6030      2.45023e+7 
           6050       2.4318e+7 
           6070      2.41508e+7 
           6090      2.39132e+7 
           6110      2.36802e+7 
           6130      2.33565e+7 
           6150      2.30316e+7 
           6170       2.2933e+7 
           6190      2.29325e+7 
           6210      2.27538e+7 
           6230      2.24943e+7 
           6250      2.20661e+7 
           6270      2.21987e+7 
           6290      2.20158e+7 
           6310      2.17383e+7 
           6330      2.16078e+7 
           6350      2.13392e+7 
           6370      2.11859e+7 
           6390      2.10867e+7 
           6410      2.08169e+7 
           6430      2.07122e+7 
           6450      2.03748e+7 
           6470      2.03228e+7 
           6490       2.0001e+7 
           6510      1.98489e+7 
           6530      1.93794e+7 
           6550      1.72065e+7 
           6570      1.37854e+7 
           6590        1.844e+7 
           6610      1.90192e+7 
           6630      1.90461e+7 
           6650      1.89462e+7 
           6670      1.88081e+7 
           6690      1.87102e+7 
           6710       1.8562e+7 
           6730      1.84169e+7 
           6750       1.8236e+7 
           6770      1.81489e+7 
           6790      1.79981e+7 
           6810      1.78608e+7 
           6830      1.77006e+7 
           6850      1.75661e+7 
           6870      1.74488e+7 
           6890      1.73167e+7 
           6910      1.71811e+7 
           6930      1.70437e+7 
           6950      1.69161e+7 
           6970      1.67819e+7 
           6990      1.66613e+7 
           7010      1.64813e+7 
           7030      1.63816e+7 
           7050      1.62759e+7 
           7070       1.6156e+7 
           7090      1.60358e+7 
           7110      1.57348e+7 
           7130      1.57459e+7 
           7150      1.56418e+7 
           7170      1.55268e+7 
           7190      1.53931e+7 
           7210      1.52905e+7 
           7230      1.51743e+7 
           7250      1.50599e+7 
           7270      1.49757e+7 
           7290      1.48242e+7 
           7310       1.4722e+7 
           7330      1.46172e+7 
           7350       1.4535e+7 
           7370      1.44368e+7 
           7390      1.43022e+7 
           7410      1.41606e+7 
           7430      1.40551e+7 
           7450      1.39703e+7 
           7470      1.38247e+7 
           7490      1.37442e+7 
           7510      1.36758e+7 
           7530      1.35939e+7 
           7550      1.35187e+7 
           7570      1.34073e+7 
           7590      1.33171e+7 
           7610      1.32205e+7 
           7630      1.31273e+7 
           7650      1.30195e+7 
           7670      1.28986e+7 
           7690      1.28277e+7 
           7710      1.27169e+7 
           7730      1.26606e+7 
           7750      1.25584e+7 
           7770      1.22704e+7 
           7790      1.24006e+7 
           7810      1.23075e+7 
           7830      1.21955e+7 
           7850      1.20919e+7 
           7870      1.20062e+7 
           7890      1.19127e+7 
           7910      1.18447e+7 
           7930      1.17479e+7 
           7950      1.16615e+7 
           7970       1.1635e+7 
           7990      1.14996e+7 
           8010      1.14581e+7 
           8030      1.13724e+7 
           8050      1.13026e+7 
           8070      1.12235e+7 
           8090      1.11416e+7 
           8110       1.1081e+7 
           8130      1.10089e+7 
           8150      1.09317e+7 
           8170      1.08568e+7 
           8190       1.0687e+7 
           8210      1.06674e+7 
           8230      1.05878e+7 
           8250      1.05172e+7 
           8270      1.05247e+7 
           8290      1.04521e+7 
           8310      1.03729e+7 
           8330      1.02184e+7 
           8350      1.02278e+7 
           8370      1.01301e+7 
           8390      1.00224e+7 
           8410      9.94234e+6 
           8430      9.91113e+6 
           8450      9.76033e+6 
           8470      9.51106e+6 
           8490      9.89854e+6 
           8510      9.11755e+6 
           8530      9.91569e+6 
           8550      8.53307e+6 
           8570      1.00111e+7 
           8590      9.29058e+6 
           8610       8.9949e+6 
           8630      1.00732e+7 
           8650      9.73613e+6 
           8670      7.93765e+6 
           8690      9.79986e+6 
           8710      1.01422e+7 
           8730       9.8116e+6 
           8750      7.85418e+6 
           8770      9.41225e+6 
           8790      1.00067e+7 
           8810      9.99631e+6 
           8830      9.76457e+6 
           8850      8.94463e+6 
           8870      7.60863e+6 
           8890      9.41536e+6 
           8910      9.67732e+6 
           8930      9.68363e+6 
           8950      9.69778e+6 
           8970      9.55204e+6 
           8990      9.19914e+6 
           9010      7.47843e+6 
           9030      8.22152e+6 
           9050        9.153e+6 
           9070      9.12321e+6 
           9090      9.03159e+6 
           9110      9.17219e+6 
           9130      9.18403e+6 
           9150      9.13267e+6 
           9170      9.02523e+6 
           9190      8.84146e+6 
           9210      8.31234e+6 
           9230      6.63002e+6 
           9250      8.03146e+6 
           9270       8.4598e+6 
           9290      8.68139e+6 
           9310      8.67412e+6 
           9330      8.62918e+6 
           9350      8.58756e+6 
           9370      8.54794e+6 
           9390      8.46713e+6 
           9410       8.2444e+6 
