# Kurucz ODFNEW /NOVER (2003)
# teff = 21000 K (value for the effective temperature for the model. Temperatures are given in K)
# logg = 3 log(cm/s2) (value for Log(G) for the model.)
# meta = -2.5  (value for the Metallicity for the model.)
# lh = 1.25  (l/Hp where l is the  mixing length of the convective element and Hp is the pressure scale height)
# vtur = 2 km/s (Microturbulence velocity)
# alpha = 0  (Alpha)
#
# column 1: WAVELENGTH (ANGSTROM), Wavelength in Angstrom
# column 2: FLUX (ERG/CM2/S/A), Flux in erg/cm2/s/A
          147.2     2.45307e-18 
            151     1.57772e-17 
          155.2     1.10659e-16 
          158.8     5.39949e-16 
            162     2.07816e-15 
            166     1.03877e-14 
          170.3     5.36827e-14 
          173.4     1.66466e-13 
          176.8     5.49277e-13 
          180.2     1.72946e-12 
          181.7     2.82819e-12 
          186.1     1.14129e-11 
            191     4.98729e-11 
          193.9     1.15081e-10 
          198.4     4.00479e-10 
          201.8     9.88559e-10 
            205      2.24863e-9 
          210.5      8.68573e-9 
          216.2      3.26595e-8 
          219.8      7.26361e-8 
            223       1.4449e-7 
          226.8      3.18422e-7 
            230      8.46822e-7 
            234       1.9336e-6 
            240      5.74447e-6 
          246.5      1.75809e-5 
          252.4      4.62543e-5 
          256.8      9.09458e-5 
            260     0.000149505 
            264     0.000269526 
          268.5     0.000511357 
          273.5      0.00101507 
          278.5      0.00196524 
            284      0.00395058 
            290      0.00819622 
            296       0.0164725 
            301       0.0288241 
            308       0.0606491 
            318        0.168281 
            328        0.433829 
            338         1.05355 
            348         2.42297 
            357         4.91097 
            366         9.59288 
            375         18.0924 
            385         35.2699 
            395         66.2648 
            405         120.351 
            414         200.465 
            422         309.196 
            430         468.457 
            441         807.616 
            451         1291.54 
            460         1932.79 
            470         2964.89 
            480         4457.96 
            490         6579.98 
            500         9542.25 
            506         59891.6 
            512          171102 
            520          218194 
            530          320978 
            540          350891 
            550          519152 
            560          638686 
            570          790981 
            580          793584 
            590      1.07006e+6 
            600      1.38856e+6 
            610       1.6681e+6 
            620      1.96695e+6 
            630      2.31999e+6 
            640       2.6761e+6 
            650      3.13403e+6 
            658      3.54668e+6 
            665      3.91148e+6 
            675      4.42567e+6 
            685      5.03885e+6 
            695      5.84423e+6 
            705      6.58591e+6 
            716      7.51466e+6 
            726      8.41265e+6 
            735      9.36689e+6 
            745      1.04875e+7 
            755      1.16695e+7 
            765      1.29191e+7 
            775      1.43033e+7 
            785      1.57631e+7 
            795      1.72848e+7 
            805      1.89311e+7 
            815      2.06246e+7 
            825      2.25232e+7 
            835      2.41818e+7 
            845      2.64466e+7 
            855      2.84954e+7 
            865      3.08795e+7 
            875      3.33352e+7 
            885      3.58584e+7 
            895      3.84407e+7 
            905       4.0726e+7 
            915      9.32256e+7 
            925      1.67951e+9 
            935       4.4166e+9 
            945      8.82189e+9 
            955     1.01169e+10 
            965     1.19509e+10 
            975       6.1319e+9 
            985     1.19943e+10 
            995     1.15429e+10 
           1005     1.19413e+10 
           1015      1.1389e+10 
           1025      6.14349e+9 
           1035     1.06007e+10 
           1045     1.19857e+10 
           1055      1.1697e+10 
           1065     1.09323e+10 
           1075     1.13108e+10 
           1085     1.06952e+10 
           1095     1.11939e+10 
           1105      1.0804e+10 
           1115     1.07462e+10 
           1125     1.02408e+10 
           1135     1.05091e+10 
           1145     1.01632e+10 
           1155     1.03189e+10 
           1165     1.02105e+10 
           1175      9.14138e+9 
           1185      9.88944e+9 
           1195      9.37401e+9 
           1205      8.51544e+9 
           1215      4.17197e+9 
           1225      8.71037e+9 
           1235      9.14712e+9 
           1245      9.03042e+9 
           1255      8.92679e+9 
           1265      8.74878e+9 
           1275      8.76364e+9 
           1285      8.62778e+9 
           1295      8.09001e+9 
           1305      8.14856e+9 
           1315      8.26148e+9 
           1325      8.03554e+9 
           1335      7.75686e+9 
           1345      7.87581e+9 
           1355      7.81621e+9 
           1365      7.66895e+9 
           1375      7.54903e+9 
           1385      7.45966e+9 
           1395      7.17442e+9 
           1405      7.13868e+9 
           1415       7.1262e+9 
           1425      7.03896e+9 
           1435      6.95968e+9 
           1442      6.90459e+9 
           1447       6.8494e+9 
           1455      6.76753e+9 
           1465      6.66036e+9 
           1475      6.56897e+9 
           1485      6.47259e+9 
           1495      6.37904e+9 
           1505      6.25397e+9 
           1512      6.18104e+9 
           1517      6.15575e+9 
           1525      6.08048e+9 
           1535      5.89919e+9 
           1545      5.85842e+9 
           1555      5.73657e+9 
           1565      5.74163e+9 
           1575       5.6849e+9 
           1585       5.6074e+9 
           1595      5.53716e+9 
           1605      5.39393e+9 
           1615      5.31824e+9 
           1625      5.29194e+9 
           1635      5.23614e+9 
           1645       5.1103e+9 
           1655      5.09343e+9 
           1665       5.0357e+9 
           1672      4.94888e+9 
           1677      4.96831e+9 
           1685      4.90864e+9 
           1695      4.82375e+9 
           1705      4.74698e+9 
           1715      4.65925e+9 
           1725      4.61172e+9 
           1735      4.55971e+9 
           1745      4.49189e+9 
           1755      4.45344e+9 
           1765      4.32996e+9 
           1775      4.30522e+9 
           1785      4.27024e+9 
           1795      4.22163e+9 
           1805      4.17672e+9 
           1815      4.10211e+9 
           1825      4.05536e+9 
           1835      4.00289e+9 
           1845      3.89542e+9 
           1855      3.79748e+9 
           1865      3.78243e+9 
           1875      3.78484e+9 
           1885      3.66135e+9 
           1895      3.56941e+9 
           1905      3.60927e+9 
           1915      3.50716e+9 
           1925       3.4578e+9 
           1935      3.45677e+9 
           1945      3.44253e+9 
           1955      3.32499e+9 
           1967       3.3456e+9 
           1976      3.33594e+9 
           1984      3.26152e+9 
           1995      3.17681e+9 
           2005      3.19665e+9 
           2015      3.17864e+9 
           2025        3.151e+9 
           2035      3.08954e+9 
           2045      3.05111e+9 
           2055      2.98036e+9 
           2065      2.94786e+9 
           2074      2.96813e+9 
           2078      2.90769e+9 
           2085      2.90709e+9 
           2095      2.84704e+9 
           2105      2.84208e+9 
           2115      2.81754e+9 
           2125      2.79434e+9 
           2135      2.75806e+9 
           2145      2.71619e+9 
           2155      2.69274e+9 
           2165      2.66238e+9 
           2175       2.6284e+9 
           2185      2.59942e+9 
           2195       2.5711e+9 
           2205      2.54031e+9 
           2215      2.51098e+9 
           2225      2.47963e+9 
           2235      2.45018e+9 
           2245      2.42459e+9 
           2255      2.39454e+9 
           2265      2.36918e+9 
           2275      2.34177e+9 
           2285      2.31584e+9 
           2295      2.27202e+9 
           2305      2.26271e+9 
           2315      2.23512e+9 
           2325      2.21036e+9 
           2335      2.18303e+9 
           2345      2.15877e+9 
           2355      2.13708e+9 
           2365      2.11211e+9 
           2375      2.08855e+9 
           2385      2.06378e+9 
           2395       2.0414e+9 
           2405      2.01912e+9 
           2415      1.99552e+9 
           2425      1.97615e+9 
           2435      1.95334e+9 
           2445      1.93223e+9 
           2455      1.91189e+9 
           2465       1.8904e+9 
           2475      1.86992e+9 
           2485      1.84941e+9 
           2495      1.81041e+9 
           2505      1.80937e+9 
           2513      1.78845e+9 
           2518      1.78373e+9 
           2525      1.77031e+9 
           2535      1.75103e+9 
           2545      1.72945e+9 
           2555      1.71455e+9 
           2565      1.69571e+9 
           2575      1.67887e+9 
           2585        1.661e+9 
           2595      1.64342e+9 
           2605      1.63887e+9 
           2615      1.62168e+9 
           2625       1.6029e+9 
           2635      1.58137e+9 
           2645      1.56765e+9 
           2655      1.54999e+9 
           2665      1.53249e+9 
           2675      1.51595e+9 
           2685      1.50854e+9 
           2695      1.48316e+9 
           2705      1.47751e+9 
           2715      1.46231e+9 
           2725      1.43708e+9 
           2735      1.43254e+9 
           2745      1.41637e+9 
           2755      1.40238e+9 
           2765      1.37846e+9 
           2775      1.37544e+9 
           2785      1.36145e+9 
           2795      1.33982e+9 
           2805      1.33172e+9 
           2815      1.32108e+9 
           2825      1.29683e+9 
           2835      1.28934e+9 
           2845      1.28201e+9 
           2855       1.2693e+9 
           2865      1.25688e+9 
           2875      1.24446e+9 
           2885      1.23232e+9 
           2895      1.22022e+9 
           2910      1.20233e+9 
           2930      1.17904e+9 
           2950       1.1496e+9 
           2970       1.1343e+9 
           2990       1.1126e+9 
           3010      1.09151e+9 
           3030      1.07111e+9 
           3050      1.05104e+9 
           3070      1.03143e+9 
           3090      1.01205e+9 
           3110      9.93579e+8 
           3130      9.76461e+8 
           3150      9.58254e+8 
           3170      9.40465e+8 
           3190      9.16788e+8 
           3210      9.06825e+8 
           3230       8.9043e+8 
           3250      8.74369e+8 
           3270       8.5976e+8 
           3290      8.43387e+8 
           3310      8.29684e+8 
           3330      8.15162e+8 
           3350      7.99482e+8 
           3370      7.87035e+8 
           3390      7.73416e+8 
           3410      7.60126e+8 
           3430      7.43571e+8 
           3450      7.28359e+8 
           3470      7.18267e+8 
           3490      7.06903e+8 
           3510      6.98809e+8 
           3530      6.87436e+8 
           3550      6.76155e+8 
           3570      6.67418e+8 
           3590      6.53484e+8 
           3610      6.43228e+8 
           3630      6.32042e+8 
           3640      6.30223e+8 
           3650      6.23947e+8 
           3670      6.15459e+8 
           3690      5.93837e+8 
           3710      5.95471e+8 
           3730      5.99717e+8 
           3750      6.65026e+8 
           3770      6.66259e+8 
           3790      6.81408e+8 
           3810      7.05441e+8 
           3830      6.30523e+8 
           3850      7.10734e+8 
           3870      6.99835e+8 
           3890      6.05273e+8 
           3910      6.86649e+8 
           3930      6.72239e+8 
           3950      6.64579e+8 
           3970      5.62361e+8 
           3990       6.4169e+8 
           4010      6.30502e+8 
           4030      6.05749e+8 
           4050       6.1455e+8 
           4070      6.04113e+8 
           4090      5.79459e+8 
           4110      5.17431e+8 
           4130      5.70586e+8 
           4150      5.62606e+8 
           4170      5.56529e+8 
           4190      5.49233e+8 
           4210      5.40647e+8 
           4230      5.32199e+8 
           4250      5.23886e+8 
           4270      5.15333e+8 
           4290      5.07796e+8 
           4310      4.99525e+8 
           4330      4.73019e+8 
           4350      4.34993e+8 
           4370      4.76729e+8 
           4390      4.62758e+8 
           4410      4.63025e+8 
           4430      4.54304e+8 
           4450      4.49279e+8 
           4470      4.30825e+8 
           4490      4.35928e+8 
           4510      4.29532e+8 
           4530      4.23159e+8 
           4550        4.169e+8 
           4570       4.1077e+8 
           4590      4.04784e+8 
           4610      3.98904e+8 
           4630      3.93092e+8 
           4650      3.87262e+8 
           4670       3.8181e+8 
           4690      3.76265e+8 
           4710      3.67065e+8 
           4730      3.65584e+8 
           4750      3.60308e+8 
           4770      3.55372e+8 
           4790      3.50342e+8 
           4810      3.45399e+8 
           4830      3.40219e+8 
           4850      3.25471e+8 
           4870      2.94497e+8 
           4890      3.25777e+8 
           4910      3.21988e+8 
           4930      3.12653e+8 
           4950      3.13207e+8 
           4970      3.08922e+8 
           4990      3.04696e+8 
           5010      2.97615e+8 
           5030      2.96474e+8 
           5050      2.90925e+8 
           5070      2.88531e+8 
           5090      2.84654e+8 
           5110      2.80858e+8 
           5130      2.77098e+8 
           5150      2.73401e+8 
           5170      2.69796e+8 
           5190      2.66238e+8 
           5210      2.62727e+8 
           5230      2.59289e+8 
           5250      2.55896e+8 
           5270       2.5256e+8 
           5290      2.49281e+8 
           5310      2.46044e+8 
           5330      2.42875e+8 
           5350      2.39746e+8 
           5370       2.3667e+8 
           5390      2.33646e+8 
           5410      2.30673e+8 
           5430      2.27738e+8 
           5450      2.24852e+8 
           5470      2.22014e+8 
           5490      2.19225e+8 
           5510       2.1647e+8 
           5530      2.13761e+8 
           5550      2.11098e+8 
           5570      2.08468e+8 
           5590      2.05894e+8 
           5610      2.03339e+8 
           5630      2.00839e+8 
           5650      1.98369e+8 
           5670      1.95929e+8 
           5690      1.93531e+8 
           5710      1.91195e+8 
           5730      1.88876e+8 
           5750      1.86584e+8 
           5770      1.84343e+8 
           5790      1.82127e+8 
           5810      1.79938e+8 
           5830      1.77786e+8 
           5850      1.75669e+8 
           5870        1.695e+8 
           5890      1.71489e+8 
           5910        1.695e+8 
           5930      1.67501e+8 
           5950      1.65536e+8 
           5970      1.63605e+8 
           5990      1.61685e+8 
           6010      1.59807e+8 
           6030      1.57951e+8 
           6050      1.56126e+8 
           6070      1.54322e+8 
           6090      1.52548e+8 
           6110      1.50804e+8 
           6130       1.4908e+8 
           6150      1.47375e+8 
           6170      1.45699e+8 
           6190      1.44051e+8 
           6210      1.42421e+8 
           6230      1.40819e+8 
           6250      1.39234e+8 
           6270      1.37667e+8 
           6290      1.36127e+8 
           6310      1.34612e+8 
           6330      1.33114e+8 
           6350      1.31632e+8 
           6370      1.30185e+8 
           6390      1.28753e+8 
           6410      1.27337e+8 
           6430      1.25935e+8 
           6450      1.24567e+8 
           6470      1.23204e+8 
           6490      1.21864e+8 
           6510      1.20539e+8 
           6530       1.1913e+8 
           6550      1.15936e+8 
           6570      1.04645e+8 
           6590      1.15019e+8 
           6610      1.14195e+8 
           6630      1.12984e+8 
           6650      1.11862e+8 
           6670      1.09863e+8 
           6690      1.08719e+8 
           6710       1.0834e+8 
           6730      1.07206e+8 
           6750      1.06075e+8 
           6770      1.04965e+8 
           6790      1.03865e+8 
           6810      1.02785e+8 
           6830      1.01715e+8 
           6850      1.00665e+8 
           6870      9.96243e+7 
           6890      9.85945e+7 
           6910      9.75827e+7 
           6930      9.65732e+7 
           6950      9.55892e+7 
           6970      9.46149e+7 
           6990      9.36424e+7 
           7010      9.27025e+7 
           7030      9.17642e+7 
           7050       9.0835e+7 
           7070      8.85732e+7 
           7090       8.9011e+7 
           7110      8.81234e+7 
           7130       8.7237e+7 
           7150      8.63664e+7 
           7170      8.54896e+7 
           7190      8.46576e+7 
           7210      8.38262e+7 
           7230      8.29523e+7 
           7250      8.21799e+7 
           7270      8.13719e+7 
           7290      7.99549e+7 
           7310      7.97718e+7 
           7330      7.90075e+7 
           7350      7.82364e+7 
           7370      7.74725e+7 
           7390      7.67226e+7 
           7410      7.59866e+7 
           7430      7.52505e+7 
           7450      7.45416e+7 
           7470      7.38256e+7 
           7490      7.31163e+7 
           7510      7.23934e+7 
           7530      7.17303e+7 
           7550      7.10467e+7 
           7570       7.0376e+7 
           7590      6.97113e+7 
           7610      6.90526e+7 
           7630      6.83999e+7 
           7650      6.77595e+7 
           7670      6.71248e+7 
           7690      6.64958e+7 
           7710      6.58724e+7 
           7730      6.52672e+7 
           7750      6.46548e+7 
           7770      6.40603e+7 
           7790       6.3471e+7 
           7810      6.28314e+7 
           7830       6.2308e+7 
           7850      6.18075e+7 
           7870      6.12444e+7 
           7890      6.06438e+7 
           7910      6.00816e+7 
           7930      5.94417e+7 
           7950      5.88837e+7 
           7970      5.83128e+7 
           7990      5.78235e+7 
           8010      5.72891e+7 
           8030      5.68013e+7 
           8050      5.63293e+7 
           8070      5.58555e+7 
           8090      5.52412e+7 
           8110      5.48053e+7 
           8130      5.44055e+7 
           8150      5.38013e+7 
           8170      5.34586e+7 
           8190      5.29378e+7 
           8210      5.23477e+7 
           8230      5.20602e+7 
           8250      5.16049e+7 
           8270      5.08825e+7 
           8290      5.06268e+7 
           8310       5.0204e+7 
           8330      4.97574e+7 
           8350      4.90925e+7 
           8370      4.87108e+7 
           8390      4.83493e+7 
           8410      4.78848e+7 
           8430      4.74399e+7 
           8450      4.68458e+7 
           8470      4.62283e+7 
           8490      4.65601e+7 
           8510      4.51981e+7 
           8530      4.60649e+7 
           8550      4.37259e+7 
           8570      4.60698e+7 
           8590        4.365e+7 
