# Kurucz ODFNEW /NOVER (2003)
# teff = 9500 K (value for the effective temperature for the model. Temperatures are given in K)
# logg = 2 log(cm/s2) (value for Log(G) for the model.)
# meta = 0.5  (value for the Metallicity for the model.)
# lh = 1.25  (l/Hp where l is the  mixing length of the convective element and Hp is the pressure scale height)
# vtur = 2 km/s (Microturbulence velocity)
# alpha = 0.4  (Alpha)
#
# column 1: WAVELENGTH (ANGSTROM), Wavelength in Angstrom
# column 2: FLUX (ERG/CM2/S/A), Flux in erg/cm2/s/A
            308     3.51532e-23 
            318     4.13298e-22 
            328     3.81443e-21 
            338     3.06877e-20 
            348     2.20652e-19 
            357      1.2612e-18 
            366     6.25604e-18 
            375     2.86087e-17 
            385     1.44358e-16 
            395      6.6668e-16 
            405     2.89371e-15 
            414     1.02027e-14 
            422     2.99337e-14 
            430     8.36343e-14 
            441     3.31632e-13 
            451     1.08675e-12 
            460     3.03093e-12 
            470     9.05754e-12 
            480     2.59525e-11 
            490     7.13024e-11 
            500     1.87988e-10 
            506     5.84878e-10 
            512      1.19123e-9 
            520      2.35818e-9 
            530      5.39974e-9 
            540      1.18675e-8 
            550      2.58617e-8 
            560      5.43771e-8 
            570      1.11371e-7 
            580      2.19744e-7 
            590      4.33807e-7 
            600      8.27894e-7 
            610      1.55643e-6 
            620      2.84978e-6 
            630      5.12785e-6 
            640      9.01952e-6 
            650      1.57246e-5 
            658      2.41832e-5 
            665      3.47548e-5 
            675      5.80542e-5 
            685      9.56466e-5 
            695     0.000155262 
            705     0.000246431 
            716     0.000409272 
            726     0.000637017 
            735     0.000937596 
            745      0.00142397 
            755      0.00214158 
            765      0.00318771 
            775      0.00469838 
            785      0.00686302 
            795      0.00986372 
            805       0.0140867 
            815       0.0200319 
            825       0.0281585 
            835       0.0391602 
            845       0.0542809 
            855       0.0744466 
            865        0.101354 
            875        0.136471 
            885        0.183448 
            895        0.244321 
            905        0.322653 
            915         67.3611 
            925         339.474 
            935         414.347 
            945         545.462 
            955         843.859 
            965         1092.78 
            975         1124.45 
            985         1440.05 
            995         1554.52 
           1005         2018.55 
           1015         2488.69 
           1025         2611.37 
           1035         3255.23 
           1045         4088.73 
           1055         4875.03 
           1065         5227.99 
           1075          6372.9 
           1085         7387.54 
           1095         7738.97 
           1105         16746.4 
           1115         48923.5 
           1125         70563.9 
           1135          106984 
           1145          111982 
           1155          127981 
           1165          155413 
           1175          137684 
           1185          109706 
           1195         18601.3 
           1205         37739.8 
           1215         6115.05 
           1225         39793.7 
           1235          111001 
           1245          623198 
           1255      2.00259e+6 
           1265          613300 
           1275      5.46152e+6 
           1285      1.30635e+7 
           1295      7.52235e+6 
           1305          801119 
           1315      8.17673e+6 
           1325      1.58513e+7 
           1335      8.88479e+6 
           1345      2.01363e+7 
           1355      2.05454e+7 
           1365      1.51399e+7 
           1375      1.69125e+7 
           1385      1.67083e+7 
           1395      1.75816e+7 
           1405      1.86154e+7 
           1415      1.78311e+7 
           1425      2.38899e+7 
           1435      2.13682e+7 
           1442      2.51145e+7 
           1447      2.98334e+7 
           1455      3.03248e+7 
           1465       2.8078e+7 
           1475      2.67704e+7 
           1485      3.27952e+7 
           1495      3.70236e+7 
           1505      3.68758e+7 
           1512      2.85199e+7 
           1517      3.43123e+7 
           1525      2.57144e+7 
           1535      2.55371e+7 
           1545      5.95122e+7 
           1555      4.84072e+7 
           1565      4.08735e+7 
           1575      4.95927e+7 
           1585      6.00479e+7 
           1595      6.95092e+7 
           1605      6.06929e+7 
           1615      5.90033e+7 
           1625      5.10105e+7 
           1635      5.47952e+7 
           1645      5.91304e+7 
           1655      4.97515e+7 
           1665      5.57737e+7 
           1672      1.80887e+7 
           1677      5.56013e+7 
           1685      7.01916e+7 
           1695      6.74737e+7 
           1705       5.7591e+7 
           1715      5.60414e+7 
           1725      5.60506e+7 
           1735      6.71016e+7 
           1745      6.48402e+7 
           1755       8.0628e+7 
           1765      5.98539e+7 
           1775      7.27577e+7 
           1785      6.64208e+7 
           1795      8.91294e+7 
           1805      8.21618e+7 
           1815      8.08655e+7 
           1825      7.58328e+7 
           1835      7.05568e+7 
           1845      6.34149e+7 
           1855      6.53913e+7 
           1865      6.82412e+7 
           1875      7.67566e+7 
           1885      7.30022e+7 
           1895      7.36742e+7 
           1905      6.72264e+7 
           1915      7.05685e+7 
           1925      7.79805e+7 
           1935      7.64159e+7 
           1945      7.98804e+7 
           1955      7.96755e+7 
           1967      8.96399e+7 
           1976      9.17757e+7 
           1984      8.45624e+7 
           1995      8.12367e+7 
           2005      8.14321e+7 
           2015      7.23299e+7 
           2025      7.83028e+7 
           2035      7.75979e+7 
           2045      8.48915e+7 
           2055      7.18048e+7 
           2065      7.45062e+7 
           2074      8.67371e+7 
           2078      8.70893e+7 
           2085      8.54794e+7 
           2095      8.03118e+7 
           2105      7.61702e+7 
           2115      7.53404e+7 
           2125      7.85725e+7 
           2135      6.06126e+7 
           2145      7.12957e+7 
           2155      7.72608e+7 
           2165      7.03977e+7 
           2175      6.91546e+7 
           2185      6.78602e+7 
           2195      7.53275e+7 
           2205      6.96024e+7 
           2215      5.93325e+7 
           2225      5.53753e+7 
           2235      6.71943e+7 
           2245      5.97711e+7 
           2255      5.28137e+7 
           2265       5.6775e+7 
           2275      6.18701e+7 
           2285      6.53689e+7 
           2295      6.07328e+7 
           2305      5.70544e+7 
           2315       5.1987e+7 
           2325      5.09428e+7 
           2335      4.16168e+7 
           2345      3.60738e+7 
           2355      4.91899e+7 
           2365      3.54056e+7 
           2375      4.24442e+7 
           2385       3.1779e+7 
           2395       3.9697e+7 
           2405      3.67264e+7 
           2415      4.10633e+7 
           2425      5.11119e+7 
           2435      4.75548e+7 
           2445      5.27514e+7 
           2455      5.06385e+7 
           2465      4.90747e+7 
           2475      4.74717e+7 
           2485      5.19105e+7 
           2495      4.91526e+7 
           2505      5.90577e+7 
           2513      4.72113e+7 
           2518      5.11137e+7 
           2525      4.30269e+7 
           2535      4.43366e+7 
           2545      4.31687e+7 
           2555      5.00653e+7 
           2565      4.54528e+7 
           2575       5.2415e+7 
           2585      4.98696e+7 
           2595      4.63783e+7 
           2605      4.25537e+7 
           2615      4.16069e+7 
           2625      4.88047e+7 
           2635      5.07958e+7 
           2645      6.45166e+7 
           2655      6.37429e+7 
           2665      5.27961e+7 
           2675      5.81339e+7 
           2685      5.42685e+7 
           2695      5.40584e+7 
           2705      5.68207e+7 
           2715       5.1885e+7 
           2725      5.31689e+7 
           2735      5.88093e+7 
           2745      4.07401e+7 
           2755      4.24735e+7 
           2765      4.53511e+7 
           2775      5.32711e+7 
           2785       4.6726e+7 
           2795      2.02561e+7 
           2805      2.67722e+7 
           2815       5.1844e+7 
           2825      5.92476e+7 
           2835      5.50665e+7 
           2845      5.29253e+7 
           2855      4.96065e+7 
           2865      5.72101e+7 
           2875      5.38548e+7 
           2885      5.50753e+7 
           2895      5.10545e+7 
           2910      6.09842e+7 
           2930      5.68546e+7 
           2950      5.73417e+7 
           2970       6.0356e+7 
           2990       6.1161e+7 
           3010      6.35111e+7 
           3030      6.18055e+7 
           3050      5.99649e+7 
           3070      5.92021e+7 
           3090      6.14487e+7 
           3110      5.83122e+7 
           3130      5.78616e+7 
           3150      5.99464e+7 
           3170      5.91024e+7 
           3190      5.56241e+7 
           3210      5.77593e+7 
           3230      5.59196e+7 
           3250      5.71166e+7 
           3270      5.68182e+7 
           3290      5.75948e+7 
           3310      5.82488e+7 
           3330      5.61209e+7 
           3350      5.52078e+7 
           3370      5.48264e+7 
           3390      5.48567e+7 
           3410      5.65316e+7 
           3430      5.64475e+7 
           3450      5.56778e+7 
           3470      5.45309e+7 
           3490      5.37747e+7 
           3510      5.50412e+7 
           3530      5.54865e+7 
           3550      5.57987e+7 
           3570      5.40165e+7 
           3590       5.3811e+7 
           3610      5.37512e+7 
           3630      5.33778e+7 
           3640      5.26726e+7 
           3650      5.47173e+7 
           3670      5.34177e+7 
           3690      5.47466e+7 
           3710      6.98712e+7 
           3730      9.07591e+7 
           3750      1.21912e+8 
           3770      1.21785e+8 
           3790       1.3694e+8 
           3810      1.47859e+8 
           3830      1.22596e+8 
           3850      1.47683e+8 
           3870      1.51382e+8 
           3890      1.19369e+8 
           3910      1.45883e+8 
           3930      1.37243e+8 
           3950      1.45991e+8 
           3970      1.09515e+8 
           3990      1.42998e+8 
           4010      1.40617e+8 
           4030      1.37668e+8 
           4050      1.37462e+8 
           4070      1.34093e+8 
           4090      1.31134e+8 
           4110      1.07924e+8 
           4130      1.27363e+8 
           4150      1.30178e+8 
           4170      1.25763e+8 
           4190      1.25202e+8 
           4210      1.24377e+8 
           4230      1.22738e+8 
           4250      1.19786e+8 
           4270      1.17832e+8 
           4290      1.17818e+8 
           4310      1.13602e+8 
           4330      1.06298e+8 
           4350      9.36662e+7 
           4370      1.11895e+8 
           4390       1.0835e+8 
           4410       1.0785e+8 
           4430      1.07314e+8 
           4450      1.06727e+8 
           4470      1.05238e+8 
           4490      1.02924e+8 
           4510      1.03076e+8 
           4530      1.00815e+8 
           4550      9.81999e+7 
           4570      1.00032e+8 
           4590      9.64797e+7 
           4610      9.89593e+7 
           4630       9.4623e+7 
           4650      9.62953e+7 
           4670      9.43909e+7 
           4690      9.36544e+7 
           4710       9.0524e+7 
           4730      9.15484e+7 
           4750      9.06071e+7 
           4770      8.99946e+7 
           4790      8.87947e+7 
           4810      8.69408e+7 
           4830      8.56474e+7 
           4850       7.9534e+7 
           4870      6.69529e+7 
           4890      8.31064e+7 
           4910      8.21682e+7 
           4930      8.05372e+7 
           4950      8.03859e+7 
           4970      8.00406e+7 
           4990      7.83004e+7 
           5010      7.50844e+7 
           5030      7.50901e+7 
           5050       7.3848e+7 
           5070      7.41136e+7 
           5090      7.33782e+7 
           5110      7.22062e+7 
           5130      7.15069e+7 
           5150      6.97182e+7 
           5170      6.86527e+7 
           5190      6.80924e+7 
           5210      6.74513e+7 
           5230      6.61059e+7 
           5250      6.66515e+7 
           5270      6.43547e+7 
           5290      6.57349e+7 
           5310      6.34757e+7 
           5330      6.31408e+7 
           5350      6.38331e+7 
           5370      6.29117e+7 
           5390       6.2045e+7 
           5410      6.09152e+7 
           5430      6.02616e+7 
           5450      6.03858e+7 
           5470      5.95597e+7 
           5490      5.91416e+7 
           5510      5.82415e+7 
           5530      5.78185e+7 
           5550      5.74417e+7 
           5570      5.67239e+7 
           5590      5.63706e+7 
           5610      5.60675e+7 
           5630      5.54203e+7 
           5650       5.4199e+7 
           5670        5.389e+7 
           5690      5.36724e+7 
           5710      5.31711e+7 
           5730       5.2664e+7 
           5750      5.20043e+7 
           5770      5.15392e+7 
           5790      5.07758e+7 
           5810      5.03141e+7 
           5830      4.97855e+7 
           5850      4.94457e+7 
           5870      4.87474e+7 
           5890      4.79674e+7 
           5910      4.78094e+7 
           5930      4.74478e+7 
           5950      4.64472e+7 
           5970        4.633e+7 
           5990      4.56221e+7 
           6010      4.54629e+7 
           6030      4.50862e+7 
           6050      4.44057e+7 
           6070      4.40911e+7 
           6090      4.36273e+7 
           6110      4.32432e+7 
           6130       4.2756e+7 
           6150      4.13837e+7 
           6170      4.19056e+7 
           6190      4.15959e+7 
           6210      4.12004e+7 
           6230      4.06558e+7 
           6250      3.95627e+7 
           6270      4.00103e+7 
           6290      3.96077e+7 
           6310       3.8954e+7 
           6330      3.87806e+7 
           6350      3.75407e+7 
           6370      3.74474e+7 
           6390      3.75843e+7 
           6410      3.71126e+7 
           6430       3.6904e+7 
           6450       3.5942e+7 
           6470      3.63303e+7 
           6490       3.5554e+7 
           6510      3.52763e+7 
           6530      3.49351e+7 
           6550      3.28631e+7 
           6570      2.69886e+7 
           6590       3.3823e+7 
           6610      3.38074e+7 
           6630      3.35327e+7 
           6650      3.33313e+7 
           6670      3.29293e+7 
           6690      3.26334e+7 
           6710      3.24057e+7 
           6730      3.19397e+7 
           6750      3.17573e+7 
           6770      3.15354e+7 
           6790      3.11636e+7 
           6810      3.09313e+7 
           6830      3.05219e+7 
           6850      3.03326e+7 
           6870      3.00677e+7 
           6890      2.98236e+7 
           6910      2.95162e+7 
           6930      2.91924e+7 
           6950      2.90168e+7 
           6970      2.87233e+7 
           6990      2.85245e+7 
           7010       2.8017e+7 
           7030      2.80034e+7 
           7050       2.7675e+7 
           7070      2.74666e+7 
           7090      2.72811e+7 
           7110      2.68365e+7 
           7130      2.67024e+7 
           7150      2.64648e+7 
           7170      2.62595e+7 
           7190      2.60429e+7 
           7210       2.5837e+7 
           7230       2.5517e+7 
           7250      2.52639e+7 
           7270      2.51529e+7 
           7290      2.48967e+7 
           7310      2.46309e+7 
           7330       2.4477e+7 
           7350      2.43154e+7 
           7370      2.41392e+7 
           7390      2.39032e+7 
           7410      2.36502e+7 
           7430      2.32651e+7 
           7450      2.31654e+7 
           7470      2.28768e+7 
           7490      2.27884e+7 
           7510       2.2563e+7 
           7530      2.24978e+7 
           7550      2.23331e+7 
           7570      2.21134e+7 
           7590      2.19211e+7 
           7610      2.17996e+7 
           7630      2.15884e+7 
           7650       2.1334e+7 
           7670      2.11986e+7 
           7690      2.10145e+7 
           7710      2.08004e+7 
           7730      2.06923e+7 
           7750      2.05223e+7 
           7770      1.97978e+7 
           7790      2.01861e+7 
           7810      2.00439e+7 
           7830      1.98476e+7 
           7850      1.95534e+7 
           7870      1.93867e+7 
           7890      1.91342e+7 
           7910      1.91736e+7 
           7930      1.90525e+7 
           7950      1.86378e+7 
           7970       1.8765e+7 
           7990      1.81714e+7 
           8010      1.84565e+7 
           8030      1.83016e+7 
           8050      1.81503e+7 
           8070      1.80061e+7 
           8090      1.78683e+7 
           8110      1.76846e+7 
           8130      1.75897e+7 
           8150      1.74615e+7 
           8170      1.73287e+7 
           8190      1.70465e+7 
           8210      1.68713e+7 
           8230      1.66159e+7 
           8250      1.67336e+7 
           8270      1.67585e+7 
           8290      1.65412e+7 
           8310      1.64393e+7 
           8330      1.61808e+7 
           8350      1.61174e+7 
           8370      1.58195e+7 
           8390      1.57613e+7 
           8410      1.55719e+7 
           8430       1.5832e+7 
           8450      1.54364e+7 
           8470      1.50249e+7 
           8490      1.63429e+7 
           8510      1.46488e+7 
           8530      1.65886e+7 
           8550      1.41921e+7 
           8570      1.67717e+7 
           8590      1.56792e+7 
           8610      1.51958e+7 
           8630      1.69561e+7 
           8650      1.66794e+7 
           8670      1.36611e+7 
           8690      1.64723e+7 
           8710      1.67463e+7 
           8730      1.64166e+7 
           8750      1.34513e+7 
           8770      1.60463e+7 
           8790      1.63273e+7 
           8810      1.61504e+7 
           8830      1.57951e+7 
           8850      1.53029e+7 
           8870      1.30103e+7 
           8890      1.55845e+7 
           8910      1.55014e+7 
           8930      1.53437e+7 
           8950      1.54017e+7 
           8970      1.52675e+7 
           8990      1.50165e+7 
           9010      1.27284e+7 
           9030       1.3968e+7 
           9050      1.47316e+7 
           9070      1.43818e+7 
           9090      1.42767e+7 
           9110      1.43175e+7 
           9130      1.43037e+7 
           9150       1.4275e+7 
           9170      1.40972e+7 
           9190      1.38548e+7 
           9210      1.35406e+7 
           9230      1.10631e+7 
           9250      1.31675e+7 
           9270      1.30788e+7 
           9290      1.34826e+7 
           9310        1.343e+7 
           9330      1.32638e+7 
