# Kurucz ODFNEW /NOVER (2003)
# teff = 10000 K (value for the effective temperature for the model. Temperatures are given in K)
# logg = 4.5 log(cm/s2) (value for Log(G) for the model.)
# meta = 0.5  (value for the Metallicity for the model.)
# lh = 1.25  (l/Hp where l is the  mixing length of the convective element and Hp is the pressure scale height)
# vtur = 2 km/s (Microturbulence velocity)
# alpha = 0  (Alpha)
#
# column 1: WAVELENGTH (ANGSTROM), Wavelength in Angstrom
# column 2: FLUX (ERG/CM2/S/A), Flux in erg/cm2/s/A
          268.5     1.05741e-23 
          273.5     7.25686e-23 
          278.5     2.85351e-22 
            284     1.17887e-21 
            290     5.13579e-21 
            296     2.10319e-20 
            301     6.56234e-20 
            308     3.05239e-19 
            318     2.46079e-18 
            328     1.76732e-17 
            338     1.14054e-16 
            348     6.67794e-16 
            357     3.04164e-15 
            366     1.29483e-14 
            375     5.15594e-14 
            385     2.23326e-13 
            395     9.03547e-13 
            405     3.42978e-12 
            414     1.08083e-11 
            422     2.88189e-11 
            430     7.42497e-11 
            441     2.58971e-10 
            451     7.64161e-10 
            460      1.94667e-9 
            470      5.28172e-9 
            480      1.37434e-8 
            490      3.43921e-8 
            500       8.3001e-8 
            506      1.55188e-7 
            512      2.65017e-7 
            520      4.98665e-7 
            530      1.07257e-6 
            540      2.23467e-6 
            550      4.55077e-6 
            560      9.03694e-6 
            570      1.75042e-5 
            580      3.30613e-5 
            590      6.13351e-5 
            600     0.000111271 
            610     0.000197902 
            620     0.000345074 
            630      0.00059132 
            640     0.000995353 
            650      0.00164834 
            658      0.00243911 
            665      0.00340894 
            675      0.00543168 
            685      0.00852975 
            695       0.0132121 
            705       0.0201968 
            716       0.0317584 
            726       0.0473024 
            735       0.0670487 
            745       0.0977416 
            755        0.140957 
            765        0.201212 
            775        0.284386 
            785        0.398105 
            795        0.552125 
            805        0.759127 
            815         1.03492 
            825         1.39926 
            835         1.87688 
            845         2.49851 
            855         3.30181 
            865         4.33239 
            875         5.64584 
            885         7.30876 
            895         9.40148 
            905         12.0191 
            915         175.161 
            925         1082.91 
            935         1572.42 
            945         2231.37 
            955         3118.67 
            965         3949.93 
            975         3898.21 
            985         5251.24 
            995         5722.72 
           1005         7192.74 
           1015         8408.01 
           1025         7840.63 
           1035         10941.1 
           1045         12827.8 
           1055         14716.5 
           1065         16173.2 
           1075         19140.2 
           1085           21793 
           1095         23628.8 
           1105         42386.6 
           1115         98216.8 
           1125          132115 
           1135          176894 
           1145          198482 
           1155          221879 
           1165          274417 
           1175          292215 
           1185          286687 
           1195          150618 
           1205          182960 
           1215         43125.9 
           1225          189988 
           1235          367066 
           1245          637975 
           1255      4.94046e+6 
           1265      6.43669e+6 
           1275      1.64555e+7 
           1285      3.04673e+7 
           1295       3.0558e+7 
           1305      1.08078e+7 
           1315      3.23479e+7 
           1325      4.16658e+7 
           1335      3.66895e+7 
           1345      5.09025e+7 
           1355      4.69141e+7 
           1365      4.13948e+7 
           1375      4.72251e+7 
           1385      4.09287e+7 
           1395      4.48256e+7 
           1405      4.83521e+7 
           1415      4.82299e+7 
           1425      5.84641e+7 
           1435      4.85304e+7 
           1442      6.12934e+7 
           1447      6.71068e+7 
           1455      6.80009e+7 
           1465      6.22065e+7 
           1475      6.03512e+7 
           1485      6.74644e+7 
           1495      7.75177e+7 
           1505      7.82707e+7 
           1512      6.43877e+7 
           1517       7.6574e+7 
           1525      7.13066e+7 
           1535      7.52795e+7 
           1545       1.0923e+8 
           1555      7.35986e+7 
           1565      6.35813e+7 
           1575      9.47904e+7 
           1585      1.20228e+8 
           1595      1.34564e+8 
           1605      1.28894e+8 
           1615      1.24551e+8 
           1625      1.01864e+8 
           1635      1.06635e+8 
           1645       1.3179e+8 
           1655      9.65678e+7 
           1665      1.26754e+8 
           1672      7.30433e+7 
           1677      1.22178e+8 
           1685      1.43064e+8 
           1695      1.18528e+8 
           1705      1.14023e+8 
           1715      1.14764e+8 
           1725      1.12468e+8 
           1735      1.27227e+8 
           1745      1.24388e+8 
           1755       1.4455e+8 
           1765       1.0983e+8 
           1775      1.32798e+8 
           1785      1.31716e+8 
           1795      1.53731e+8 
           1805      1.40596e+8 
           1815      1.40069e+8 
           1825      1.31616e+8 
           1835      1.24736e+8 
           1845      1.11502e+8 
           1855      1.22631e+8 
           1865      1.25576e+8 
           1875      1.30787e+8 
           1885      1.27887e+8 
           1895      1.30685e+8 
           1905      1.20316e+8 
           1915        1.299e+8 
           1925      1.31808e+8 
           1935      1.21333e+8 
           1945      1.33801e+8 
           1955      1.31618e+8 
           1967      1.41068e+8 
           1976      1.40018e+8 
           1984      1.33158e+8 
           1995      1.27756e+8 
           2005      1.24236e+8 
           2015      1.16177e+8 
           2025       1.1743e+8 
           2035      1.22164e+8 
           2045      1.30053e+8 
           2055      1.21716e+8 
           2065      1.18967e+8 
           2074      1.28964e+8 
           2078      1.33013e+8 
           2085      1.29279e+8 
           2095      1.23018e+8 
           2105      1.16827e+8 
           2115      1.16971e+8 
           2125      1.20712e+8 
           2135       9.7963e+7 
           2145      1.12642e+8 
           2155       1.1473e+8 
           2165      1.06881e+8 
           2175      1.04833e+8 
           2185      1.06196e+8 
           2195      1.12846e+8 
           2205      1.06858e+8 
           2215      9.62129e+7 
           2225      9.33258e+7 
           2235      1.06385e+8 
           2245      9.41595e+7 
           2255       8.9696e+7 
           2265      9.19605e+7 
           2275      9.79014e+7 
           2285      1.01931e+8 
           2295      9.51368e+7 
           2305      9.18455e+7 
           2315      8.72859e+7 
           2325      8.58746e+7 
           2335      7.85972e+7 
           2345      7.15159e+7 
           2355      8.60306e+7 
           2365      7.18471e+7 
           2375      7.78354e+7 
           2385      6.62006e+7 
           2395      7.53784e+7 
           2405      7.07472e+7 
           2415      7.37669e+7 
           2425      8.13662e+7 
           2435      7.71475e+7 
           2445      8.34372e+7 
           2455      8.01336e+7 
           2465      7.99931e+7 
           2475      7.59532e+7 
           2485      8.04311e+7 
           2495      7.65741e+7 
           2505      8.79352e+7 
           2513      7.54155e+7 
           2518      7.76653e+7 
           2525      7.08714e+7 
           2535      7.02078e+7 
           2545      6.86916e+7 
           2555      7.48378e+7 
           2565      7.39118e+7 
           2575      8.12818e+7 
           2585      8.12066e+7 
           2595      7.84729e+7 
           2605      7.45795e+7 
           2615      7.31728e+7 
           2625      8.03307e+7 
           2635      8.04763e+7 
           2645      9.22488e+7 
           2655      9.09032e+7 
           2665      7.98894e+7 
           2675      8.53687e+7 
           2685      8.34694e+7 
           2695      8.01436e+7 
           2705      8.29554e+7 
           2715      7.77814e+7 
           2725      7.89518e+7 
           2735       8.5925e+7 
           2745       6.9621e+7 
           2755      7.08984e+7 
           2765      7.32741e+7 
           2775      8.06674e+7 
           2785      7.72088e+7 
           2795      5.18122e+7 
           2805      6.12207e+7 
           2815      8.21612e+7 
           2825      8.52767e+7 
           2835      8.07764e+7 
           2845      7.72167e+7 
           2855      7.40192e+7 
           2865       8.1012e+7 
           2875      7.79883e+7 
           2885      7.94356e+7 
           2895      7.52018e+7 
           2910      8.51769e+7 
           2930      8.08189e+7 
           2950      8.05883e+7 
           2970      8.23595e+7 
           2990      8.27026e+7 
           3010      8.40563e+7 
           3030      8.24538e+7 
           3050      8.13314e+7 
           3070       8.0495e+7 
           3090      8.15673e+7 
           3110      7.89013e+7 
           3130      7.84576e+7 
           3150      7.97767e+7 
           3170      7.89569e+7 
           3190      7.52859e+7 
           3210        7.691e+7 
           3230       7.4805e+7 
           3250      7.57454e+7 
           3270      7.58152e+7 
           3290      7.62153e+7 
           3310      7.64111e+7 
           3330      7.44191e+7 
           3350      7.31337e+7 
           3370      7.27724e+7 
           3390      7.21851e+7 
           3410       7.3181e+7 
           3430       7.2788e+7 
           3450      7.20035e+7 
           3470      7.09037e+7 
           3490      7.03655e+7 
           3510       7.1104e+7 
           3530      7.09446e+7 
           3550      7.09038e+7 
           3570       6.9142e+7 
           3590      6.86134e+7 
           3610      6.82427e+7 
           3630      6.79645e+7 
           3640      6.73868e+7 
           3650      6.88053e+7 
           3670      6.84574e+7 
           3690      6.64833e+7 
           3710      6.51991e+7 
           3730      6.32373e+7 
           3750      7.48717e+7 
           3770      7.91209e+7 
           3790      9.89105e+7 
           3810      1.17259e+8 
           3830      9.18267e+7 
           3850      1.29983e+8 
           3870      1.50889e+8 
           3890      7.95852e+7 
           3910      1.50297e+8 
           3930      1.54725e+8 
           3950      1.50223e+8 
           3970      7.56738e+7 
           3990      1.43381e+8 
           4010      1.64359e+8 
           4030      1.64017e+8 
           4050      1.62369e+8 
           4070       1.5271e+8 
           4090      1.12379e+8 
           4110      8.40053e+7 
           4130      1.41531e+8 
           4150      1.51753e+8 
           4170      1.50844e+8 
           4190      1.49122e+8 
           4210       1.4779e+8 
           4230      1.44368e+8 
           4250      1.42453e+8 
           4270      1.37593e+8 
           4290      1.37605e+8 
           4310      1.26505e+8 
           4330      9.02476e+7 
           4350      7.62478e+7 
           4370      1.22279e+8 
           4390      1.26369e+8 
           4410      1.26601e+8 
           4430      1.24643e+8 
           4450      1.26023e+8 
           4470      1.24085e+8 
           4490      1.20472e+8 
           4510       1.2182e+8 
           4530       1.1921e+8 
           4550      1.16333e+8 
           4570      1.17468e+8 
           4590      1.14427e+8 
           4610       1.1531e+8 
           4630      1.11534e+8 
           4650      1.12121e+8 
           4670      1.10338e+8 
           4690      1.07022e+8 
           4710      1.03172e+8 
           4730      1.05994e+8 
           4750      1.04636e+8 
           4770      1.03199e+8 
           4790      1.01492e+8 
           4810      9.83846e+7 
           4830      9.23281e+7 
           4850      6.83422e+7 
           4870      5.49061e+7 
           4890      8.59375e+7 
           4910      9.18692e+7 
           4930      9.13733e+7 
           4950      9.16927e+7 
           4970      9.14382e+7 
           4990      8.96643e+7 
           5010      8.69971e+7 
           5030      8.70259e+7 
           5050      8.51945e+7 
           5070      8.56742e+7 
           5090      8.46489e+7 
           5110      8.35678e+7 
           5130      8.25825e+7 
           5150      8.09125e+7 
           5170      7.90854e+7 
           5190      7.84533e+7 
           5210      7.81922e+7 
           5230      7.65375e+7 
           5250      7.69082e+7 
           5270      7.41687e+7 
           5290      7.51921e+7 
           5310      7.34123e+7 
           5330      7.21635e+7 
           5350      7.27569e+7 
           5370      7.16385e+7 
           5390      7.08343e+7 
           5410      6.94543e+7 
           5430      6.91161e+7 
           5450      6.87683e+7 
           5470      6.78936e+7 
           5490      6.72386e+7 
           5510       6.6461e+7 
           5530      6.56177e+7 
           5550      6.51065e+7 
           5570      6.43253e+7 
           5590      6.36814e+7 
           5610      6.31719e+7 
           5630      6.25242e+7 
           5650       6.1648e+7 
           5670      6.09514e+7 
           5690      6.04445e+7 
           5710      5.98347e+7 
           5730      5.93007e+7 
           5750      5.85037e+7 
           5770      5.79337e+7 
           5790      5.72296e+7 
           5810      5.66878e+7 
           5830      5.61178e+7 
           5850      5.55355e+7 
           5870      5.48581e+7 
           5890      5.38411e+7 
           5910      5.37513e+7 
           5930      5.32351e+7 
           5950      5.24585e+7 
           5970      5.20421e+7 
           5990      5.13434e+7 
           6010      5.08364e+7 
           6030       5.0477e+7 
           6050      4.98782e+7 
           6070      4.94591e+7 
           6090      4.89387e+7 
           6110       4.8415e+7 
           6130       4.7842e+7 
           6150      4.65323e+7 
           6170      4.67962e+7 
           6190      4.65169e+7 
           6210       4.6036e+7 
           6230       4.5506e+7 
           6250      4.46096e+7 
           6270      4.46819e+7 
           6290      4.42392e+7 
           6310      4.36564e+7 
           6330      4.33133e+7 
           6350       4.2286e+7 
           6370      4.21072e+7 
           6390      4.20028e+7 
           6410      4.14541e+7 
           6430      4.11046e+7 
           6450      4.02125e+7 
           6470      4.02172e+7 
           6490      3.94599e+7 
           6510      3.87991e+7 
           6530      3.71633e+7 
           6550      3.13238e+7 
           6570      2.52658e+7 
           6590      3.46219e+7 
           6610      3.66813e+7 
           6630      3.69343e+7 
           6650      3.68002e+7 
           6670      3.65163e+7 
           6690      3.62562e+7 
           6710      3.59835e+7 
           6730       3.5572e+7 
           6750       3.5273e+7 
           6770      3.50329e+7 
           6790      3.46838e+7 
           6810      3.43756e+7 
           6830      3.40009e+7 
           6850      3.37112e+7 
           6870      3.34234e+7 
           6890      3.31256e+7 
           6910      3.28048e+7 
           6930      3.24768e+7 
           6950       3.2206e+7 
           6970      3.19012e+7 
           6990      3.16403e+7 
           7010       3.1171e+7 
           7030      3.10274e+7 
           7050      3.07296e+7 
           7070      3.04972e+7 
           7090      3.02369e+7 
           7110      2.95797e+7 
           7130      2.95963e+7 
           7150      2.93381e+7 
           7170      2.91263e+7 
           7190      2.88624e+7 
           7210       2.8625e+7 
           7230      2.83457e+7 
           7250      2.80219e+7 
           7270      2.78807e+7 
           7290      2.75883e+7 
           7310      2.73586e+7 
           7330      2.71408e+7 
           7350      2.69277e+7 
           7370      2.66992e+7 
           7390       2.6437e+7 
           7410      2.61703e+7 
           7430      2.57934e+7 
           7450      2.56626e+7 
           7470      2.53147e+7 
           7490      2.52113e+7 
           7510      2.50444e+7 
           7530      2.48797e+7 
           7550      2.46939e+7 
           7570      2.44761e+7 
           7590      2.42727e+7 
           7610      2.40796e+7 
           7630       2.3861e+7 
           7650      2.36366e+7 
           7670      2.34111e+7 
           7690      2.32308e+7 
           7710      2.30313e+7 
           7730      2.28719e+7 
           7750      2.26762e+7 
           7770      2.19512e+7 
           7790      2.23117e+7 
           7810      2.21296e+7 
           7830      2.19067e+7 
           7850      2.16626e+7 
           7870      2.14152e+7 
           7890        2.117e+7 
           7910      2.11233e+7 
           7930      2.10091e+7 
           7950      2.06668e+7 
           7970      2.07145e+7 
           7990      2.02132e+7 
           8010      2.03643e+7 
           8030      2.01817e+7 
           8050      2.00374e+7 
           8070      1.98618e+7 
           8090      1.97073e+7 
           8110       1.9553e+7 
           8130      1.94159e+7 
           8150      1.92634e+7 
           8170      1.91139e+7 
           8190      1.87735e+7 
           8210      1.86677e+7 
           8230      1.84725e+7 
           8250       1.8455e+7 
           8270      1.84925e+7 
           8290      1.83146e+7 
           8310      1.82058e+7 
           8330       1.7961e+7 
           8350      1.79383e+7 
           8370      1.78242e+7 
           8390      1.76735e+7 
           8410      1.75315e+7 
           8430      1.73598e+7 
           8450      1.69422e+7 
           8470       1.6972e+7 
           8490      1.69183e+7 
           8510      1.63702e+7 
           8530       1.6732e+7 
           8550      1.55335e+7 
           8570      1.66891e+7 
           8590      1.57185e+7 
           8610      1.54331e+7 
           8630      1.66015e+7 
           8650      1.58491e+7 
           8670      1.36255e+7 
           8690      1.59584e+7 
           8710      1.66589e+7 
           8730      1.58165e+7 
           8750      1.27506e+7 
           8770      1.49858e+7 
           8790      1.65677e+7 
           8810      1.67425e+7 
           8830       1.6044e+7 
           8850      1.39874e+7 
           8870      1.20325e+7 
           8890      1.51207e+7 
           8910      1.61325e+7 
           8930        1.634e+7 
           8950      1.63922e+7 
           8970      1.59305e+7 
           8990      1.47638e+7 
           9010      1.16388e+7 
           9030      1.26296e+7 
           9050       1.4824e+7 
           9070      1.52093e+7 
           9090      1.52473e+7 
           9110      1.55096e+7 
           9130      1.54792e+7 
           9150      1.53878e+7 
           9170      1.50613e+7 
