# Kurucz ODFNEW /NOVER (2003)
# teff = 28000 K (value for the effective temperature for the model. Temperatures are given in K)
# logg = 3.5 log(cm/s2) (value for Log(G) for the model.)
# meta = -1  (value for the Metallicity for the model.)
# lh = 1.25  (l/Hp where l is the  mixing length of the convective element and Hp is the pressure scale height)
# vtur = 2 km/s (Microturbulence velocity)
# alpha = 0.4  (Alpha)
#
# column 1: WAVELENGTH (ANGSTROM), Wavelength in Angstrom
# column 2: FLUX (ERG/CM2/S/A), Flux in erg/cm2/s/A
          147.2     9.78134e-11 
            151     3.61892e-10 
          155.2      1.42732e-9 
          158.8      4.36898e-9 
            162       1.1335e-8 
            166      3.54363e-8 
          170.3      1.13541e-7 
          173.4      2.53633e-7 
          176.8      5.92472e-7 
          180.2      1.33941e-6 
          181.7      1.90037e-6 
          186.1      5.13503e-6 
            191      1.47032e-5 
          193.9      2.67067e-5 
          198.4      6.50763e-5 
          201.8     0.000124139 
            205      0.00022342 
          210.5     0.000587826 
          216.2      0.00151861 
          219.8      0.00269485 
            223      0.00441501 
          226.8      0.00780437 
            230         4.19786 
            234         10.0196 
            240         19.3924 
          246.5         39.5626 
          252.4         73.4881 
          256.8         98.7607 
            260         161.631 
            264         225.564 
          268.5         350.166 
          273.5         539.694 
          278.5         792.828 
            284         1468.08 
            290         2295.85 
            296         3469.36 
            301         4616.34 
            308         7855.94 
            318         17714.7 
            328         30338.6 
            338           55007 
            348         92126.1 
            357          216326 
            366          370891 
            375          514388 
            385          790236 
            395      1.23096e+6 
            405      1.69858e+6 
            414      2.33912e+6 
            422      2.86539e+6 
            430      3.64484e+6 
            441       4.9307e+6 
            451      6.43863e+6 
            460      7.84491e+6 
            470      1.00394e+7 
            480      1.24885e+7 
            490      1.54727e+7 
            500      1.93503e+7 
            506      1.00125e+8 
            512      4.71027e+8 
            520      4.62441e+8 
            530      4.67807e+8 
            540      4.41417e+8 
            550      5.49465e+8 
            560      6.26661e+8 
            570       6.7671e+8 
            580      6.27091e+8 
            590      7.29476e+8 
            600       7.1678e+8 
            610      8.07149e+8 
            620      8.89107e+8 
            630      9.21407e+8 
            640      9.11564e+8 
            650      9.49447e+8 
            658      9.77142e+8 
            665      1.04962e+9 
            675      1.07812e+9 
            685      1.05129e+9 
            695      1.23082e+9 
            705      1.16462e+9 
            716        1.342e+9 
            726      1.35038e+9 
            735      1.39848e+9 
            745      1.47637e+9 
            755      1.51002e+9 
            765      1.57972e+9 
            775      1.64554e+9 
            785      1.72719e+9 
            795      1.75876e+9 
            805      1.78771e+9 
            815      1.81075e+9 
            825      1.91031e+9 
            835      1.73964e+9 
            845      1.95861e+9 
            855      1.99984e+9 
            865      2.07104e+9 
            875      2.13606e+9 
            885      2.21442e+9 
            895      2.27409e+9 
            905      2.27967e+9 
            915      3.49688e+9 
            925     2.09766e+10 
            935     3.30786e+10 
            945     4.45144e+10 
            955     4.72551e+10 
            965     5.14672e+10 
            975     2.61544e+10 
            985     4.60979e+10 
            995     4.34103e+10 
           1005     4.48483e+10 
           1015     4.51867e+10 
           1025     3.50243e+10 
           1035     4.22861e+10 
           1045      4.7818e+10 
           1055     4.60121e+10 
           1065     4.10334e+10 
           1075      4.2787e+10 
           1085     4.02451e+10 
           1095     4.26804e+10 
           1105     4.07298e+10 
           1115     3.99206e+10 
           1125     3.46569e+10 
           1135     3.92046e+10 
           1145     3.66061e+10 
           1155     3.68194e+10 
           1165      3.6598e+10 
           1175     2.80864e+10 
           1185     3.42356e+10 
           1195     3.30899e+10 
           1205     2.99718e+10 
           1215     2.41956e+10 
           1225     3.15166e+10 
           1235     3.24656e+10 
           1245     3.13847e+10 
           1255     3.12788e+10 
           1265     3.11158e+10 
           1275     3.10236e+10 
           1285     3.05609e+10 
           1295     2.74916e+10 
           1305     2.80652e+10 
           1315     2.90822e+10 
           1325     2.80762e+10 
           1335     2.72428e+10 
           1345     2.70538e+10 
           1355     2.69657e+10 
           1365     2.58826e+10 
           1375     2.54896e+10 
           1385     2.50541e+10 
           1395     2.02378e+10 
           1405     2.10328e+10 
           1415     2.34912e+10 
           1425     2.23426e+10 
           1435     2.27202e+10 
           1442     2.28317e+10 
           1447     2.25213e+10 
           1455     2.19202e+10 
           1465     2.14446e+10 
           1475     2.12137e+10 
           1485     2.09837e+10 
           1495     2.04308e+10 
           1505     1.97244e+10 
           1512     1.93577e+10 
           1517      1.9353e+10 
           1525     1.90177e+10 
           1535     1.74213e+10 
           1545     1.67467e+10 
           1555     1.62843e+10 
           1565     1.68351e+10 
           1575     1.72037e+10 
           1585     1.70548e+10 
           1595     1.69023e+10 
           1605     1.60547e+10 
           1615     1.56269e+10 
           1625     1.56263e+10 
           1635     1.57035e+10 
           1645     1.52653e+10 
           1655     1.54665e+10 
           1665     1.51481e+10 
           1672     1.46968e+10 
           1677     1.55416e+10 
           1685     1.51078e+10 
           1695     1.47019e+10 
           1705     1.43563e+10 
           1715     1.39165e+10 
           1725     1.36151e+10 
           1735      1.3794e+10 
           1745     1.35634e+10 
           1755     1.33946e+10 
           1765     1.31259e+10 
           1775     1.28409e+10 
           1785     1.27684e+10 
           1795     1.26546e+10 
           1805     1.26073e+10 
           1815     1.21794e+10 
           1825     1.20893e+10 
           1835      1.1959e+10 
           1845      1.1262e+10 
           1855     1.11923e+10 
           1865     1.12243e+10 
           1875     1.11531e+10 
           1885     1.05442e+10 
           1895     1.01344e+10 
           1905     1.04547e+10 
           1915     1.00899e+10 
           1925      9.74685e+9 
           1935      9.99933e+9 
           1945      1.0053e+10 
           1955      9.39639e+9 
           1967      9.63778e+9 
           1976      9.80857e+9 
           1984      9.38594e+9 
           1995       9.1255e+9 
           2005      9.21566e+9 
           2015      9.20997e+9 
           2025      9.18804e+9 
           2035      8.82924e+9 
           2045      8.72535e+9 
           2055      7.87916e+9 
           2065      7.73871e+9 
           2074      8.01624e+9 
           2078      7.84669e+9 
           2085      8.08882e+9 
           2095      8.02131e+9 
           2105      8.08701e+9 
           2115      8.07296e+9 
           2125      8.00416e+9 
           2135      7.89646e+9 
           2145      7.72271e+9 
           2155      7.71342e+9 
           2165      7.56622e+9 
           2175      7.50405e+9 
           2185      7.37933e+9 
           2195      7.34626e+9 
           2205      7.24267e+9 
           2215      7.10893e+9 
           2225      7.03307e+9 
           2235      6.92321e+9 
           2245      6.85719e+9 
           2255      6.71827e+9 
           2265      6.67369e+9 
           2275      6.58938e+9 
           2285      6.48364e+9 
           2295      6.16855e+9 
           2305      6.28376e+9 
           2315      6.21876e+9 
           2325      6.14461e+9 
           2335      6.04718e+9 
           2345       5.9975e+9 
           2355      5.91855e+9 
           2365      5.84281e+9 
           2375      5.75591e+9 
           2385      5.64251e+9 
           2395      5.58951e+9 
           2405       5.5385e+9 
           2415      5.45423e+9 
           2425      5.39672e+9 
           2435      5.30629e+9 
           2445      5.25213e+9 
           2455      5.18999e+9 
           2465      5.12782e+9 
           2475      5.05559e+9 
           2485      4.97466e+9 
           2495      4.25106e+9 
           2505      4.81791e+9 
           2513      4.70658e+9 
           2518      4.73615e+9 
           2525      4.74851e+9 
           2535      4.69559e+9 
           2545      4.58454e+9 
           2555      4.55392e+9 
           2565      4.51064e+9 
           2575      4.46431e+9 
           2585      4.41061e+9 
           2595      4.35509e+9 
           2605      4.32044e+9 
           2615       4.2636e+9 
           2625      4.21308e+9 
           2635      4.15789e+9 
           2645      4.10621e+9 
           2655      4.05433e+9 
           2665       3.9907e+9 
           2675      3.94286e+9 
           2685      3.91846e+9 
           2695      3.84088e+9 
           2705      3.81424e+9 
           2715      3.77249e+9 
           2725      3.70985e+9 
           2735        3.666e+9 
           2745      3.64359e+9 
           2755       3.6015e+9 
           2765       3.5382e+9 
           2775      3.52419e+9 
           2785      3.47683e+9 
           2795      3.38761e+9 
           2805       3.3838e+9 
           2815      3.36337e+9 
           2825      3.30495e+9 
           2835       3.2611e+9 
           2845      3.25004e+9 
           2855      3.20563e+9 
           2865      3.17063e+9 
           2875      3.13521e+9 
           2885      3.10297e+9 
           2895      3.06624e+9 
           2910       3.0094e+9 
           2930      2.94809e+9 
           2950      2.86656e+9 
           2970      2.81818e+9 
           2990       2.7541e+9 
           3010      2.68643e+9 
           3030      2.63205e+9 
           3050      2.58083e+9 
           3070      2.53033e+9 
           3090      2.45428e+9 
           3110      2.42157e+9 
           3130      2.36699e+9 
           3150      2.31805e+9 
           3170      2.27078e+9 
           3190      2.21323e+9 
           3210      2.17553e+9 
           3230      2.13127e+9 
           3250      2.09174e+9 
           3270      2.04774e+9 
           3290      2.00555e+9 
           3310      1.96791e+9 
           3330      1.92572e+9 
           3350      1.88648e+9 
           3370      1.85059e+9 
           3390      1.81758e+9 
           3410      1.78232e+9 
           3430      1.74261e+9 
           3450      1.70341e+9 
           3470      1.67354e+9 
           3490      1.64086e+9 
           3510      1.61561e+9 
           3530      1.58717e+9 
           3550      1.55672e+9 
           3570       1.5322e+9 
           3590      1.49524e+9 
           3610      1.47077e+9 
           3630      1.44077e+9 
           3640      1.43446e+9 
           3650       1.3996e+9 
           3670      1.38017e+9 
           3690       1.3466e+9 
           3710      1.30792e+9 
           3730       1.2713e+9 
           3750      1.32654e+9 
           3770      1.31365e+9 
           3790      1.33659e+9 
           3810      1.36549e+9 
           3830      1.24227e+9 
           3850      1.35793e+9 
           3870      1.33256e+9 
           3890       1.1847e+9 
           3910       1.3046e+9 
           3930      1.27184e+9 
           3950      1.25457e+9 
           3970      1.09623e+9 
           3990      1.21421e+9 
           4010      1.19327e+9 
           4030      1.15123e+9 
           4050      1.15896e+9 
           4070      1.12401e+9 
           4090      1.07985e+9 
           4110      9.90816e+8 
           4130      1.06767e+9 
           4150      1.05436e+9 
           4170      1.04384e+9 
           4190      1.02531e+9 
           4210      1.01011e+9 
           4230      9.94287e+8 
           4250      9.73479e+8 
           4270      9.53368e+8 
           4290      9.39874e+8 
           4310      9.21437e+8 
           4330      8.79509e+8 
           4350      8.16352e+8 
           4370      8.78534e+8 
           4390      8.58486e+8 
           4410      8.51569e+8 
           4430      8.40903e+8 
           4450      8.27825e+8 
           4470      7.98091e+8 
           4490      8.01854e+8 
           4510      7.90628e+8 
           4530       7.7876e+8 
           4550      7.64177e+8 
           4570      7.52488e+8 
           4590      7.40187e+8 
           4610      7.29223e+8 
           4630      7.18192e+8 
           4650      6.96207e+8 
           4670      6.94713e+8 
           4690      6.83012e+8 
           4710      6.66593e+8 
           4730      6.66811e+8 
           4750      6.55964e+8 
           4770       6.4776e+8 
           4790      6.37978e+8 
           4810      6.27847e+8 
           4830      6.16845e+8 
           4850      5.94247e+8 
           4870      5.45948e+8 
           4890      5.90567e+8 
           4910      5.82719e+8 
           4930      5.66344e+8 
           4950      5.64529e+8 
           4970      5.58424e+8 
           4990       5.5028e+8 
           5010       5.3647e+8 
           5030      5.34267e+8 
           5050      5.24666e+8 
           5070       5.1948e+8 
           5090      5.11901e+8 
           5110      5.04684e+8 
           5130      4.97436e+8 
           5150      4.90469e+8 
           5170      4.83482e+8 
           5190      4.77036e+8 
           5210      4.70383e+8 
           5230      4.63968e+8 
           5250      4.57515e+8 
           5270      4.51146e+8 
           5290      4.45076e+8 
           5310       4.3895e+8 
           5330      4.33037e+8 
           5350       4.2712e+8 
           5370      4.21384e+8 
           5390      4.15527e+8 
           5410      4.09474e+8 
           5430      4.04623e+8 
           5450      3.99147e+8 
           5470      3.93842e+8 
           5490       3.8864e+8 
           5510      3.83541e+8 
           5530      3.78455e+8 
           5550      3.73531e+8 
           5570      3.68619e+8 
           5590      3.63744e+8 
           5610      3.59084e+8 
           5630      3.54457e+8 
           5650      3.49793e+8 
           5670      3.45115e+8 
           5690      3.39947e+8 
           5710      3.35478e+8 
           5730      3.31304e+8 
           5750      3.26656e+8 
           5770      3.23038e+8 
           5790      3.18945e+8 
           5810      3.14978e+8 
           5830      3.10981e+8 
           5850      3.07614e+8 
           5870      2.97409e+8 
           5890      2.99726e+8 
           5910      2.96341e+8 
           5930      2.92664e+8 
           5950      2.89061e+8 
           5970      2.85711e+8 
           5990      2.82095e+8 
           6010      2.78719e+8 
           6030      2.75277e+8 
           6050      2.71968e+8 
           6070      2.68716e+8 
           6090      2.65471e+8 
           6110      2.62283e+8 
           6130      2.59141e+8 
           6150      2.55944e+8 
           6170      2.52912e+8 
           6190      2.49963e+8 
           6210      2.47017e+8 
           6230      2.44094e+8 
           6250      2.41203e+8 
           6270      2.38373e+8 
           6290      2.35593e+8 
           6310      2.32806e+8 
           6330      2.30124e+8 
           6350      2.27406e+8 
           6370       2.2482e+8 
           6390      2.22206e+8 
           6410      2.19639e+8 
           6430      2.17145e+8 
           6450       2.1465e+8 
           6470      2.12101e+8 
           6490      2.09705e+8 
           6510      2.07387e+8 
           6530      2.04811e+8 
           6550      1.99971e+8 
           6570      1.82566e+8 
           6590      1.97377e+8 
           6610      1.95943e+8 
           6630      1.93786e+8 
           6650      1.91617e+8 
           6670      1.88234e+8 
           6690      1.86167e+8 
           6710       1.8536e+8 
           6730      1.83187e+8 
           6750      1.81343e+8 
           6770      1.79369e+8 
           6790      1.77284e+8 
           6810      1.75456e+8 
           6830       1.7351e+8 
           6850      1.71679e+8 
           6870      1.69819e+8 
           6890       1.6789e+8 
           6910      1.66052e+8 
           6930      1.64404e+8 
           6950      1.62656e+8 
           6970      1.60917e+8 
           6990      1.59196e+8 
           7010      1.57507e+8 
           7030      1.55834e+8 
           7050      1.54194e+8 
           7070      1.50594e+8 
           7090      1.50975e+8 
           7110      1.49374e+8 
           7130      1.47826e+8 
           7150        1.463e+8 
           7170      1.44737e+8 
           7190      1.43277e+8 
           7210      1.41795e+8 
           7230      1.39887e+8 
           7250      1.38773e+8 
           7270      1.37468e+8 
           7290      1.35141e+8 
           7310      1.34657e+8 
           7330      1.33299e+8 
           7350      1.31947e+8 
           7370      1.30614e+8 
           7390      1.29294e+8 
           7410      1.27987e+8 
           7430      1.26698e+8 
           7450      1.25442e+8 
           7470      1.24042e+8 
           7490      1.22937e+8 
           7510      1.21689e+8 
           7530      1.20505e+8 
           7550      1.19325e+8 
           7570      1.18144e+8 
           7590      1.16959e+8 
           7610      1.15779e+8 
           7630      1.14694e+8 
           7650      1.13568e+8 
           7670      1.12464e+8 
           7690      1.11364e+8 
           7710      1.10286e+8 
           7730      1.09199e+8 
           7750      1.08159e+8 
           7770      1.07098e+8 
           7790      1.06095e+8 
           7810      1.05022e+8 
           7830      1.04068e+8 
           7850      1.03147e+8 
           7870      1.02119e+8 
           7890      1.01099e+8 
           7910      1.00233e+8 
           7930      9.92672e+7 
           7950      9.83153e+7 
           7970      9.73065e+7 
           7990      9.64246e+7 
           8010      9.54622e+7 
           8030      9.45842e+7 
           8050      9.37427e+7 
           8070      9.28853e+7 
           8090       9.1897e+7 
           8110      9.09231e+7 
           8130      9.03509e+7 
           8150      8.93749e+7 
           8170      8.87008e+7 
           8190      8.77401e+7 
           8210      8.66816e+7 
           8230      8.60439e+7 
           8250       8.5345e+7 
           8270      8.41284e+7 
           8290       8.3712e+7 
           8310      8.29877e+7 
           8330      8.22205e+7 
           8350      8.11679e+7 
           8370      8.05869e+7 
           8390      7.99569e+7 
           8410      7.92096e+7 
           8430      7.84313e+7 
           8450      7.73851e+7 
           8470      7.68205e+7 
           8490      7.63911e+7 
           8510      7.51793e+7 
           8530      7.52259e+7 
           8550      7.30706e+7 
           8570      7.46792e+7 
