# Kurucz ODFNEW /NOVER (2003)
# teff = 8000 K (value for the effective temperature for the model. Temperatures are given in K)
# logg = 5 log(cm/s2) (value for Log(G) for the model.)
# meta = -1  (value for the Metallicity for the model.)
# lh = 1.25  (l/Hp where l is the  mixing length of the convective element and Hp is the pressure scale height)
# vtur = 2 km/s (Microturbulence velocity)
# alpha = 0  (Alpha)
#
# column 1: WAVELENGTH (ANGSTROM), Wavelength in Angstrom
# column 2: FLUX (ERG/CM2/S/A), Flux in erg/cm2/s/A
            318      6.3131e-23 
            328     7.97868e-22 
            338     8.05205e-21 
            348     7.06523e-20 
            357      4.4797e-19 
            366     2.86071e-19 
            375     1.38304e-18 
            385     7.26823e-18 
            395     3.49047e-17 
            405     1.54339e-16 
            414      5.5104e-16 
            422     1.62588e-15 
            430     4.59471e-15 
            441     1.79453e-14 
            451      5.8165e-14 
            460     1.59925e-13 
            470     4.68601e-13 
            480     1.30753e-12 
            490     3.48816e-12 
            500      8.9092e-12 
            506     2.02861e-11 
            512     3.88738e-11 
            520     7.69077e-11 
            530     1.76147e-10 
            540     3.83551e-10 
            550     8.20087e-10 
            560      1.69132e-9 
            570      3.39161e-9 
            580      6.54539e-9 
            590      1.26049e-8 
            600      2.34284e-8 
            610      4.25721e-8 
            620      7.56958e-8 
            630       1.3187e-7 
            640      2.25385e-7 
            650       3.7821e-7 
            658      5.64924e-7 
            665      7.95287e-7 
            675      1.27854e-6 
            685      2.02341e-6 
            695      3.15454e-6 
            705      4.84524e-6 
            716      7.65355e-6 
            726      1.14339e-5 
            735      1.62372e-5 
            745      2.37071e-5 
            755      3.42161e-5 
            765      4.88375e-5 
            775      6.89701e-5 
            785      9.64222e-5 
            795     0.000133233 
            805     0.000182922 
            815     0.000248654 
            825     0.000335003 
            835     0.000447623 
            845     0.000593302 
            855     0.000780179 
            865      0.00101842 
            875       0.0013193 
            885       0.0016985 
            895      0.00217132 
            905      0.00275648 
            915         1.37148 
            925         9.16435 
            935         14.7391 
            945         22.7457 
            955         31.3825 
            965         41.1268 
            975         40.4104 
            985         61.6683 
            995         72.6689 
           1005         92.5687 
           1015         107.578 
           1025         96.0411 
           1035         152.957 
           1045         190.506 
           1055         225.247 
           1065         263.618 
           1075         317.478 
           1085         378.257 
           1095         435.413 
           1105         810.214 
           1115         1596.49 
           1125         1960.26 
           1135         2569.33 
           1145         2981.88 
           1155         3125.61 
           1165         3706.71 
           1175         4012.26 
           1185         4142.55 
           1195         2724.91 
           1205         1974.99 
           1215          528.26 
           1225         2213.62 
           1235         4867.61 
           1245         7383.53 
           1255         10402.4 
           1265         12217.7 
           1275         15429.1 
           1285         21443.7 
           1295         25764.1 
           1305         29633.5 
           1315         35611.4 
           1325         41779.5 
           1335         47622.1 
           1345         56614.8 
           1355         61523.4 
           1365           71295 
           1375         77221.9 
           1385         80301.9 
           1395         90307.4 
           1405          100437 
           1415          119716 
           1425          127922 
           1435          131940 
           1442          159338 
           1447          151537 
           1455          170169 
           1465          168592 
           1475          183843 
           1485          200834 
           1495          219782 
           1505          241703 
           1512          249061 
           1517          247340 
           1525          258391 
           1535          300891 
           1545          314353 
           1555          308345 
           1565          277576 
           1575          317360 
           1585          335037 
           1595          356142 
           1605          368492 
           1615          433404 
           1625          584377 
           1635      1.14715e+6 
           1645      3.12546e+6 
           1655      3.22273e+6 
           1665      8.21848e+6 
           1672      7.14787e+6 
           1677       1.1058e+7 
           1685      1.44085e+7 
           1695      1.24676e+7 
           1705      1.49589e+7 
           1715      1.84316e+7 
           1725        1.903e+7 
           1735      2.21841e+7 
           1745      2.14901e+7 
           1755      2.45496e+7 
           1765      1.91266e+7 
           1775       2.3618e+7 
           1785      2.46737e+7 
           1795      2.74898e+7 
           1805      2.50064e+7 
           1815      2.55584e+7 
           1825      2.37216e+7 
           1835      2.48757e+7 
           1845      2.16474e+7 
           1855      2.37039e+7 
           1865      2.58527e+7 
           1875      2.58649e+7 
           1885      2.62803e+7 
           1895      2.71787e+7 
           1905      2.57999e+7 
           1915      2.80162e+7 
           1925      2.85941e+7 
           1935      2.51943e+7 
           1945       2.9691e+7 
           1955      2.97439e+7 
           1967      3.14551e+7 
           1976      3.04263e+7 
           1984       2.9878e+7 
           1995      2.95485e+7 
           2005      2.78928e+7 
           2015      2.87681e+7 
           2025      2.62347e+7 
           2035      2.95227e+7 
           2045      3.13426e+7 
           2055      3.05253e+7 
           2065      3.00228e+7 
           2074      3.25926e+7 
           2078      3.29043e+7 
           2085      3.24402e+7 
           2095      3.13141e+7 
           2105       3.0264e+7 
           2115      3.10548e+7 
           2125      3.16225e+7 
           2135      2.76384e+7 
           2145      3.11003e+7 
           2155      3.06168e+7 
           2165      2.87472e+7 
           2175      2.85313e+7 
           2185      3.01866e+7 
           2195      3.22502e+7 
           2205      3.10269e+7 
           2215      2.85821e+7 
           2225      2.94649e+7 
           2235      3.29493e+7 
           2245      3.00784e+7 
           2255      2.87758e+7 
           2265      2.79245e+7 
           2275      3.00627e+7 
           2285      3.11342e+7 
           2295      2.88507e+7 
           2305      2.98971e+7 
           2315      3.01237e+7 
           2325      2.97829e+7 
           2335      2.88574e+7 
           2345      2.53844e+7 
           2355      3.03576e+7 
           2365      2.66145e+7 
           2375      2.87578e+7 
           2385      2.44619e+7 
           2395        2.692e+7 
           2405      2.62498e+7 
           2415      2.62505e+7 
           2425      2.89622e+7 
           2435      2.77545e+7 
           2445      2.93373e+7 
           2455      2.88668e+7 
           2465      2.90621e+7 
           2475      2.73634e+7 
           2485      2.76439e+7 
           2495      2.67093e+7 
           2505      3.04246e+7 
           2513      2.73374e+7 
           2518      2.69425e+7 
           2525      2.53846e+7 
           2535       2.4938e+7 
           2545       2.4102e+7 
           2555      2.62255e+7 
           2565      2.66095e+7 
           2575      2.92338e+7 
           2585      2.97461e+7 
           2595      2.95033e+7 
           2605       2.8354e+7 
           2615      2.73602e+7 
           2625      2.99415e+7 
           2635      3.00853e+7 
           2645      3.35431e+7 
           2655      3.37099e+7 
           2665      3.10964e+7 
           2675      3.23585e+7 
           2685      3.31662e+7 
           2695      3.06699e+7 
           2705       3.1271e+7 
           2715      2.94229e+7 
           2725      2.96092e+7 
           2735      3.14696e+7 
           2745      2.69844e+7 
           2755      2.81663e+7 
           2765        2.976e+7 
           2775      3.12753e+7 
           2785      3.00981e+7 
           2795      2.05334e+7 
           2805      2.38759e+7 
           2815      3.27732e+7 
           2825       3.2662e+7 
           2835      3.18015e+7 
           2845      3.05935e+7 
           2855      2.82595e+7 
           2865      3.12404e+7 
           2875       3.0827e+7 
           2885       3.1485e+7 
           2895      3.08467e+7 
           2910      3.32184e+7 
           2930      3.20243e+7 
           2950      3.17189e+7 
           2970      3.20717e+7 
           2990      3.20187e+7 
           3010      3.20724e+7 
           3030      3.20751e+7 
           3050       3.2081e+7 
           3070      3.21261e+7 
           3090      3.20943e+7 
           3110      3.17264e+7 
           3130      3.17087e+7 
           3150      3.20849e+7 
           3170       3.1889e+7 
           3190       3.0609e+7 
           3210      3.09654e+7 
           3230      3.01011e+7 
           3250      3.08117e+7 
           3270      3.13041e+7 
           3290      3.14241e+7 
           3310      3.14929e+7 
           3330      3.09278e+7 
           3350       3.0519e+7 
           3370      3.03224e+7 
           3390      3.01328e+7 
           3410      3.02632e+7 
           3430      3.02782e+7 
           3450      2.99912e+7 
           3470       2.9796e+7 
           3490      2.98047e+7 
           3510      2.99883e+7 
           3530      2.97138e+7 
           3550       2.9965e+7 
           3570      2.91782e+7 
           3590      2.89823e+7 
           3610      2.89483e+7 
           3630      2.90705e+7 
           3640      2.89024e+7 
           3650      2.94173e+7 
           3670       2.9422e+7 
           3690      2.85146e+7 
           3710      2.81012e+7 
           3730      2.66152e+7 
           3750      3.02562e+7 
           3770      3.11925e+7 
           3790      3.63089e+7 
           3810      4.12749e+7 
           3830      3.35281e+7 
           3850      4.50576e+7 
           3870      4.96214e+7 
           3890      3.11524e+7 
           3910      4.99025e+7 
           3930       4.9491e+7 
           3950      5.00825e+7 
           3970      3.00339e+7 
           3990      4.88633e+7 
           4010      5.47027e+7 
           4030      5.52862e+7 
           4050       5.4521e+7 
           4070      5.16622e+7 
           4090      4.16679e+7 
           4110      3.30071e+7 
           4130      4.97568e+7 
           4150      5.23888e+7 
           4170      5.30683e+7 
           4190      5.24084e+7 
           4210      5.21688e+7 
           4230      5.11839e+7 
           4250      5.11267e+7 
           4270      5.03039e+7 
           4290      4.94818e+7 
           4310       4.6156e+7 
           4330      3.63188e+7 
           4350      3.15579e+7 
           4370      4.55522e+7 
           4390       4.7392e+7 
           4410      4.75888e+7 
           4430      4.76553e+7 
           4450      4.74866e+7 
           4470      4.71928e+7 
           4490       4.6805e+7 
           4510      4.68039e+7 
           4530      4.61051e+7 
           4550      4.55751e+7 
           4570      4.57164e+7 
           4590      4.51329e+7 
           4610      4.50506e+7 
           4630      4.44707e+7 
           4650      4.42649e+7 
           4670      4.39661e+7 
           4690      4.32494e+7 
           4710      4.21645e+7 
           4730      4.27011e+7 
           4750      4.23122e+7 
           4770      4.18224e+7 
           4790      4.11882e+7 
           4810      4.02292e+7 
           4830      3.80865e+7 
           4850       3.0598e+7 
           4870      2.53547e+7 
           4890      3.60674e+7 
           4910      3.82494e+7 
           4930      3.82931e+7 
           4950      3.85024e+7 
           4970      3.85745e+7 
           4990      3.80934e+7 
           5010      3.75062e+7 
           5030      3.76805e+7 
           5050      3.72881e+7 
           5070      3.71513e+7 
           5090      3.68032e+7 
           5110      3.65633e+7 
           5130        3.617e+7 
           5150      3.57504e+7 
           5170      3.48626e+7 
           5190      3.47385e+7 
           5210      3.47652e+7 
           5230      3.43979e+7 
           5250      3.45204e+7 
           5270      3.36634e+7 
           5290      3.38953e+7 
           5310      3.35843e+7 
           5330      3.30065e+7 
           5350      3.30748e+7 
           5370      3.26617e+7 
           5390      3.24444e+7 
           5410      3.20131e+7 
           5430      3.19042e+7 
           5450      3.16667e+7 
           5470      3.14557e+7 
           5490      3.12682e+7 
           5510      3.10416e+7 
           5530      3.07214e+7 
           5550      3.05628e+7 
           5570      3.02235e+7 
           5590      2.99268e+7 
           5610      2.97473e+7 
           5630       2.9591e+7 
           5650      2.93512e+7 
           5670      2.90777e+7 
           5690      2.88783e+7 
           5710      2.86359e+7 
           5730      2.84651e+7 
           5750      2.82093e+7 
           5770      2.79982e+7 
           5790      2.77725e+7 
           5810      2.75616e+7 
           5830      2.73517e+7 
           5850      2.71155e+7 
           5870      2.69026e+7 
           5890      2.64455e+7 
           5910      2.64857e+7 
           5930      2.62795e+7 
           5950      2.60776e+7 
           5970      2.58747e+7 
           5990      2.56644e+7 
           6010      2.54479e+7 
           6030      2.52473e+7 
           6050      2.50745e+7 
           6070       2.4888e+7 
           6090      2.46842e+7 
           6110      2.44825e+7 
           6130      2.42278e+7 
           6150      2.40455e+7 
           6170      2.38276e+7 
           6190      2.37466e+7 
           6210      2.35685e+7 
           6230      2.33563e+7 
           6250      2.31212e+7 
           6270      2.30295e+7 
           6290      2.28557e+7 
           6310      2.26504e+7 
           6330      2.24878e+7 
           6350      2.22856e+7 
           6370      2.21236e+7 
           6390      2.19577e+7 
           6410      2.17292e+7 
           6430      2.15696e+7 
           6450      2.13102e+7 
           6470      2.11337e+7 
           6490      2.08346e+7 
           6510      2.04729e+7 
           6530      1.96586e+7 
           6550       1.7131e+7 
           6570       1.4042e+7 
           6590      1.85484e+7 
           6610      1.95323e+7 
           6630      1.97514e+7 
           6650      1.97546e+7 
           6670      1.96727e+7 
           6690      1.95772e+7 
           6710      1.94506e+7 
           6730      1.93302e+7 
           6750      1.91992e+7 
           6770      1.90769e+7 
           6790      1.89369e+7 
           6810      1.87966e+7 
           6830      1.86584e+7 
           6850      1.85167e+7 
           6870      1.83899e+7 
           6890      1.82571e+7 
           6910       1.8124e+7 
           6930      1.79913e+7 
           6950      1.78606e+7 
           6970      1.77311e+7 
           6990      1.76043e+7 
           7010      1.74603e+7 
           7030       1.7342e+7 
           7050      1.72241e+7 
           7070      1.71004e+7 
           7090      1.69786e+7 
           7110      1.68034e+7 
           7130      1.67212e+7 
           7150      1.66027e+7 
           7170      1.64846e+7 
           7190      1.63602e+7 
           7210      1.62507e+7 
           7230      1.61393e+7 
           7250      1.60239e+7 
           7270      1.59166e+7 
           7290      1.57868e+7 
           7310      1.56879e+7 
           7330      1.55722e+7 
           7350      1.54736e+7 
           7370      1.53662e+7 
           7390      1.52459e+7 
           7410      1.51225e+7 
           7430      1.50248e+7 
           7450      1.49273e+7 
           7470      1.48158e+7 
           7490      1.47072e+7 
           7510      1.46196e+7 
           7530      1.45228e+7 
           7550      1.44281e+7 
           7570      1.43257e+7 
           7590      1.42274e+7 
           7610       1.4128e+7 
           7630      1.40307e+7 
           7650      1.39323e+7 
           7670       1.3822e+7 
           7690      1.37368e+7 
           7710      1.36409e+7 
           7730      1.35566e+7 
           7750      1.34566e+7 
           7770      1.32595e+7 
           7790      1.32827e+7 
           7810      1.31907e+7 
           7830      1.30914e+7 
           7850      1.29998e+7 
           7870      1.29119e+7 
           7890      1.28229e+7 
           7910      1.27413e+7 
           7930      1.26417e+7 
           7950      1.25579e+7 
           7970       1.2495e+7 
           7990      1.23989e+7 
           8010      1.23218e+7 
           8030      1.22389e+7 
           8050      1.21584e+7 
           8070      1.20791e+7 
           8090      1.19947e+7 
           8110      1.19213e+7 
           8130      1.18439e+7 
           8150      1.17643e+7 
           8170      1.16859e+7 
           8190       1.1562e+7 
           8210       1.1522e+7 
           8230      1.14382e+7 
           8250      1.13701e+7 
           8270      1.13245e+7 
           8290      1.12524e+7 
           8310       1.1176e+7 
           8330      1.10599e+7 
           8350      1.10389e+7 
           8370      1.09717e+7 
           8390      1.08884e+7 
           8410      1.08265e+7 
           8430      1.07514e+7 
           8450      1.06377e+7 
           8470      1.05776e+7 
           8490      1.05456e+7 
           8510      1.02989e+7 
           8530        1.042e+7 
           8550      9.91625e+6 
           8570      1.03378e+7 
           8590      1.00559e+7 
           8610      9.93556e+6 
           8630      1.02006e+7 
           8650       9.9763e+6 
           8670      9.14298e+6 
           8690      9.93007e+6 
           8710      1.00459e+7 
           8730      9.79874e+6 
           8750      8.66754e+6 
           8770      9.49209e+6 
           8790       9.8473e+6 
           8810      9.82303e+6 
           8830      9.66793e+6 
           8850      8.98888e+6 
           8870       8.0616e+6 
           8890      9.30191e+6 
           8910      9.55252e+6 
           8930      9.58111e+6 
           8950      9.55809e+6 
           8970      9.40221e+6 
           8990       9.0276e+6 
           9010      7.66266e+6 
           9030      8.19195e+6 
           9050      8.98741e+6 
           9070      9.09482e+6 
           9090      9.06305e+6 
           9110      9.14813e+6 
           9130      9.14245e+6 
           9150      9.06562e+6 
           9170       8.9401e+6 
           9190      8.71835e+6 
           9210      8.18221e+6 
           9230      6.77418e+6 
           9250      7.94561e+6 
           9270        8.437e+6 
           9290      8.61198e+6 
           9310      8.64283e+6 
           9330      8.62832e+6 
           9350      8.59705e+6 
