# Kurucz ODFNEW /NOVER (2003)
# teff = 8000 K (value for the effective temperature for the model. Temperatures are given in K)
# logg = 4.5 log(cm/s2) (value for Log(G) for the model.)
# meta = 0.2  (value for the Metallicity for the model.)
# lh = 1.25  (l/Hp where l is the  mixing length of the convective element and Hp is the pressure scale height)
# vtur = 2 km/s (Microturbulence velocity)
# alpha = 0  (Alpha)
#
# column 1: WAVELENGTH (ANGSTROM), Wavelength in Angstrom
# column 2: FLUX (ERG/CM2/S/A), Flux in erg/cm2/s/A
            318     1.44844e-25 
            328     1.69298e-24 
            338     1.69654e-23 
            348     1.47952e-22 
            357     9.30288e-22 
            366     5.32488e-21 
            375     2.78639e-20 
            385     1.59211e-19 
            395     8.27706e-19 
            405     3.94679e-18 
            414     1.50346e-17 
            422     4.68807e-17 
            430      1.3971e-16 
            441     5.85218e-16 
            451     2.01551e-15 
            460     5.83948e-15 
            470     1.80912e-14 
            480     5.32555e-14 
            490     1.49551e-13 
            500     4.01232e-13 
            506     9.40043e-13 
            512     1.85056e-12 
            520     3.79641e-12 
            530     9.08201e-12 
            540     2.05974e-11 
            550     4.59186e-11 
            560     9.85335e-11 
            570     2.05213e-10 
            580     4.10539e-10 
            590     8.19184e-10 
            600      1.57483e-9 
            610      2.96078e-9 
            620      5.43435e-9 
            630      9.76421e-9 
            640      1.71892e-8 
            650      2.97032e-8 
            658      4.53784e-8 
            665      6.50124e-8 
            675       1.0744e-7 
            685      1.74642e-7 
            695      2.79358e-7 
            705      4.37651e-7 
            716      7.13077e-7 
            726      1.09043e-6 
            735      1.58007e-6 
            745      2.35598e-6 
            755      3.47329e-6 
            765      5.06303e-6 
            775      7.29718e-6 
            785      1.04174e-5 
            795      1.45369e-5 
            805      2.04257e-5 
            815      2.84039e-5 
            825      3.89717e-5 
            835      5.29969e-5 
            845      7.14653e-5 
            855       9.5586e-5 
            865     0.000126831 
            875     0.000166305 
            885     0.000218243 
            895     0.000283328 
            905     0.000363406 
            915        0.153468 
            925        0.448179 
            935        0.586668 
            945        0.776935 
            955         1.04878 
            965         1.35121 
            975         1.67602 
            985         2.12566 
            995          2.6222 
           1005         3.42349 
           1015         4.26672 
           1025         5.08103 
           1035         6.49133 
           1045         8.00118 
           1055         9.80558 
           1065         11.8344 
           1075         14.5124 
           1085         17.6495 
           1095         21.0574 
           1105         54.1294 
           1115         162.134 
           1125         231.522 
           1135         322.767 
           1145         402.986 
           1155         442.974 
           1165         596.338 
           1175         706.757 
           1185         748.268 
           1195         481.482 
           1205         517.242 
           1215         153.701 
           1225         598.549 
           1235          1203.5 
           1245         2455.51 
           1255         5287.52 
           1265         4998.73 
           1275         7217.68 
           1285         9667.46 
           1295         11410.7 
           1305         10023.8 
           1315           13855 
           1325           15937 
           1335         17477.4 
           1345         20773.1 
           1355         21335.4 
           1365         23488.7 
           1375         25350.1 
           1385         26992.5 
           1395         30583.2 
           1405         33838.4 
           1415         35209.5 
           1425           38947 
           1435         39567.8 
           1442         45426.1 
           1447         47685.6 
           1455         52508.4 
           1465         53368.5 
           1475         58179.7 
           1485         63700.9 
           1495         70790.6 
           1505         77360.9 
           1512         78468.8 
           1517         84426.9 
           1525         95853.1 
           1535          142710 
           1545          214814 
           1555          231784 
           1565          214665 
           1575          301809 
           1585          355057 
           1595          410533 
           1605          420935 
           1615          460847 
           1625          476350 
           1635          709370 
           1645      1.41224e+6 
           1655          745598 
           1665      1.66865e+6 
           1672          915025 
           1677      2.72333e+6 
           1685      4.33768e+6 
           1695      2.89986e+6 
           1705      4.54197e+6 
           1715      8.23938e+6 
           1725      9.09595e+6 
           1735      1.23997e+7 
           1745      1.15453e+7 
           1755      1.52953e+7 
           1765      9.00832e+6 
           1775      1.37234e+7 
           1785      1.40832e+7 
           1795      1.91263e+7 
           1805      1.47569e+7 
           1815      1.58355e+7 
           1825       1.3899e+7 
           1835      1.30465e+7 
           1845      1.06938e+7 
           1855      1.36819e+7 
           1865      1.71683e+7 
           1875      1.59688e+7 
           1885      1.67477e+7 
           1895      1.82961e+7 
           1905      1.65131e+7 
           1915      1.83535e+7 
           1925      1.68183e+7 
           1935       1.0285e+7 
           1945       1.9387e+7 
           1955      2.01059e+7 
           1967      2.27892e+7 
           1976      2.19762e+7 
           1984      2.04441e+7 
           1995      2.05865e+7 
           2005      1.84999e+7 
           2015      1.82509e+7 
           2025      1.66039e+7 
           2035      2.02337e+7 
           2045      2.22928e+7 
           2055      2.09595e+7 
           2065      2.00538e+7 
           2074      2.40166e+7 
           2078      2.66934e+7 
           2085      2.52102e+7 
           2095      2.29744e+7 
           2105      2.10869e+7 
           2115      2.22986e+7 
           2125      2.30637e+7 
           2135      1.81818e+7 
           2145      2.25889e+7 
           2155      2.26077e+7 
           2165      2.04205e+7 
           2175      2.03503e+7 
           2185       2.2437e+7 
           2195      2.43332e+7 
           2205      2.27547e+7 
           2215       1.9271e+7 
           2225      1.91956e+7 
           2235      2.36209e+7 
           2245      2.11842e+7 
           2255      1.86097e+7 
           2265      1.85779e+7 
           2275      2.06059e+7 
           2285       2.2483e+7 
           2295      1.95552e+7 
           2305      2.10239e+7 
           2315      1.99337e+7 
           2325      1.93451e+7 
           2335      1.58017e+7 
           2345      1.20849e+7 
           2355      1.88473e+7 
           2365      1.28209e+7 
           2375      1.58763e+7 
           2385      1.06087e+7 
           2395       1.3064e+7 
           2405      1.28188e+7 
           2415      1.34602e+7 
           2425       1.8124e+7 
           2435      1.72619e+7 
           2445      1.93966e+7 
           2455      1.93896e+7 
           2465       1.9183e+7 
           2475      1.72374e+7 
           2485      1.71008e+7 
           2495      1.60761e+7 
           2505      2.13111e+7 
           2513      1.61426e+7 
           2518      1.61213e+7 
           2525      1.40514e+7 
           2535      1.27513e+7 
           2545      1.19399e+7 
           2555      1.47811e+7 
           2565      1.44812e+7 
           2575      1.78245e+7 
           2585      1.80133e+7 
           2595       1.7397e+7 
           2605      1.58208e+7 
           2615      1.45943e+7 
           2625      1.88495e+7 
           2635      2.02829e+7 
           2645      2.53871e+7 
           2655      2.69615e+7 
           2665       2.1042e+7 
           2675      2.38122e+7 
           2685      2.37741e+7 
           2695       2.1183e+7 
           2705      2.31227e+7 
           2715      2.02976e+7 
           2725      2.07678e+7 
           2735      2.30166e+7 
           2745      1.56086e+7 
           2755      1.75097e+7 
           2765      1.93321e+7 
           2775      2.25721e+7 
           2785      1.87971e+7 
           2795      8.04092e+6 
           2805      1.06215e+7 
           2815      2.32107e+7 
           2825      2.65503e+7 
           2835      2.48788e+7 
           2845      2.33475e+7 
           2855      2.00515e+7 
           2865      2.50228e+7 
           2875      2.45733e+7 
           2885      2.45268e+7 
           2895      2.32155e+7 
           2910      2.80084e+7 
           2930      2.60142e+7 
           2950      2.58063e+7 
           2970      2.74502e+7 
           2990      2.74478e+7 
           3010      2.82249e+7 
           3030      2.78449e+7 
           3050      2.78466e+7 
           3070      2.83619e+7 
           3090      2.88849e+7 
           3110      2.79148e+7 
           3130      2.76849e+7 
           3150      2.86052e+7 
           3170       2.8422e+7 
           3190      2.62431e+7 
           3210      2.73649e+7 
           3230      2.55798e+7 
           3250       2.7152e+7 
           3270      2.81921e+7 
           3290      2.81539e+7 
           3310      2.88129e+7 
           3330       2.8125e+7 
           3350      2.77257e+7 
           3370      2.71306e+7 
           3390      2.74316e+7 
           3410      2.73953e+7 
           3430      2.75068e+7 
           3450      2.74711e+7 
           3470      2.71081e+7 
           3490      2.71729e+7 
           3510      2.77288e+7 
           3530       2.7317e+7 
           3550      2.84329e+7 
           3570      2.66731e+7 
           3590      2.63972e+7 
           3610      2.65628e+7 
           3630      2.67598e+7 
           3640      2.63889e+7 
           3650      2.80124e+7 
           3670       2.7659e+7 
           3690      2.67051e+7 
           3710      2.67478e+7 
           3730      2.58868e+7 
           3750      3.02964e+7 
           3770      3.22474e+7 
           3790       3.8546e+7 
           3810      4.43425e+7 
           3830      3.52771e+7 
           3850      4.87353e+7 
           3870      5.43176e+7 
           3890      3.34429e+7 
           3910      5.38871e+7 
           3930      4.45883e+7 
           3950      5.29969e+7 
           3970      3.03757e+7 
           3990      5.38634e+7 
           4010      6.09979e+7 
           4030      6.12499e+7 
           4050       6.0279e+7 
           4070      5.74411e+7 
           4090      4.65887e+7 
           4110       3.6513e+7 
           4130      5.53557e+7 
           4150      5.93602e+7 
           4170      5.94248e+7 
           4190       5.8876e+7 
           4210      5.89343e+7 
           4230      5.69466e+7 
           4250       5.7705e+7 
           4270      5.50541e+7 
           4290      5.54099e+7 
           4310      5.03114e+7 
           4330      4.02953e+7 
           4350      3.46657e+7 
           4370      5.17091e+7 
           4390      5.34166e+7 
           4410      5.29623e+7 
           4430      5.20475e+7 
           4450      5.31083e+7 
           4470      5.30659e+7 
           4490      5.23663e+7 
           4510      5.41199e+7 
           4530       5.1686e+7 
           4550      5.11635e+7 
           4570      5.27442e+7 
           4590      5.06208e+7 
           4610      5.14375e+7 
           4630      5.00153e+7 
           4650      5.02898e+7 
           4670      5.03316e+7 
           4690      4.81511e+7 
           4710      4.60941e+7 
           4730      4.85829e+7 
           4750         4.84e+7 
           4770      4.75744e+7 
           4790      4.69481e+7 
           4810       4.5676e+7 
           4830      4.33203e+7 
           4850       3.3846e+7 
           4870      2.73466e+7 
           4890      4.04472e+7 
           4910      4.29484e+7 
           4930      4.26998e+7 
           4950      4.36746e+7 
           4970       4.3943e+7 
           4990      4.21542e+7 
           5010      4.07406e+7 
           5030      4.19361e+7 
           5050      4.11171e+7 
           5070      4.18969e+7 
           5090       4.1183e+7 
           5110       4.1209e+7 
           5130      4.03142e+7 
           5150      3.93384e+7 
           5170      3.85117e+7 
           5190      3.80826e+7 
           5210      3.83667e+7 
           5230       3.8078e+7 
           5250      3.86154e+7 
           5270      3.59015e+7 
           5290      3.76742e+7 
           5310       3.7292e+7 
           5330      3.55659e+7 
           5350       3.6722e+7 
           5370      3.63327e+7 
           5390      3.59793e+7 
           5410      3.50187e+7 
           5430      3.53834e+7 
           5450      3.54781e+7 
           5470      3.49963e+7 
           5490      3.47192e+7 
           5510      3.45582e+7 
           5530      3.41609e+7 
           5550      3.41292e+7 
           5570      3.35324e+7 
           5590      3.31241e+7 
           5610       3.3111e+7 
           5630      3.30794e+7 
           5650      3.27111e+7 
           5670      3.21291e+7 
           5690      3.21294e+7 
           5710      3.18077e+7 
           5730      3.20966e+7 
           5750      3.14544e+7 
           5770       3.1342e+7 
           5790      3.09752e+7 
           5810      3.08315e+7 
           5830      3.06747e+7 
           5850      3.02583e+7 
           5870      3.00372e+7 
           5890      2.92895e+7 
           5910      2.95425e+7 
           5930      2.92953e+7 
           5950      2.90636e+7 
           5970      2.88597e+7 
           5990      2.84993e+7 
           6010      2.80596e+7 
           6030      2.79484e+7 
           6050      2.78431e+7 
           6070       2.7752e+7 
           6090      2.73933e+7 
           6110      2.70507e+7 
           6130      2.65066e+7 
           6150      2.60825e+7 
           6170      2.59413e+7 
           6190      2.63098e+7 
           6210      2.61182e+7 
           6230      2.57091e+7 
           6250      2.50105e+7 
           6270      2.55143e+7 
           6290      2.53285e+7 
           6310      2.48333e+7 
           6330      2.47274e+7 
           6350      2.43355e+7 
           6370      2.41996e+7 
           6390       2.4172e+7 
           6410      2.37216e+7 
           6430      2.36827e+7 
           6450      2.31928e+7 
           6470      2.31667e+7 
           6490      2.26967e+7 
           6510      2.24641e+7 
           6530      2.15793e+7 
           6550      1.85702e+7 
           6570      1.49409e+7 
           6590      2.02374e+7 
           6610      2.14663e+7 
           6630      2.16986e+7 
           6650      2.16697e+7 
           6670      2.14942e+7 
           6690      2.14736e+7 
           6710      2.12931e+7 
           6730      2.11592e+7 
           6750      2.08405e+7 
           6770      2.08902e+7 
           6790      2.07085e+7 
           6810      2.05407e+7 
           6830      2.03487e+7 
           6850      2.01618e+7 
           6870      2.00853e+7 
           6890      1.99395e+7 
           6910      1.97706e+7 
           6930      1.96025e+7 
           6950      1.94688e+7 
           6970      1.92991e+7 
           6990      1.91903e+7 
           7010      1.88157e+7 
           7030      1.88094e+7 
           7050      1.87196e+7 
           7070      1.85882e+7 
           7090       1.8449e+7 
           7110       1.7934e+7 
           7130      1.80358e+7 
           7150      1.79314e+7 
           7170      1.77758e+7 
           7190      1.75939e+7 
           7210      1.75443e+7 
           7230      1.74048e+7 
           7250      1.72308e+7 
           7270      1.72138e+7 
           7290       1.6943e+7 
           7310      1.69054e+7 
           7330      1.67796e+7 
           7350      1.67212e+7 
           7370      1.66049e+7 
           7390      1.63682e+7 
           7410      1.61538e+7 
           7430      1.60246e+7 
           7450      1.59753e+7 
           7470      1.57988e+7 
           7490      1.57367e+7 
           7510      1.56964e+7 
           7530      1.56051e+7 
           7550      1.55556e+7 
           7570      1.54051e+7 
           7590       1.5311e+7 
           7610      1.51831e+7 
           7630      1.50933e+7 
           7650      1.49501e+7 
           7670      1.47269e+7 
           7690      1.46765e+7 
           7710      1.45954e+7 
           7730      1.45439e+7 
           7750      1.43855e+7 
           7770      1.40289e+7 
           7790      1.42723e+7 
           7810      1.41375e+7 
           7830      1.39579e+7 
           7850      1.38214e+7 
           7870      1.37567e+7 
           7890       1.3632e+7 
           7910      1.35204e+7 
           7930      1.33648e+7 
           7950      1.32851e+7 
           7970       1.3371e+7 
           7990      1.31507e+7 
           8010      1.31356e+7 
           8030      1.30118e+7 
           8050       1.2949e+7 
           8070      1.28646e+7 
           8090      1.27539e+7 
           8110      1.27232e+7 
           8130      1.26584e+7 
           8150      1.25628e+7 
           8170       1.2476e+7 
           8190      1.21686e+7 
           8210      1.21222e+7 
           8230      1.20434e+7 
           8250      1.19983e+7 
           8270      1.20797e+7 
           8290      1.19804e+7 
           8310       1.1853e+7 
           8330      1.16723e+7 
           8350      1.17197e+7 
           8370      1.16885e+7 
           8390      1.15547e+7 
           8410      1.15216e+7 
           8430      1.13955e+7 
           8450      1.11495e+7 
           8470      1.11747e+7 
           8490      1.11372e+7 
           8510      1.06672e+7 
           8530      1.10061e+7 
           8550      9.84823e+6 
           8570       1.1018e+7 
           8590      1.05215e+7 
           8610      1.03497e+7 
           8630      1.08795e+7 
           8650      1.05397e+7 
           8670      8.99764e+6 
           8690       1.0389e+7 
           8710      1.07764e+7 
           8730      1.04072e+7 
           8750      8.76054e+6 
           8770      1.00368e+7 
           8790      1.06182e+7 
           8810      1.06234e+7 
           8830      1.02854e+7 
           8850      9.38667e+6 
           8870      8.21195e+6 
           8890      9.91635e+6 
           8910      1.03094e+7 
           8930       1.0336e+7 
           8950      1.04014e+7 
           8970      1.01691e+7 
           8990      9.69324e+6 
           9010      7.91604e+6 
           9030      8.60591e+6 
           9050      9.69255e+6 
           9070      9.72541e+6 
           9090      9.62111e+6 
           9110       9.8658e+6 
           9130      9.92522e+6 
           9150      9.88323e+6 
           9170      9.70352e+6 
           9190      9.40395e+6 
           9210      8.68452e+6 
           9230      6.96344e+6 
           9250      8.34848e+6 
           9270      8.93546e+6 
           9290      9.34445e+6 
           9310      9.40432e+6 
           9330      9.36967e+6 
           9350       9.3529e+6 
