# Kurucz ODFNEW /NOVER (2003)
# teff = 7500 K (value for the effective temperature for the model. Temperatures are given in K)
# logg = 3 log(cm/s2) (value for Log(G) for the model.)
# meta = -1.5  (value for the Metallicity for the model.)
# lh = 1.25  (l/Hp where l is the  mixing length of the convective element and Hp is the pressure scale height)
# vtur = 2 km/s (Microturbulence velocity)
# alpha = 0.4  (Alpha)
#
# column 1: WAVELENGTH (ANGSTROM), Wavelength in Angstrom
# column 2: FLUX (ERG/CM2/S/A), Flux in erg/cm2/s/A
            348     1.71336e-23 
            357     1.75263e-22 
            366     1.24176e-21 
            375     5.24381e-22 
            385     3.35161e-21 
            395     1.93803e-20 
            405     1.02248e-19 
            414     4.24831e-19 
            422      1.4266e-18 
            430     4.56619e-18 
            441     2.10098e-17 
            451     7.84886e-17 
            460     2.43931e-16 
            470     8.14547e-16 
            480     2.57595e-15 
            490     7.74892e-15 
            500      2.2209e-14 
            506     5.42591e-14 
            512     1.10797e-13 
            520     2.38605e-13 
            530     6.05262e-13 
            540     1.45485e-12 
            550     3.42033e-12 
            560     7.73148e-12 
            570     1.69372e-11 
            580     3.56079e-11 
            590     7.44595e-11 
            600     1.49886e-10 
            610     2.94195e-10 
            620     5.63644e-10 
            630      1.05549e-9 
            640      1.93497e-9 
            650      3.47492e-9 
            658      5.47199e-9 
            665      8.05944e-9 
            675      1.37983e-8 
            685      2.32111e-8 
            695      3.83979e-8 
            705      6.24832e-8 
            716      1.04945e-7 
            726      1.65537e-7 
            735      2.46557e-7 
            745       3.7902e-7 
            755      5.75194e-7 
            765      8.62089e-7 
            775      1.27691e-6 
            785      1.86988e-6 
            795       2.7043e-6 
            805      3.87923e-6 
            815      5.50468e-6 
            825      7.73413e-6 
            835      1.07666e-5 
            845      1.48529e-5 
            855      2.03113e-5 
            865      2.75433e-5 
            875      3.70384e-5 
            885      4.94514e-5 
            895      6.55141e-5 
            905      8.61346e-5 
            915        0.200054 
            925         1.15763 
            935         1.72049 
            945         2.53106 
            955         3.57743 
            965         4.55041 
            975          4.3771 
            985          7.3088 
            995         8.72088 
           1005         11.1681 
           1015         12.2089 
           1025         11.6025 
           1035         18.5357 
           1045         25.1478 
           1055         30.8705 
           1065         36.7255 
           1075         45.0429 
           1085         54.4185 
           1095         63.4174 
           1105         149.843 
           1115         336.116 
           1125         417.621 
           1135         531.014 
           1145         597.008 
           1155         584.259 
           1165         645.941 
           1175         616.083 
           1185         839.806 
           1195          256.82 
           1205          157.86 
           1215         43.2867 
           1225         180.416 
           1235         468.854 
           1245         720.903 
           1255         1289.92 
           1265         1863.44 
           1275         2698.89 
           1285         3837.28 
           1295         5004.56 
           1305         5578.08 
           1315         7602.23 
           1325         9610.58 
           1335         11856.8 
           1345         15343.9 
           1355         17995.6 
           1365         22437.3 
           1375         25509.5 
           1385           27128 
           1395         31843.5 
           1405         42174.5 
           1415         62463.8 
           1425         73489.7 
           1435         78156.9 
           1442          107701 
           1447           99765 
           1455          128240 
           1465          122789 
           1475          138408 
           1485          162690 
           1495          188835 
           1505          221744 
           1512          225167 
           1517          136269 
           1525          139362 
           1535          248640 
           1545          347875 
           1555          312099 
           1565          227324 
           1575          259923 
           1585          256099 
           1595          248529 
           1605          261924 
           1615          425893 
           1625          803856 
           1635      1.50369e+6 
           1645      2.94615e+6 
           1655      2.50614e+6 
           1665      4.83417e+6 
           1672       3.6649e+6 
           1677      6.16601e+6 
           1685      6.93716e+6 
           1695      6.80074e+6 
           1705      7.41426e+6 
           1715      8.71868e+6 
           1725      8.84767e+6 
           1735       1.0021e+7 
           1745       9.7402e+6 
           1755      1.09662e+7 
           1765      9.08233e+6 
           1775      1.06408e+7 
           1785      1.09018e+7 
           1795       1.2146e+7 
           1805      1.09608e+7 
           1815       1.1507e+7 
           1825      1.04652e+7 
           1835      1.11674e+7 
           1845       1.0074e+7 
           1855      1.08489e+7 
           1865      1.13596e+7 
           1875      1.14992e+7 
           1885      1.17454e+7 
           1895      1.20561e+7 
           1905       1.1308e+7 
           1915      1.23408e+7 
           1925      1.27548e+7 
           1935      1.17137e+7 
           1945      1.32228e+7 
           1955      1.31726e+7 
           1967      1.37612e+7 
           1976      1.32598e+7 
           1984      1.32134e+7 
           1995      1.30529e+7 
           2005      1.26129e+7 
           2015      1.27042e+7 
           2025      1.18642e+7 
           2035      1.31089e+7 
           2045      1.37602e+7 
           2055      1.32439e+7 
           2065      1.31689e+7 
           2074      1.42583e+7 
           2078      1.44966e+7 
           2085      1.42434e+7 
           2095      1.38357e+7 
           2105      1.34707e+7 
           2115      1.36805e+7 
           2125      1.38933e+7 
           2135      1.19385e+7 
           2145      1.35617e+7 
           2155      1.34475e+7 
           2165      1.27778e+7 
           2175       1.2788e+7 
           2185      1.33222e+7 
           2195      1.42192e+7 
           2205      1.37433e+7 
           2215      1.26374e+7 
           2225      1.29388e+7 
           2235      1.44833e+7 
           2245      1.31802e+7 
           2255      1.27124e+7 
           2265      1.24653e+7 
           2275      1.35315e+7 
           2285      1.39054e+7 
           2295      1.29226e+7 
           2305      1.33645e+7 
           2315      1.34363e+7 
           2325      1.33405e+7 
           2335       1.2796e+7 
           2345      1.13614e+7 
           2355      1.34735e+7 
           2365      1.18935e+7 
           2375      1.29971e+7 
           2385      1.09206e+7 
           2395      1.21169e+7 
           2405      1.17942e+7 
           2415      1.20152e+7 
           2425      1.32386e+7 
           2435      1.28048e+7 
           2445      1.34306e+7 
           2455      1.31627e+7 
           2465      1.31863e+7 
           2475      1.25025e+7 
           2485      1.29505e+7 
           2495      1.26381e+7 
           2505      1.41091e+7 
           2513      1.27023e+7 
           2518      1.27101e+7 
           2525      1.18787e+7 
           2535      1.14621e+7 
           2545      1.15694e+7 
           2555      1.26511e+7 
           2565      1.27244e+7 
           2575      1.36928e+7 
           2585      1.38554e+7 
           2595      1.37293e+7 
           2605      1.31672e+7 
           2615      1.28826e+7 
           2625      1.39612e+7 
           2635       1.4085e+7 
           2645      1.57121e+7 
           2655      1.57425e+7 
           2665       1.4639e+7 
           2675      1.51495e+7 
           2685       1.5445e+7 
           2695      1.45286e+7 
           2705      1.47947e+7 
           2715      1.40568e+7 
           2725      1.41791e+7 
           2735      1.50647e+7 
           2745      1.29522e+7 
           2755      1.34873e+7 
           2765      1.40743e+7 
           2775      1.49491e+7 
           2785      1.43722e+7 
           2795      8.78502e+6 
           2805      1.03658e+7 
           2815      1.54434e+7 
           2825      1.55665e+7 
           2835      1.52628e+7 
           2845      1.48401e+7 
           2855      1.39881e+7 
           2865      1.50793e+7 
           2875       1.4883e+7 
           2885      1.52575e+7 
           2895      1.49725e+7 
           2910      1.61385e+7 
           2930       1.5692e+7 
           2950      1.56203e+7 
           2970        1.588e+7 
           2990      1.59678e+7 
           3010      1.60994e+7 
           3030      1.61444e+7 
           3050      1.61164e+7 
           3070      1.60307e+7 
           3090      1.62555e+7 
           3110      1.60451e+7 
           3130      1.60934e+7 
           3150      1.63278e+7 
           3170       1.6356e+7 
           3190      1.57717e+7 
           3210      1.60682e+7 
           3230      1.57038e+7 
           3250      1.60807e+7 
           3270      1.62457e+7 
           3290      1.64925e+7 
           3310      1.65875e+7 
           3330      1.62788e+7 
           3350      1.60914e+7 
           3370      1.61481e+7 
           3390      1.61456e+7 
           3410      1.64129e+7 
           3430      1.65208e+7 
           3450       1.6384e+7 
           3470      1.62792e+7 
           3490      1.63093e+7 
           3510      1.64968e+7 
           3530      1.65368e+7 
           3550      1.66738e+7 
           3570      1.63306e+7 
           3590       1.6307e+7 
           3610      1.63716e+7 
           3630      1.64413e+7 
           3640      1.63315e+7 
           3650       1.6623e+7 
           3670       1.6477e+7 
           3690      1.60574e+7 
           3710      1.86176e+7 
           3730      2.09094e+7 
           3750      2.75103e+7 
           3770       2.9223e+7 
           3790       3.4966e+7 
           3810      3.99876e+7 
           3830      3.21336e+7 
           3850      4.33852e+7 
           3870      4.74078e+7 
           3890      2.95591e+7 
           3910      4.70835e+7 
           3930      4.44956e+7 
           3950      4.72357e+7 
           3970      2.79208e+7 
           3990      4.59976e+7 
           4010      4.96797e+7 
           4030      4.95868e+7 
           4050      4.90409e+7 
           4070      4.72342e+7 
           4090      3.93663e+7 
           4110      3.09308e+7 
           4130      4.56177e+7 
           4150      4.69575e+7 
           4170      4.66316e+7 
           4190      4.62411e+7 
           4210      4.58645e+7 
           4230      4.50802e+7 
           4250      4.48968e+7 
           4270      4.43139e+7 
           4290      4.35619e+7 
           4310      4.12177e+7 
           4330      3.37569e+7 
           4350      2.91628e+7 
           4370      4.11195e+7 
           4390      4.15823e+7 
           4410      4.13068e+7 
           4430      4.14491e+7 
           4450      4.09974e+7 
           4470      4.07615e+7 
           4490      4.03693e+7 
           4510      4.01861e+7 
           4530       3.9553e+7 
           4550      3.89495e+7 
           4570      3.90783e+7 
           4590      3.86312e+7 
           4610      3.87275e+7 
           4630      3.81142e+7 
           4650      3.79909e+7 
           4670      3.76818e+7 
           4690      3.71881e+7 
           4710      3.63499e+7 
           4730      3.66325e+7 
           4750      3.63146e+7 
           4770      3.58998e+7 
           4790      3.54726e+7 
           4810      3.49258e+7 
           4830        3.377e+7 
           4850      2.80275e+7 
           4870      2.30515e+7 
           4890       3.2261e+7 
           4910      3.32848e+7 
           4930       3.2958e+7 
           4950      3.30135e+7 
           4970      3.29253e+7 
           4990      3.25363e+7 
           5010      3.19513e+7 
           5030      3.20238e+7 
           5050      3.16924e+7 
           5070      3.15235e+7 
           5090      3.12413e+7 
           5110      3.09944e+7 
           5130      3.06501e+7 
           5150      3.03344e+7 
           5170      2.95843e+7 
           5190      2.94057e+7 
           5210      2.94801e+7 
           5230      2.90829e+7 
           5250      2.91665e+7 
           5270      2.84654e+7 
           5290      2.86396e+7 
           5310      2.83174e+7 
           5330      2.78958e+7 
           5350       2.7935e+7 
           5370      2.76163e+7 
           5390      2.73988e+7 
           5410      2.70859e+7 
           5430      2.69161e+7 
           5450      2.67316e+7 
           5470      2.65465e+7 
           5490      2.63347e+7 
           5510      2.61302e+7 
           5530      2.58529e+7 
           5550       2.5728e+7 
           5570      2.54732e+7 
           5590      2.51996e+7 
           5610      2.50418e+7 
           5630      2.48892e+7 
           5650       2.4672e+7 
           5670      2.44502e+7 
           5690      2.42763e+7 
           5710      2.40684e+7 
           5730      2.39052e+7 
           5750      2.36914e+7 
           5770      2.35104e+7 
           5790      2.33157e+7 
           5810      2.31343e+7 
           5830      2.29492e+7 
           5850      2.27507e+7 
           5870      2.25741e+7 
           5890      2.22126e+7 
           5910      2.22167e+7 
           5930      2.20403e+7 
           5950      2.18615e+7 
           5970       2.1692e+7 
           5990      2.15128e+7 
           6010      2.13386e+7 
           6030      2.11693e+7 
           6050      2.10079e+7 
           6070      2.08523e+7 
           6090      2.06841e+7 
           6110      2.05136e+7 
           6130      2.03148e+7 
           6150      2.01311e+7 
           6170      1.99642e+7 
           6190      1.98904e+7 
           6210      1.97381e+7 
           6230      1.95698e+7 
           6250      1.93667e+7 
           6270      1.92855e+7 
           6290      1.91392e+7 
           6310      1.89755e+7 
           6330       1.8837e+7 
           6350       1.8655e+7 
           6370      1.85297e+7 
           6390      1.84111e+7 
           6410      1.82469e+7 
           6430      1.81244e+7 
           6450      1.79072e+7 
           6470      1.77858e+7 
           6490      1.75941e+7 
           6510      1.74177e+7 
           6530       1.7017e+7 
           6550      1.53098e+7 
           6570      1.24457e+7 
           6590        1.628e+7 
           6610      1.67119e+7 
           6630        1.672e+7 
           6650      1.66409e+7 
           6670      1.65497e+7 
           6690      1.64434e+7 
           6710      1.63221e+7 
           6730      1.62019e+7 
           6750      1.60688e+7 
           6770      1.59691e+7 
           6790      1.58498e+7 
           6810      1.57333e+7 
           6830      1.56155e+7 
           6850      1.55019e+7 
           6870      1.53918e+7 
           6890      1.52804e+7 
           6910      1.51692e+7 
           6930      1.50582e+7 
           6950      1.49498e+7 
           6970      1.48409e+7 
           6990      1.47353e+7 
           7010      1.46145e+7 
           7030      1.45193e+7 
           7050      1.44188e+7 
           7070      1.43163e+7 
           7090      1.42146e+7 
           7110      1.40834e+7 
           7130      1.40059e+7 
           7150      1.39019e+7 
           7170      1.38054e+7 
           7190      1.37054e+7 
           7210      1.36092e+7 
           7230      1.35152e+7 
           7250      1.34186e+7 
           7270      1.33299e+7 
           7290      1.32263e+7 
           7310        1.314e+7 
           7330      1.30438e+7 
           7350      1.29604e+7 
           7370      1.28721e+7 
           7390      1.27777e+7 
           7410      1.26752e+7 
           7430       1.2592e+7 
           7450      1.25082e+7 
           7470       1.2417e+7 
           7490      1.23327e+7 
           7510      1.22537e+7 
           7530      1.21721e+7 
           7550      1.20918e+7 
           7570      1.20057e+7 
           7590      1.19255e+7 
           7610      1.18434e+7 
           7630      1.17632e+7 
           7650      1.16793e+7 
           7670      1.15941e+7 
           7690      1.15173e+7 
           7710      1.14393e+7 
           7730      1.13675e+7 
           7750      1.12876e+7 
           7770      1.10935e+7 
           7790      1.11403e+7 
           7810      1.10636e+7 
           7830      1.09869e+7 
           7850      1.09102e+7 
           7870      1.08323e+7 
           7890       1.0755e+7 
           7910      1.06935e+7 
           7930      1.06115e+7 
           7950      1.05432e+7 
           7970      1.04862e+7 
           7990      1.04019e+7 
           8010       1.0346e+7 
           8030      1.02758e+7 
           8050      1.02085e+7 
           8070      1.01424e+7 
           8090       1.0075e+7 
           8110      1.00105e+7 
           8130       9.9459e+6 
           8150      9.88069e+6 
           8170      9.81544e+6 
           8190      9.72432e+6 
           8210       9.6865e+6 
           8230      9.62224e+6 
           8250      9.55239e+6 
           8270      9.52552e+6 
           8290      9.46591e+6 
           8310      9.40022e+6 
           8330      9.30627e+6 
           8350      9.27363e+6 
           8370      9.18581e+6 
           8390      9.10995e+6 
           8410      9.02939e+6 
           8430      9.00674e+6 
           8450      8.91298e+6 
           8470      8.68084e+6 
           8490      8.98337e+6 
           8510      8.37626e+6 
           8530      8.98009e+6 
           8550      7.93475e+6 
           8570      9.02726e+6 
           8590      8.46808e+6 
           8610      8.21484e+6 
           8630      9.05544e+6 
           8650      8.79157e+6 
           8670      7.38735e+6 
           8690      8.87345e+6 
           8710      9.06465e+6 
           8730      8.81556e+6 
           8750      7.25978e+6 
           8770      8.49581e+6 
           8790      8.92381e+6 
           8810      8.90518e+6 
           8830       8.7842e+6 
           8850       8.1481e+6 
           8870      7.03882e+6 
           8890      8.45867e+6 
           8910      8.64092e+6 
           8930      8.63911e+6 
           8950      8.63158e+6 
           8970      8.52525e+6 
           8990      8.25848e+6 
           9010      6.89927e+6 
           9030      7.50771e+6 
           9050      8.19994e+6 
           9070      8.22884e+6 
           9090      8.16213e+6 
           9110      8.21167e+6 
           9130      8.19968e+6 
           9150      8.14318e+6 
           9170      8.06558e+6 
           9190      7.93372e+6 
           9210      7.53334e+6 
           9230      6.18383e+6 
           9250      7.32347e+6 
           9270      7.66322e+6 
           9290      7.77169e+6 
           9310      7.75616e+6 
           9330      7.71991e+6 
           9350      7.68865e+6 
           9370      7.64728e+6 
           9390      7.59722e+6 
