# Kurucz ODFNEW /NOVER (2003)
# teff = 35000 K (value for the effective temperature for the model. Temperatures are given in K)
# logg = 5 log(cm/s2) (value for Log(G) for the model.)
# meta = -0.5  (value for the Metallicity for the model.)
# lh = 1.25  (l/Hp where l is the  mixing length of the convective element and Hp is the pressure scale height)
# vtur = 2 km/s (Microturbulence velocity)
# alpha = 0  (Alpha)
#
# column 1: WAVELENGTH (ANGSTROM), Wavelength in Angstrom
# column 2: FLUX (ERG/CM2/S/A), Flux in erg/cm2/s/A
          147.2     0.000333996 
            151     0.000803621 
          155.2      0.00201995 
          158.8      0.00429085 
            162      0.00816505 
            166       0.0176607 
          170.3        0.038877 
          173.4        0.067154 
          176.8        0.119821 
          180.2        0.209155 
          181.7        0.266068 
          186.1        0.526448 
            191         1.08709 
          193.9          1.6419 
          198.4         3.04628 
          201.8         4.77248 
            205          7.1882 
          210.5         14.1475 
          216.2         27.5198 
          219.8         41.2989 
            223         58.5439 
          226.8         87.2938 
            230           48210 
            234          161284 
            240          258204 
          246.5          407077 
          252.4          619980 
          256.8          735278 
            260      1.22431e+6 
            264      1.92651e+6 
          268.5      2.69769e+6 
          273.5      3.41887e+6 
          278.5      3.94719e+6 
            284      6.99128e+6 
            290      9.23368e+6 
            296      1.11007e+7 
            301      1.52698e+7 
            308      3.09103e+7 
            318      6.40288e+7 
            328      8.12295e+7 
            338      1.23043e+8 
            348      1.67354e+8 
            357      2.45158e+8 
            366      3.62117e+8 
            375      4.05193e+8 
            385      4.98841e+8 
            395       6.3884e+8 
            405      7.39609e+8 
            414      8.59244e+8 
            422      9.26381e+8 
            430      1.01721e+9 
            441      1.20104e+9 
            451      1.34709e+9 
            460      1.43633e+9 
            470      1.62398e+9 
            480      1.82822e+9 
            490      1.96398e+9 
            500      2.25043e+9 
            506      4.70551e+9 
            512     2.08711e+10 
            520     1.95192e+10 
            530     1.83201e+10 
            540     1.64037e+10 
            550     1.83757e+10 
            560     2.11994e+10 
            570     2.16889e+10 
            580     2.00672e+10 
            590     2.09371e+10 
            600     1.89568e+10 
            610     2.04209e+10 
            620     2.25989e+10 
            630     2.20827e+10 
            640      2.1902e+10 
            650     2.20072e+10 
            658     2.04251e+10 
            665     2.16748e+10 
            675     2.24198e+10 
            685     1.98993e+10 
            695     2.25207e+10 
            705     2.06145e+10 
            716     2.30907e+10 
            726      2.2672e+10 
            735     2.28573e+10 
            745     2.23312e+10 
            755     2.21382e+10 
            765     2.20897e+10 
            775     2.22008e+10 
            785     2.25973e+10 
            795     2.24014e+10 
            805     2.19611e+10 
            815     2.19484e+10 
            825     2.23301e+10 
            835      2.0218e+10 
            845     2.17556e+10 
            855     2.15769e+10 
            865      2.1877e+10 
            875     2.18241e+10 
            885     2.18214e+10 
            895     2.18162e+10 
            905     2.13312e+10 
            915     2.05359e+10 
            925     4.56368e+10 
            935     7.08793e+10 
            945     1.07283e+11 
            955     1.20922e+11 
            965     1.48115e+11 
            975     7.67349e+10 
            985     1.36562e+11 
            995     1.22133e+11 
           1005     1.27384e+11 
           1015     1.26798e+11 
           1025     8.32758e+10 
           1035     1.20676e+11 
           1045     1.31959e+11 
           1055      1.2773e+11 
           1065     1.15325e+11 
           1075     1.16733e+11 
           1085     1.05653e+11 
           1095     1.13252e+11 
           1105     1.07966e+11 
           1115      1.0592e+11 
           1125     9.43204e+10 
           1135     1.01287e+11 
           1145     9.64794e+10 
           1155     9.33249e+10 
           1165     9.02752e+10 
           1175     7.02364e+10 
           1185      8.2996e+10 
           1195     8.08846e+10 
           1205     7.64498e+10 
           1215     5.18894e+10 
           1225     7.28116e+10 
           1235     7.65796e+10 
           1245     7.42631e+10 
           1255     7.35699e+10 
           1265     7.37226e+10 
           1275     7.31756e+10 
           1285     7.22236e+10 
           1295     6.77743e+10 
           1305     6.73657e+10 
           1315     6.82447e+10 
           1325     6.56628e+10 
           1335     6.38288e+10 
           1345     6.33101e+10 
           1355     6.17553e+10 
           1365     5.97174e+10 
           1375     5.84276e+10 
           1385     5.67915e+10 
           1395     5.08055e+10 
           1405     5.03864e+10 
           1415     5.31577e+10 
           1425     4.91286e+10 
           1435     5.05392e+10 
           1442     5.02055e+10 
           1447     4.95694e+10 
           1455     4.79154e+10 
           1465     4.70933e+10 
           1475     4.61348e+10 
           1485     4.59273e+10 
           1495     4.44772e+10 
           1505     4.35305e+10 
           1512     4.28779e+10 
           1517     4.24909e+10 
           1525     4.13999e+10 
           1535     3.77669e+10 
           1545     3.44766e+10 
           1555     3.41343e+10 
           1565     3.54807e+10 
           1575     3.60749e+10 
           1585     3.60395e+10 
           1595     3.55105e+10 
           1605     3.35119e+10 
           1615     3.22475e+10 
           1625     3.24496e+10 
           1635     3.20862e+10 
           1645     3.10235e+10 
           1655     3.19743e+10 
           1665     3.13263e+10 
           1672     2.97493e+10 
           1677     3.20263e+10 
           1685     3.10223e+10 
           1695     3.02535e+10 
           1705     2.95342e+10 
           1715     2.86285e+10 
           1725     2.77443e+10 
           1735     2.82901e+10 
           1745     2.77986e+10 
           1755     2.71426e+10 
           1765     2.67259e+10 
           1775     2.61901e+10 
           1785     2.60405e+10 
           1795     2.54437e+10 
           1805     2.51984e+10 
           1815     2.46035e+10 
           1825     2.41491e+10 
           1835     2.39773e+10 
           1845     2.30629e+10 
           1855     2.27602e+10 
           1865     2.25471e+10 
           1875       2.214e+10 
           1885     2.13915e+10 
           1895     2.10111e+10 
           1905     2.11243e+10 
           1915     2.05437e+10 
           1925     1.96334e+10 
           1935     2.00427e+10 
           1945     1.99836e+10 
           1955      1.8926e+10 
           1967     1.91262e+10 
           1976      1.9127e+10 
           1984     1.86304e+10 
           1995     1.80943e+10 
           2005     1.81813e+10 
           2015     1.79827e+10 
           2025     1.77449e+10 
           2035     1.73071e+10 
           2045     1.70248e+10 
           2055      1.4094e+10 
           2065     1.35727e+10 
           2074     1.36864e+10 
           2078     1.35918e+10 
           2085     1.39332e+10 
           2095     1.45446e+10 
           2105      1.5342e+10 
           2115     1.54036e+10 
           2125     1.51088e+10 
           2135     1.49279e+10 
           2145      1.4681e+10 
           2155      1.4567e+10 
           2165     1.40638e+10 
           2175     1.41872e+10 
           2185     1.37239e+10 
           2195     1.38165e+10 
           2205     1.36209e+10 
           2215     1.30905e+10 
           2225     1.31983e+10 
           2235     1.30028e+10 
           2245     1.27878e+10 
           2255      1.2305e+10 
           2265     1.24337e+10 
           2275     1.22592e+10 
           2285     1.20128e+10 
           2295     1.14141e+10 
           2305     1.14082e+10 
           2315     1.14947e+10 
           2325     1.13619e+10 
           2335     1.11909e+10 
           2345      1.1036e+10 
           2355      1.0863e+10 
           2365     1.07053e+10 
           2375     1.05279e+10 
           2385     1.00954e+10 
           2395     1.01682e+10 
           2405     1.00917e+10 
           2415      9.94884e+9 
           2425      9.82467e+9 
           2435      9.66599e+9 
           2445      9.54171e+9 
           2455      9.40038e+9 
           2465      9.28335e+9 
           2475      9.15313e+9 
           2485      9.00396e+9 
           2495       8.0768e+9 
           2505      8.70407e+9 
           2513      8.21505e+9 
           2518      8.44211e+9 
           2525      8.53186e+9 
           2535      8.43068e+9 
           2545       8.2872e+9 
           2555       8.1786e+9 
           2565      8.08289e+9 
           2575      7.97534e+9 
           2585      7.87317e+9 
           2595       7.7561e+9 
           2605      7.68501e+9 
           2615      7.57125e+9 
           2625      7.48197e+9 
           2635      7.38459e+9 
           2645      7.28039e+9 
           2655      7.18664e+9 
           2665      7.06809e+9 
           2675      6.95112e+9 
           2685      6.90884e+9 
           2695      6.77571e+9 
           2705      6.71798e+9 
           2715      6.62821e+9 
           2725      6.52232e+9 
           2735      6.34478e+9 
           2745      6.39113e+9 
           2755      6.31255e+9 
           2765      6.19602e+9 
           2775       6.1627e+9 
           2785      6.07869e+9 
           2795      5.93786e+9 
           2805        5.909e+9 
           2815      5.85901e+9 
           2825      5.75152e+9 
           2835      5.67258e+9 
           2845       5.6472e+9 
           2855      5.57166e+9 
           2865      5.49841e+9 
           2875      5.43516e+9 
           2885      5.36994e+9 
           2895      5.30368e+9 
           2910      5.19932e+9 
           2930      5.08689e+9 
           2950      4.93504e+9 
           2970      4.84232e+9 
           2990      4.71665e+9 
           3010       4.6047e+9 
           3030      4.49446e+9 
           3050      4.40007e+9 
           3070      4.30935e+9 
           3090      4.19259e+9 
           3110      4.11352e+9 
           3130      4.01728e+9 
           3150      3.92695e+9 
           3170      3.83819e+9 
           3190      3.73801e+9 
           3210      3.64598e+9 
           3230      3.59447e+9 
           3250      3.52041e+9 
           3270      3.43457e+9 
           3290      3.36603e+9 
           3310      3.29615e+9 
           3330      3.22222e+9 
           3350      3.14868e+9 
           3370      3.08747e+9 
           3390      3.02895e+9 
           3410      2.96528e+9 
           3430      2.89884e+9 
           3450      2.82962e+9 
           3470       2.7782e+9 
           3490      2.72177e+9 
           3510      2.66831e+9 
           3530      2.61832e+9 
           3550      2.56367e+9 
           3570      2.52291e+9 
           3590      2.45714e+9 
           3610      2.41525e+9 
           3630       2.3612e+9 
           3640      2.34219e+9 
           3650      2.25028e+9 
           3670      2.21338e+9 
           3690      2.17249e+9 
           3710      2.11086e+9 
           3730      2.07093e+9 
           3750      2.03735e+9 
           3770      1.97937e+9 
           3790      2.00688e+9 
           3810      2.04861e+9 
           3830      1.85328e+9 
           3850       2.0493e+9 
           3870      2.04932e+9 
           3890      1.73125e+9 
           3910      2.00793e+9 
           3930      1.97986e+9 
           3950      1.92884e+9 
           3970      1.59883e+9 
           3990      1.85815e+9 
           4010      1.84486e+9 
           4030      1.75436e+9 
           4050      1.79558e+9 
           4070      1.74152e+9 
           4090       1.6146e+9 
           4110       1.4615e+9 
           4130      1.64413e+9 
           4150      1.62661e+9 
           4170       1.6128e+9 
           4190      1.58064e+9 
           4210      1.55089e+9 
           4230       1.5332e+9 
           4250      1.50129e+9 
           4270      1.46942e+9 
           4290      1.44656e+9 
           4310      1.41109e+9 
           4330      1.29574e+9 
           4350      1.20532e+9 
           4370      1.33974e+9 
           4390      1.30242e+9 
           4410      1.30377e+9 
           4430       1.2863e+9 
           4450      1.26575e+9 
           4470      1.20205e+9 
           4490      1.22326e+9 
           4510      1.20332e+9 
           4530      1.18459e+9 
           4550      1.15613e+9 
           4570      1.14747e+9 
           4590      1.12682e+9 
           4610       1.1082e+9 
           4630      1.08666e+9 
           4650      1.04982e+9 
           4670      1.05372e+9 
           4690      1.02179e+9 
           4710      1.01124e+9 
           4730      1.00927e+9 
           4750      9.92846e+8 
           4770      9.78809e+8 
           4790      9.63345e+8 
           4810      9.46281e+8 
           4830      9.25768e+8 
           4850      8.62478e+8 
           4870      7.88662e+8 
           4890      8.81243e+8 
           4910      8.73484e+8 
           4930      8.45626e+8 
           4950      8.49092e+8 
           4970      8.38429e+8 
           4990      8.25745e+8 
           5010      8.03751e+8 
           5030      8.00469e+8 
           5050      7.85987e+8 
           5070      7.77673e+8 
           5090      7.66048e+8 
           5110       7.5474e+8 
           5130      7.43384e+8 
           5150      7.32508e+8 
           5170      7.21932e+8 
           5190      7.11708e+8 
           5210      7.01535e+8 
           5230      6.91456e+8 
           5250      6.81099e+8 
           5270      6.71355e+8 
           5290      6.62209e+8 
           5310      6.52781e+8 
           5330      6.43594e+8 
           5350      6.34501e+8 
           5370      6.25629e+8 
           5390       6.1678e+8 
           5410      6.03051e+8 
           5430      5.99805e+8 
           5450      5.91466e+8 
           5470      5.83321e+8 
           5490      5.75304e+8 
           5510        5.674e+8 
           5530      5.59632e+8 
           5550      5.52108e+8 
           5570      5.44569e+8 
           5590      5.36869e+8 
           5610      5.30019e+8 
           5630      5.22897e+8 
           5650       5.1585e+8 
           5670      5.08713e+8 
           5690      4.98942e+8 
           5710      4.88647e+8 
           5730      4.82407e+8 
           5750      4.75901e+8 
           5770      4.70096e+8 
           5790      4.63988e+8 
           5810      4.57875e+8 
           5830       4.5178e+8 
           5850      4.46461e+8 
           5870      4.30293e+8 
           5890      4.34521e+8 
           5910       4.3041e+8 
           5930       4.2539e+8 
           5950      4.20471e+8 
           5970      4.15925e+8 
           5990      4.11052e+8 
           6010      4.06516e+8 
           6030      4.01907e+8 
           6050      3.97566e+8 
           6070      3.92763e+8 
           6090      3.87871e+8 
           6110      3.83056e+8 
           6130      3.78314e+8 
           6150      3.73447e+8 
           6170      3.68903e+8 
           6190      3.64507e+8 
           6210      3.60072e+8 
           6230      3.55677e+8 
           6250      3.51283e+8 
           6270      3.47071e+8 
           6290      3.42897e+8 
           6310      3.38711e+8 
           6330      3.34694e+8 
           6350      3.30636e+8 
           6370      3.26744e+8 
           6390      3.22828e+8 
           6410      3.18992e+8 
           6430      3.15234e+8 
           6450      3.11489e+8 
           6470      3.07677e+8 
           6490       3.0412e+8 
           6510      3.00307e+8 
           6530      2.95308e+8 
           6550       2.8347e+8 
           6570        2.571e+8 
           6590      2.83796e+8 
           6610      2.83038e+8 
           6630      2.80356e+8 
           6650       2.7719e+8 
           6670      2.71372e+8 
           6690      2.68153e+8 
           6710      2.67661e+8 
           6730      2.64617e+8 
           6750      2.61737e+8 
           6770      2.58885e+8 
           6790      2.55786e+8 
           6810      2.53099e+8 
           6830      2.50262e+8 
           6850      2.47495e+8 
           6870      2.44731e+8 
           6890      2.41677e+8 
           6910      2.39207e+8 
           6930      2.36738e+8 
           6950       2.3413e+8 
           6970       2.3157e+8 
           6990      2.29037e+8 
           7010      2.26513e+8 
           7030      2.23937e+8 
           7050        2.216e+8 
           7070      2.16542e+8 
           7090      2.16888e+8 
           7110      2.14529e+8 
           7130      2.12246e+8 
           7150      2.09984e+8 
           7170      2.07532e+8 
           7190      2.05424e+8 
           7210      2.03358e+8 
           7230      2.00693e+8 
           7250      1.99021e+8 
           7270      1.96986e+8 
           7290      1.93724e+8 
           7310      1.92862e+8 
           7330      1.90858e+8 
           7350      1.88872e+8 
           7370      1.86912e+8 
           7390      1.84977e+8 
           7410      1.83061e+8 
           7430      1.81176e+8 
           7450      1.79315e+8 
           7470      1.77404e+8 
           7490      1.75558e+8 
           7510      1.73843e+8 
           7530      1.72097e+8 
           7550       1.7036e+8 
           7570      1.68626e+8 
           7590      1.66588e+8 
           7610      1.65173e+8 
           7630      1.63577e+8 
           7650      1.61938e+8 
           7670      1.60326e+8 
           7690      1.58678e+8 
           7710      1.57127e+8 
           7730      1.55508e+8 
           7750      1.54047e+8 
           7770      1.52525e+8 
           7790      1.51029e+8 
           7810      1.49497e+8 
           7830      1.48077e+8 
           7850      1.46712e+8 
           7870      1.45225e+8 
           7890      1.43776e+8 
           7910      1.42459e+8 
           7930      1.41065e+8 
           7950      1.39724e+8 
           7970      1.38348e+8 
           7990      1.37036e+8 
           8010      1.35725e+8 
           8030      1.34407e+8 
           8050      1.33147e+8 
           8070      1.31874e+8 
           8090      1.30532e+8 
           8110      1.29179e+8 
           8130      1.28145e+8 
           8150      1.26837e+8 
           8170      1.25737e+8 
           8190      1.24298e+8 
           8210      1.22446e+8 
           8230      1.21157e+8 
           8250      1.20277e+8 
           8270      1.18913e+8 
           8290      1.18132e+8 
           8310      1.17095e+8 
           8330      1.15925e+8 
           8350      1.14587e+8 
           8370      1.13771e+8 
           8390       1.1285e+8 
           8410      1.11813e+8 
           8430      1.10774e+8 
           8450      1.09369e+8 
           8470      1.08801e+8 
           8490      1.07714e+8 
           8510      1.06709e+8 
           8530      1.05722e+8 
           8550      1.04795e+8 
           8570      1.04096e+8 
           8590      1.02157e+8 
