# Kurucz ODFNEW /NOVER (2003)
# teff = 8750 K (value for the effective temperature for the model. Temperatures are given in K)
# logg = 5 log(cm/s2) (value for Log(G) for the model.)
# meta = -2  (value for the Metallicity for the model.)
# lh = 1.25  (l/Hp where l is the  mixing length of the convective element and Hp is the pressure scale height)
# vtur = 2 km/s (Microturbulence velocity)
# alpha = 0  (Alpha)
#
# column 1: WAVELENGTH (ANGSTROM), Wavelength in Angstrom
# column 2: FLUX (ERG/CM2/S/A), Flux in erg/cm2/s/A
          268.5     2.34763e-23 
          273.5     1.48028e-22 
          278.5     6.44055e-22 
            284     2.98685e-21 
            290     1.48143e-20 
            296     6.86546e-20 
            301      2.3485e-19 
            308     1.22605e-18 
            318     1.14106e-17 
            328     9.22774e-17 
            338     6.56681e-16 
            348     4.15789e-15 
            357     1.99723e-14 
            366     8.85464e-14 
            375     3.64446e-13 
            385      1.6191e-12 
            395     6.64845e-12 
            405      2.5384e-11 
            414     7.99986e-11 
            422     2.12582e-10 
            430     5.43782e-10 
            441      1.86615e-9 
            451      5.41958e-9 
            460      1.35703e-8 
            470      3.60289e-8 
            480      9.16381e-8 
            490      2.23888e-7 
            500      5.26728e-7 
            506      8.65591e-7 
            512      1.40411e-6 
            520      2.62749e-6 
            530      5.59046e-6 
            540      1.15468e-5 
            550      2.31903e-5 
            560      4.53541e-5 
            570      8.65028e-5 
            580     0.000161107 
            590     0.000293375 
            600     0.000522932 
            610     0.000913364 
            620      0.00156474 
            630      0.00263198 
            640      0.00435032 
            650      0.00707172 
            658       0.0103118 
            665       0.0142292 
            675       0.0222602 
            685       0.0343342 
            695       0.0522457 
            705       0.0784801 
            716        0.121046 
            726        0.177266 
            735        0.247485 
            745        0.354877 
            755        0.503592 
            765        0.707528 
            775        0.984499 
            785         1.35726 
            795         1.85472 
            805         2.51289 
            815         3.37683 
            825         4.50199 
            835         5.95656 
            845         7.82346 
            855         10.2033 
            865         13.2163 
            875         17.0069 
            885         21.7464 
            895         27.6372 
            905         34.9161 
            915         55.0858 
            925         188.346 
            935         334.962 
            945         647.341 
            955         996.034 
            965         1376.29 
            975         1002.83 
            985          2397.7 
            995         3085.98 
           1005         3590.22 
           1015         3308.42 
           1025         1911.21 
           1035         4353.11 
           1045         6599.51 
           1055         7934.83 
           1065         9591.41 
           1075         11347.9 
           1085           13503 
           1095           15023 
           1105         20459.6 
           1115         40014.6 
           1125         41053.6 
           1135         44550.4 
           1145           39040 
           1155         35754.7 
           1165         36192.8 
           1175         35322.9 
           1185         37543.5 
           1195         28048.4 
           1205           21090 
           1215         9271.34 
           1225         23603.3 
           1235         42093.6 
           1245         52996.5 
           1255         71601.4 
           1265         89239.4 
           1275          117937 
           1285          237529 
           1295          370771 
           1305          694672 
           1315      1.01769e+6 
           1325      1.50254e+6 
           1335      2.13284e+6 
           1345      2.89655e+6 
           1355      3.39852e+6 
           1365      4.03333e+6 
           1375      3.55364e+6 
           1385      2.84144e+6 
           1395      2.65314e+6 
           1405      5.03387e+6 
           1415      9.90036e+6 
           1425      1.09676e+7 
           1435      1.14013e+7 
           1442      1.34613e+7 
           1447      1.19515e+7 
           1455      1.39799e+7 
           1465      1.25726e+7 
           1475      1.34094e+7 
           1485      1.40532e+7 
           1495      1.44821e+7 
           1505      1.55499e+7 
           1512      1.56763e+7 
           1517      1.40374e+7 
           1525      1.42072e+7 
           1535       1.3745e+7 
           1545      1.19623e+7 
           1555      1.03196e+7 
           1565       7.4393e+6 
           1575      7.28727e+6 
           1585      6.61107e+6 
           1595      5.96512e+6 
           1605      6.09664e+6 
           1615      9.76523e+6 
           1625       1.5418e+7 
           1635       2.2957e+7 
           1645      3.35058e+7 
           1655       3.3065e+7 
           1665      4.50449e+7 
           1672      4.37777e+7 
           1677      4.75358e+7 
           1685      5.10939e+7 
           1695      4.98792e+7 
           1705      5.15248e+7 
           1715      5.47721e+7 
           1725       5.4525e+7 
           1735       5.6738e+7 
           1745      5.57332e+7 
           1755       5.7589e+7 
           1765      5.44459e+7 
           1775      5.72993e+7 
           1785      5.70871e+7 
           1795      5.91281e+7 
           1805      5.79682e+7 
           1815      5.79877e+7 
           1825      5.70745e+7 
           1835      5.79478e+7 
           1845      5.56137e+7 
           1855      5.74626e+7 
           1865      5.83839e+7 
           1875        5.859e+7 
           1885      5.86454e+7 
           1895      5.90016e+7 
           1905      5.81025e+7 
           1915        5.888e+7 
           1925      5.95498e+7 
           1935      5.78845e+7 
           1945      6.00114e+7 
           1955      5.99382e+7 
           1967      6.02685e+7 
           1976      5.89373e+7 
           1984       5.8774e+7 
           1995      5.91831e+7 
           2005      5.80272e+7 
           2015      5.76438e+7 
           2025      5.69951e+7 
           2035      5.87378e+7 
           2045      5.88665e+7 
           2055      5.74993e+7 
           2065      5.76302e+7 
           2074       5.9057e+7 
           2078      5.90977e+7 
           2085       5.8751e+7 
           2095      5.82258e+7 
           2105        5.798e+7 
           2115      5.80747e+7 
           2125      5.78548e+7 
           2135      5.64017e+7 
           2145      5.79764e+7 
           2155      5.74071e+7 
           2165      5.59505e+7 
           2175      5.61324e+7 
           2185       5.6461e+7 
           2195      5.76359e+7 
           2205      5.63154e+7 
           2215      5.42217e+7 
           2225      5.48685e+7 
           2235      5.70348e+7 
           2245      5.57041e+7 
           2255      5.41873e+7 
           2265       5.3444e+7 
           2275      5.50825e+7 
           2285      5.54947e+7 
           2295      5.41388e+7 
           2305      5.45883e+7 
           2315      5.40263e+7 
           2325      5.40588e+7 
           2335      5.36202e+7 
           2345       5.0923e+7 
           2355      5.34347e+7 
           2365       5.1209e+7 
           2375      5.24898e+7 
           2385      4.94603e+7 
           2395      5.19111e+7 
           2405      5.13376e+7 
           2415      5.14534e+7 
           2425      5.24976e+7 
           2435      5.11415e+7 
           2445      5.18281e+7 
           2455      5.17249e+7 
           2465      5.05057e+7 
           2475      4.98751e+7 
           2485      5.03975e+7 
           2495      4.95247e+7 
           2505      5.13503e+7 
           2513      4.97007e+7 
           2518      4.93027e+7 
           2525      4.80506e+7 
           2535      4.79665e+7 
           2545      4.79614e+7 
           2555      4.98732e+7 
           2565      4.94977e+7 
           2575      5.04145e+7 
           2585      5.06346e+7 
           2595      5.02166e+7 
           2605      4.93433e+7 
           2615      4.90228e+7 
           2625       4.9176e+7 
           2635      4.93753e+7 
           2645      5.14684e+7 
           2655      5.11755e+7 
           2665      4.98511e+7 
           2675      5.02799e+7 
           2685      5.06549e+7 
           2695      4.98455e+7 
           2705      4.97696e+7 
           2715       4.8636e+7 
           2725      4.85537e+7 
           2735      4.91139e+7 
           2745      4.66943e+7 
           2755      4.68607e+7 
           2765      4.78972e+7 
           2775      4.87835e+7 
           2785      4.82128e+7 
           2795       4.4295e+7 
           2805      4.63829e+7 
           2815      4.89487e+7 
           2825      4.86547e+7 
           2835      4.78621e+7 
           2845      4.74797e+7 
           2855      4.65006e+7 
           2865      4.71312e+7 
           2875      4.70546e+7 
           2885      4.72042e+7 
           2895       4.7499e+7 
           2910      4.77846e+7 
           2930      4.68142e+7 
           2950      4.64413e+7 
           2970       4.6339e+7 
           2990      4.60835e+7 
           3010      4.60802e+7 
           3030      4.58473e+7 
           3050      4.56247e+7 
           3070      4.53079e+7 
           3090      4.51258e+7 
           3110      4.48822e+7 
           3130      4.45297e+7 
           3150      4.43153e+7 
           3170      4.41628e+7 
           3190      4.33812e+7 
           3210      4.34419e+7 
           3230      4.29814e+7 
           3250      4.30283e+7 
           3270      4.29792e+7 
           3290      4.27819e+7 
           3310      4.25691e+7 
           3330      4.21782e+7 
           3350      4.17197e+7 
           3370      4.15212e+7 
           3390      4.13048e+7 
           3410      4.12461e+7 
           3430      4.09971e+7 
           3450      4.07384e+7 
           3470      4.05173e+7 
           3490      4.03202e+7 
           3510      4.01434e+7 
           3530      3.99256e+7 
           3550      3.97102e+7 
           3570      3.93581e+7 
           3590      3.91517e+7 
           3610       3.8933e+7 
           3630      3.87511e+7 
           3640      3.86522e+7 
           3650      3.87263e+7 
           3670      3.86969e+7 
           3690      3.78691e+7 
           3710      3.71827e+7 
           3730      3.55178e+7 
           3750       4.0731e+7 
           3770      4.20573e+7 
           3790      4.95405e+7 
           3810      5.77755e+7 
           3830      4.69958e+7 
           3850      6.45974e+7 
           3870      7.35906e+7 
           3890      4.15216e+7 
           3910      7.43154e+7 
           3930      8.26127e+7 
           3950      7.43028e+7 
           3970      4.04029e+7 
           3990      7.05298e+7 
           4010      8.40256e+7 
           4030      8.62069e+7 
           4050      8.46777e+7 
           4070      7.84621e+7 
           4090      5.70969e+7 
           4110      4.41203e+7 
           4130      7.34182e+7 
           4150      8.02129e+7 
           4170      8.16486e+7 
           4190      8.15148e+7 
           4210      8.08761e+7 
           4230      7.98352e+7 
           4250      7.88811e+7 
           4270      7.72555e+7 
           4290      7.47723e+7 
           4310      6.84988e+7 
           4330      4.85618e+7 
           4350      4.16976e+7 
           4370      6.50526e+7 
           4390      7.05328e+7 
           4410      7.17948e+7 
           4430      7.18813e+7 
           4450      7.15087e+7 
           4470      7.09419e+7 
           4490      7.01786e+7 
           4510      6.96483e+7 
           4530      6.89337e+7 
           4550      6.81852e+7 
           4570      6.75753e+7 
           4590       6.6859e+7 
           4610      6.62092e+7 
           4630      6.54873e+7 
           4650      6.48206e+7 
           4670      6.41301e+7 
           4690      6.33823e+7 
           4710      6.24834e+7 
           4730      6.19629e+7 
           4750      6.11566e+7 
           4770      6.02078e+7 
           4790       5.8954e+7 
           4810      5.68951e+7 
           4830      5.23683e+7 
           4850      3.93746e+7 
           4870      3.24328e+7 
           4890      4.89359e+7 
           4910      5.35448e+7 
           4930       5.4669e+7 
           4950      5.48908e+7 
           4970      5.47016e+7 
           4990      5.43154e+7 
           5010      5.38286e+7 
           5030      5.34148e+7 
           5050      5.29142e+7 
           5070       5.2502e+7 
           5090      5.19986e+7 
           5110      5.15014e+7 
           5130      5.09919e+7 
           5150      5.04815e+7 
           5170      4.97647e+7 
           5190      4.93987e+7 
           5210      4.90202e+7 
           5230      4.85193e+7 
           5250      4.80997e+7 
           5270       4.7578e+7 
           5290      4.71731e+7 
           5310      4.67102e+7 
           5330      4.62423e+7 
           5350      4.58314e+7 
           5370       4.5377e+7 
           5390      4.49514e+7 
           5410       4.4509e+7 
           5430      4.40999e+7 
           5450      4.36843e+7 
           5470      4.32735e+7 
           5490      4.28725e+7 
           5510        4.247e+7 
           5530      4.20648e+7 
           5550      4.16803e+7 
           5570      4.12831e+7 
           5590      4.08918e+7 
           5610      4.05158e+7 
           5630       4.0144e+7 
           5650      3.97718e+7 
           5670      3.94027e+7 
           5690      3.90412e+7 
           5710      3.86792e+7 
           5730      3.83271e+7 
           5750      3.79743e+7 
           5770      3.76267e+7 
           5790       3.7284e+7 
           5810      3.69441e+7 
           5830       3.6609e+7 
           5850      3.62754e+7 
           5870      3.59423e+7 
           5890      3.55618e+7 
           5910      3.53021e+7 
           5930      3.49851e+7 
           5950      3.46716e+7 
           5970      3.43614e+7 
           5990      3.40536e+7 
           6010      3.37501e+7 
           6030        3.345e+7 
           6050       3.3154e+7 
           6070      3.28603e+7 
           6090      3.25696e+7 
           6110      3.22821e+7 
           6130      3.19926e+7 
           6150      3.17091e+7 
           6170      3.14316e+7 
           6190       3.1162e+7 
           6210      3.08903e+7 
           6230      3.06185e+7 
           6250      3.03467e+7 
           6270      3.00911e+7 
           6290      2.98296e+7 
           6310      2.95689e+7 
           6330      2.93146e+7 
           6350      2.90471e+7 
           6370      2.87461e+7 
           6390      2.84844e+7 
           6410      2.82115e+7 
           6430      2.79315e+7 
           6450      2.76191e+7 
           6470      2.72713e+7 
           6490      2.68137e+7 
           6510      2.61052e+7 
           6530       2.4668e+7 
           6550      2.08357e+7 
           6570      1.70679e+7 
           6590       2.2957e+7 
           6610      2.46583e+7 
           6630      2.51371e+7 
           6650      2.52153e+7 
           6670      2.51439e+7 
           6690      2.50106e+7 
           6710      2.48466e+7 
           6730      2.46684e+7 
           6750      2.44819e+7 
           6770      2.43342e+7 
           6790      2.41355e+7 
           6810      2.39379e+7 
           6830      2.37398e+7 
           6850      2.35467e+7 
           6870      2.33548e+7 
           6890      2.31646e+7 
           6910      2.29763e+7 
           6930      2.27897e+7 
           6950      2.26049e+7 
           6970      2.24219e+7 
           6990      2.22413e+7 
           7010      2.20625e+7 
           7030      2.18838e+7 
           7050      2.17097e+7 
           7070      2.15358e+7 
           7090      2.13635e+7 
           7110      2.11854e+7 
           7130       2.1023e+7 
           7150      2.08562e+7 
           7170      2.06916e+7 
           7190      2.05271e+7 
           7210      2.03656e+7 
           7230      2.02048e+7 
           7250      2.00461e+7 
           7270      1.98882e+7 
           7290       1.9731e+7 
           7310      1.95774e+7 
           7330      1.94237e+7 
           7350      1.92728e+7 
           7370      1.91226e+7 
           7390      1.89737e+7 
           7410      1.88255e+7 
           7430      1.86799e+7 
           7450      1.85363e+7 
           7470      1.83913e+7 
           7490      1.82495e+7 
           7510       1.8111e+7 
           7530      1.79724e+7 
           7550       1.7835e+7 
           7570      1.76989e+7 
           7590      1.75638e+7 
           7610        1.743e+7 
           7630      1.72973e+7 
           7650      1.71665e+7 
           7670      1.70354e+7 
           7690      1.69074e+7 
           7710      1.67793e+7 
           7730      1.66535e+7 
           7750      1.65281e+7 
           7770      1.63683e+7 
           7790      1.62818e+7 
           7810      1.61603e+7 
           7830      1.60391e+7 
           7850       1.5919e+7 
           7870      1.57992e+7 
           7890      1.56811e+7 
           7910      1.55676e+7 
           7930      1.54514e+7 
           7950      1.53374e+7 
           7970      1.52255e+7 
           7990      1.51116e+7 
           8010      1.50022e+7 
           8030      1.48925e+7 
           8050      1.47832e+7 
           8070      1.46753e+7 
           8090      1.45683e+7 
           8110      1.44621e+7 
           8130      1.43574e+7 
           8150       1.4253e+7 
           8170        1.415e+7 
           8190      1.40428e+7 
           8210      1.39622e+7 
           8230      1.38666e+7 
           8250      1.37729e+7 
           8270      1.36854e+7 
           8290      1.35942e+7 
           8310      1.35038e+7 
           8330      1.34059e+7 
           8350      1.33234e+7 
           8370      1.32324e+7 
           8390      1.31378e+7 
           8410      1.30445e+7 
           8430      1.29466e+7 
           8450      1.28479e+7 
           8470      1.27154e+7 
           8490      1.26764e+7 
           8510      1.24198e+7 
           8530      1.25149e+7 
           8550      1.20374e+7 
           8570      1.24152e+7 
           8590       1.1969e+7 
           8610      1.18062e+7 
           8630       1.2273e+7 
           8650      1.18906e+7 
           8670      1.07959e+7 
           8690      1.19445e+7 
           8710      1.21395e+7 
           8730      1.17033e+7 
           8750      9.95919e+6 
           8770      1.12055e+7 
           8790      1.19176e+7 
           8810      1.19907e+7 
           8830       1.1678e+7 
           8850       1.0492e+7 
           8870      9.20936e+6 
           8890      1.10528e+7 
           8910      1.16225e+7 
           8930      1.17613e+7 
           8950      1.16971e+7 
           8970      1.14099e+7 
           8990      1.07145e+7 
           9010      8.78941e+6 
           9030      9.43892e+6 
           9050      1.07339e+7 
           9070      1.11331e+7 
           9090      1.12442e+7 
           9110      1.12921e+7 
           9130      1.12399e+7 
           9150      1.11103e+7 
           9170      1.08836e+7 
           9190      1.04683e+7 
