# Kurucz ODFNEW /NOVER (2003)
# teff = 7250 K (value for the effective temperature for the model. Temperatures are given in K)
# logg = 4 log(cm/s2) (value for Log(G) for the model.)
# meta = -2.5  (value for the Metallicity for the model.)
# lh = 1.25  (l/Hp where l is the  mixing length of the convective element and Hp is the pressure scale height)
# vtur = 2 km/s (Microturbulence velocity)
# alpha = 0.4  (Alpha)
#
# column 1: WAVELENGTH (ANGSTROM), Wavelength in Angstrom
# column 2: FLUX (ERG/CM2/S/A), Flux in erg/cm2/s/A
            328       6.093e-23 
            338     7.13532e-22 
            348     6.73176e-21 
            357     4.53025e-20 
            366     2.76633e-19 
            375     1.54413e-18 
            385     9.46367e-18 
            395     5.27409e-17 
            405     2.65898e-18 
            414      9.9607e-18 
            422     3.06192e-17 
            430     9.00137e-17 
            441     3.70296e-16 
            451     1.25544e-15 
            460     3.58854e-15 
            470     1.09593e-14 
            480      3.1816e-14 
            490     8.81682e-14 
            500     2.33557e-13 
            506     5.44739e-13 
            512     1.06439e-12 
            520     2.16313e-12 
            530     5.11716e-12 
            540     1.14966e-11 
            550     2.53312e-11 
            560       5.378e-11 
            570     1.10896e-10 
            580     2.19889e-10 
            590     4.34662e-10 
            600     8.28554e-10 
            610      1.54266e-9 
            620      2.80852e-9 
            630      5.00559e-9 
            640      8.74765e-9 
            650      1.49961e-8 
            658      2.27771e-8 
            665      3.25296e-8 
            675      5.33478e-8 
            685      8.60683e-8 
            695      1.36715e-7 
            705      2.13944e-7 
            716      3.44435e-7 
            726      5.23471e-7 
            735      7.54679e-7 
            745      1.12002e-6 
            755       1.6424e-6 
            765      2.38079e-6 
            775      3.41319e-6 
            785      4.84171e-6 
            795      6.79696e-6 
            805      9.45275e-6 
            815      1.30206e-5 
            825      1.77753e-5 
            835      2.40602e-5 
            845      3.22952e-5 
            855      4.29993e-5 
            865      5.68096e-5 
            875      7.44872e-5 
            885      9.69739e-5 
            895     0.000125375 
            905     0.000160995 
            915        0.343321 
            925          2.3762 
            935         4.24082 
            945         7.59302 
            955         10.8699 
            965         14.0833 
            975         11.3868 
            985         24.3198 
            995         29.7951 
           1005         35.6142 
           1015         34.5426 
           1025         27.4777 
           1035         53.7017 
           1045         80.5672 
           1055         96.3431 
           1065         119.746 
           1075         144.667 
           1085         175.919 
           1095         202.515 
           1105         260.447 
           1115         326.026 
           1125         366.125 
           1135         435.883 
           1145         488.819 
           1155          517.33 
           1165         567.693 
           1175         456.209 
           1185         737.161 
           1195         472.592 
           1205         315.959 
           1215         148.622 
           1225         369.844 
           1235         786.248 
           1245         435.322 
           1255         849.768 
           1265         1839.33 
           1275         2284.86 
           1285         2844.14 
           1295         3457.46 
           1305         4042.87 
           1315         4861.55 
           1325         5697.21 
           1335         6614.55 
           1345         7778.76 
           1355         8861.64 
           1365         10320.9 
           1375         11647.3 
           1385         12978.8 
           1395         14674.6 
           1405         16241.9 
           1415         18815.5 
           1425         20331.6 
           1435           22444 
           1442         25177.9 
           1447         25157.2 
           1455         27901.1 
           1465         29329.5 
           1475         32463.9 
           1485         35453.4 
           1495         39374.9 
           1505         43307.6 
           1512         46099.5 
           1517         45488.3 
           1525         48569.6 
           1535         52073.6 
           1545         54665.4 
           1555         57258.2 
           1565         57396.4 
           1575         63080.2 
           1585         66984.9 
           1595           71649 
           1605         75912.6 
           1615         85146.8 
           1625         98153.3 
           1635          130128 
           1645          287598 
           1655          557332 
           1665      1.65057e+6 
           1672      2.15654e+6 
           1677      3.08676e+6 
           1685       4.1567e+6 
           1695      5.08023e+6 
           1705      6.28551e+6 
           1715      7.57167e+6 
           1725      8.11273e+6 
           1735      9.07562e+6 
           1745      9.11938e+6 
           1755      9.88503e+6 
           1765      9.11595e+6 
           1775      1.01093e+7 
           1785      1.03732e+7 
           1795      1.10824e+7 
           1805       1.0678e+7 
           1815      1.09469e+7 
           1825      1.06374e+7 
           1835      1.12866e+7 
           1845      1.05987e+7 
           1855       1.1269e+7 
           1865      1.17875e+7 
           1875      1.18421e+7 
           1885       1.2037e+7 
           1895      1.23278e+7 
           1905      1.19714e+7 
           1915      1.26531e+7 
           1925      1.30923e+7 
           1935      1.26585e+7 
           1945      1.34239e+7 
           1955      1.34871e+7 
           1967      1.39023e+7 
           1976      1.35001e+7 
           1984      1.35388e+7 
           1995      1.38035e+7 
           2005      1.35425e+7 
           2015      1.37174e+7 
           2025      1.32543e+7 
           2035      1.42651e+7 
           2045      1.45385e+7 
           2055      1.42261e+7 
           2065      1.43404e+7 
           2074      1.50456e+7 
           2078      1.50488e+7 
           2085      1.49384e+7 
           2095      1.48365e+7 
           2105      1.47758e+7 
           2115      1.50432e+7 
           2125      1.51155e+7 
           2135      1.45486e+7 
           2145      1.53172e+7 
           2155      1.51559e+7 
           2165      1.47831e+7 
           2175      1.49796e+7 
           2185       1.5332e+7 
           2195      1.58682e+7 
           2205      1.55441e+7 
           2215      1.49049e+7 
           2225      1.54013e+7 
           2235      1.62993e+7 
           2245      1.58375e+7 
           2255      1.52965e+7 
           2265      1.49569e+7 
           2275      1.57698e+7 
           2285      1.59899e+7 
           2295      1.54818e+7 
           2305      1.58774e+7 
           2315      1.59044e+7 
           2325      1.59274e+7 
           2335      1.59371e+7 
           2345      1.49581e+7 
           2355       1.6249e+7 
           2365      1.53791e+7 
           2375      1.60139e+7 
           2385      1.47427e+7 
           2395      1.58612e+7 
           2405       1.5768e+7 
           2415      1.58508e+7 
           2425      1.65237e+7 
           2435      1.60928e+7 
           2445      1.64007e+7 
           2455      1.63636e+7 
           2465      1.61282e+7 
           2475       1.5853e+7 
           2485       1.6027e+7 
           2495      1.58335e+7 
           2505      1.67705e+7 
           2513      1.59499e+7 
           2518      1.56887e+7 
           2525      1.52473e+7 
           2535      1.51777e+7 
           2545      1.53088e+7 
           2555       1.6266e+7 
           2565      1.63513e+7 
           2575      1.69041e+7 
           2585      1.70915e+7 
           2595      1.70652e+7 
           2605      1.67129e+7 
           2615      1.66173e+7 
           2625      1.69179e+7 
           2635      1.70453e+7 
           2645      1.81132e+7 
           2655      1.80893e+7 
           2665      1.74578e+7 
           2675      1.77555e+7 
           2685        1.811e+7 
           2695      1.76911e+7 
           2705      1.77784e+7 
           2715      1.72076e+7 
           2725      1.72774e+7 
           2735      1.75436e+7 
           2745       1.6497e+7 
           2755      1.67577e+7 
           2765      1.73611e+7 
           2775      1.77665e+7 
           2785      1.75017e+7 
           2795      1.41765e+7 
           2805      1.55819e+7 
           2815      1.82802e+7 
           2825      1.82081e+7 
           2835      1.79121e+7 
           2845      1.77217e+7 
           2855      1.69373e+7 
           2865      1.76651e+7 
           2875      1.76778e+7 
           2885       1.7909e+7 
           2895      1.81491e+7 
           2910      1.84603e+7 
           2930      1.81166e+7 
           2950      1.79674e+7 
           2970      1.80632e+7 
           2990      1.80942e+7 
           3010      1.81265e+7 
           3030      1.81789e+7 
           3050      1.81879e+7 
           3070      1.81012e+7 
           3090      1.81695e+7 
           3110      1.81527e+7 
           3130      1.81979e+7 
           3150      1.82345e+7 
           3170      1.82379e+7 
           3190         1.79e+7 
           3210      1.80191e+7 
           3230      1.77472e+7 
           3250      1.79828e+7 
           3270      1.81683e+7 
           3290      1.82568e+7 
           3310      1.82559e+7 
           3330      1.80145e+7 
           3350      1.78497e+7 
           3370      1.79082e+7 
           3390      1.78329e+7 
           3410       1.8004e+7 
           3430        1.799e+7 
           3450      1.78485e+7 
           3470      1.78245e+7 
           3490      1.78608e+7 
           3510      1.78963e+7 
           3530      1.78837e+7 
           3550      1.79126e+7 
           3570      1.76764e+7 
           3590      1.76493e+7 
           3610      1.76378e+7 
           3630      1.76601e+7 
           3640      1.76596e+7 
           3650      1.77448e+7 
           3670      1.77438e+7 
           3690      1.70152e+7 
           3710      1.77804e+7 
           3730      1.81042e+7 
           3750      2.18936e+7 
           3770      2.27203e+7 
           3790      2.58959e+7 
           3810      2.90071e+7 
           3830      2.42098e+7 
           3850      3.10457e+7 
           3870      3.32436e+7 
           3890      2.28215e+7 
           3910      3.31805e+7 
           3930      3.33095e+7 
           3950      3.33062e+7 
           3970       2.2176e+7 
           3990       3.2469e+7 
           4010      3.45169e+7 
           4030      3.45857e+7 
           4050       3.4284e+7 
           4070      3.32042e+7 
           4090      2.87815e+7 
           4110      2.35979e+7 
           4130      3.24188e+7 
           4150      3.31614e+7 
           4170      3.31734e+7 
           4190      3.29626e+7 
           4210      3.27033e+7 
           4230      3.23253e+7 
           4250      3.22407e+7 
           4270      3.19002e+7 
           4290      3.15686e+7 
           4310      3.05016e+7 
           4330      2.57457e+7 
           4350      2.27063e+7 
           4370      2.99282e+7 
           4390      3.04068e+7 
           4410      3.04086e+7 
           4430      3.03708e+7 
           4450       3.0165e+7 
           4470      3.00069e+7 
           4490      2.98018e+7 
           4510      2.96233e+7 
           4530      2.93697e+7 
           4550      2.91357e+7 
           4570      2.89949e+7 
           4590      2.87928e+7 
           4610      2.86286e+7 
           4630      2.84082e+7 
           4650      2.82201e+7 
           4670       2.8029e+7 
           4690      2.78195e+7 
           4710      2.75668e+7 
           4730      2.74318e+7 
           4750       2.7203e+7 
           4770       2.6972e+7 
           4790      2.67161e+7 
           4810       2.6369e+7 
           4830      2.56327e+7 
           4850      2.21946e+7 
           4870      1.88755e+7 
           4890      2.47507e+7 
           4910       2.5384e+7 
           4930      2.53396e+7 
           4950      2.52813e+7 
           4970      2.51713e+7 
           4990      2.50093e+7 
           5010      2.47995e+7 
           5030      2.46756e+7 
           5050      2.44954e+7 
           5070      2.43362e+7 
           5090      2.41628e+7 
           5110      2.39956e+7 
           5130      2.38203e+7 
           5150      2.36428e+7 
           5170       2.3253e+7 
           5190      2.31707e+7 
           5210      2.31305e+7 
           5230      2.29526e+7 
           5250      2.28436e+7 
           5270      2.26109e+7 
           5290       2.2521e+7 
           5310      2.23597e+7 
           5330      2.21657e+7 
           5350      2.20516e+7 
           5370      2.18851e+7 
           5390      2.17359e+7 
           5410      2.15691e+7 
           5430      2.14296e+7 
           5450      2.12815e+7 
           5470      2.11438e+7 
           5490          2.1e+7 
           5510      2.08565e+7 
           5530      2.07047e+7 
           5550      2.05717e+7 
           5570      2.04218e+7 
           5590      2.02687e+7 
           5610      2.01376e+7 
           5630      2.00078e+7 
           5650        1.987e+7 
           5670        1.973e+7 
           5690      1.95974e+7 
           5710      1.94604e+7 
           5730      1.93316e+7 
           5750      1.91963e+7 
           5770      1.90668e+7 
           5790      1.89364e+7 
           5810      1.88074e+7 
           5830      1.86786e+7 
           5850      1.85489e+7 
           5870      1.84227e+7 
           5890      1.82381e+7 
           5910      1.81731e+7 
           5930      1.80496e+7 
           5950      1.79264e+7 
           5970      1.78043e+7 
           5990      1.76836e+7 
           6010      1.75629e+7 
           6030      1.74435e+7 
           6050      1.73273e+7 
           6070      1.72103e+7 
           6090      1.70944e+7 
           6110      1.69776e+7 
           6130       1.6856e+7 
           6150      1.67445e+7 
           6170      1.66243e+7 
           6190      1.65259e+7 
           6210      1.64157e+7 
           6230      1.63037e+7 
           6250      1.61908e+7 
           6270      1.60886e+7 
           6290      1.59817e+7 
           6310       1.5873e+7 
           6330      1.57682e+7 
           6350      1.56615e+7 
           6370      1.55587e+7 
           6390      1.54559e+7 
           6410      1.53504e+7 
           6430      1.52496e+7 
           6450      1.51298e+7 
           6470      1.50041e+7 
           6490      1.48724e+7 
           6510      1.47073e+7 
           6530      1.43903e+7 
           6550      1.31716e+7 
           6570      1.10309e+7 
           6590      1.38441e+7 
           6610      1.41691e+7 
           6630      1.41866e+7 
           6650      1.41346e+7 
           6670      1.40661e+7 
           6690      1.39981e+7 
           6710      1.39073e+7 
           6730      1.38172e+7 
           6750      1.37264e+7 
           6770       1.3638e+7 
           6790      1.35496e+7 
           6810      1.34612e+7 
           6830      1.33744e+7 
           6850      1.32876e+7 
           6870      1.32016e+7 
           6890      1.31163e+7 
           6910      1.30318e+7 
           6930      1.29481e+7 
           6950      1.28651e+7 
           6970       1.2782e+7 
           6990      1.27005e+7 
           7010      1.26182e+7 
           7030      1.25373e+7 
           7050       1.2458e+7 
           7070      1.23785e+7 
           7090      1.22998e+7 
           7110      1.22195e+7 
           7130      1.21429e+7 
           7150      1.20648e+7 
           7170      1.19888e+7 
           7190      1.19127e+7 
           7210      1.18373e+7 
           7230      1.17632e+7 
           7250      1.16891e+7 
           7270      1.16156e+7 
           7290      1.15406e+7 
           7310      1.14691e+7 
           7330      1.13961e+7 
           7350      1.13258e+7 
           7370      1.12547e+7 
           7390      1.11835e+7 
           7410      1.11115e+7 
           7430      1.10436e+7 
           7450      1.09756e+7 
           7470      1.09067e+7 
           7490      1.08385e+7 
           7510      1.07715e+7 
           7530      1.07051e+7 
           7550      1.06385e+7 
           7570      1.05725e+7 
           7590       1.0507e+7 
           7610      1.04421e+7 
           7630      1.03778e+7 
           7650      1.03133e+7 
           7670      1.02493e+7 
           7690      1.01865e+7 
           7710      1.01236e+7 
           7730      1.00624e+7 
           7750      9.99991e+6 
           7770      9.92479e+6 
           7790      9.87886e+6 
           7810      9.81844e+6 
           7830       9.7579e+6 
           7850      9.69846e+6 
           7870       9.6395e+6 
           7890      9.58041e+6 
           7910      9.52299e+6 
           7930      9.46363e+6 
           7950      9.40654e+6 
           7970      9.35108e+6 
           7990       9.2943e+6 
           8010      9.23855e+6 
           8030      9.18265e+6 
           8050       9.1272e+6 
           8070      9.07276e+6 
           8090      9.01817e+6 
           8110      8.96401e+6 
           8130      8.91027e+6 
           8150      8.85695e+6 
           8170      8.80404e+6 
           8190      8.74818e+6 
           8210      8.70226e+6 
           8230      8.65111e+6 
           8250      8.60147e+6 
           8270      8.55551e+6 
           8290       8.5066e+6 
           8310      8.45698e+6 
           8330      8.40284e+6 
           8350      8.35724e+6 
           8370      8.30336e+6 
           8390      8.25044e+6 
           8410       8.1958e+6 
           8430      8.15272e+6 
           8450      8.10309e+6 
           8470      8.00028e+6 
           8490      8.03737e+6 
           8510      7.80872e+6 
           8530      7.96838e+6 
           8550      7.57453e+6 
           8570      7.92136e+6 
           8590      7.67314e+6 
           8610      7.54251e+6 
           8630      7.84295e+6 
           8650      7.69999e+6 
           8670      7.00245e+6 
           8690      7.69561e+6 
           8710      7.74126e+6 
           8730      7.60449e+6 
           8750      6.73475e+6 
           8770      7.40989e+6 
           8790      7.59806e+6 
           8810      7.58059e+6 
           8830      7.50087e+6 
           8850      7.14426e+6 
           8870      6.44459e+6 
           8890      7.28413e+6 
           8910      7.38149e+6 
           8930      7.37492e+6 
           8950      7.33917e+6 
           8970      7.26669e+6 
           8990      7.10341e+6 
           9010      6.23844e+6 
           9030      6.64513e+6 
           9050      7.03621e+6 
           9070      7.07619e+6 
           9090      7.05512e+6 
           9110       7.0387e+6 
           9130      7.00428e+6 
           9150      6.95975e+6 
           9170      6.90254e+6 
           9190      6.81276e+6 
           9210      6.58068e+6 
           9230      5.67264e+6 
           9250      6.44287e+6 
           9270      6.64658e+6 
           9290      6.67386e+6 
           9310      6.65913e+6 
           9330      6.63147e+6 
           9350      6.61046e+6 
