# Kurucz ODFNEW /NOVER (2003)
# teff = 9500 K (value for the effective temperature for the model. Temperatures are given in K)
# logg = 4.5 log(cm/s2) (value for Log(G) for the model.)
# meta = -1  (value for the Metallicity for the model.)
# lh = 1.25  (l/Hp where l is the  mixing length of the convective element and Hp is the pressure scale height)
# vtur = 2 km/s (Microturbulence velocity)
# alpha = 0  (Alpha)
#
# column 1: WAVELENGTH (ANGSTROM), Wavelength in Angstrom
# column 2: FLUX (ERG/CM2/S/A), Flux in erg/cm2/s/A
          268.5     1.54079e-23 
          273.5     1.24171e-22 
          278.5     5.36226e-22 
            284      2.4519e-21 
            290     1.19752e-20 
            296     5.47448e-20 
            301     1.85473e-19 
            308     9.57113e-19 
            318     8.78715e-18 
            328     7.03146e-17 
            338     4.96155e-16 
            348     3.12199e-15 
            357     1.49324e-14 
            366     6.60196e-14 
            375     2.71165e-13 
            385     1.20309e-12 
            395     4.93702e-12 
            405     1.88508e-11 
            414     5.94605e-11 
            422     1.58167e-10 
            430     4.05091e-10 
            441      1.39303e-9 
            451      4.05343e-9 
            460       1.0171e-8 
            470      2.70771e-8 
            480      6.90671e-8 
            490      1.69238e-7 
            500      3.99273e-7 
            506      6.75031e-7 
            512      1.10869e-6 
            520      2.07452e-6 
            530      4.41923e-6 
            540      9.12729e-6 
            550       1.8357e-5 
            560      3.59383e-5 
            570       6.8616e-5 
            580     0.000127869 
            590     0.000233364 
            600     0.000416642 
            610     0.000728927 
            620      0.00125083 
            630      0.00210765 
            640      0.00349063 
            650      0.00568563 
            658      0.00830379 
            665       0.0114742 
            675       0.0179846 
            685       0.0277964 
            695       0.0423865 
            705        0.063802 
            716       0.0986253 
            726         0.14473 
            735        0.202436 
            745         0.29089 
            755        0.413637 
            765        0.582303 
            775        0.811885 
            785         1.12152 
            795         1.53565 
            805         2.08472 
            815         2.80682 
            825         3.74922 
            835         4.96993 
            845         6.53977 
            855         8.54492 
            865         11.0885 
            875         14.2947 
            885         18.3106 
            895         23.3113 
            905         29.5022 
            915         116.264 
            925         775.011 
            935         1399.66 
            945         2625.09 
            955         3966.08 
            965         5368.01 
            975         4028.35 
            985         8389.02 
            995         9703.01 
           1005         11764.1 
           1015         12057.5 
           1025         7210.26 
           1035         15374.8 
           1045         20492.6 
           1055         23844.8 
           1065         26688.7 
           1075         31198.2 
           1085         35409.6 
           1095         39010.6 
           1105          119159 
           1115      4.12055e+6 
           1125      6.05654e+6 
           1135      7.39495e+6 
           1145      5.39882e+6 
           1155       3.4755e+6 
           1165      1.59316e+6 
           1175          432797 
           1185          246952 
           1195          102776 
           1205         74096.6 
           1215           21282 
           1225         79667.7 
           1235          160105 
           1245          254179 
           1255          639258 
           1265      2.14404e+6 
           1275      7.12475e+6 
           1285      1.88565e+7 
           1295      2.72962e+7 
           1305      2.66826e+7 
           1315      4.09773e+7 
           1325      5.01634e+7 
           1335      5.56018e+7 
           1345      6.62964e+7 
           1355      6.31239e+7 
           1365      6.24632e+7 
           1375      6.14225e+7 
           1385      5.29598e+7 
           1395      5.21297e+7 
           1405      6.91807e+7 
           1415      8.38308e+7 
           1425      9.04837e+7 
           1435      8.34495e+7 
           1442      9.45391e+7 
           1447      9.66469e+7 
           1455      9.96159e+7 
           1465      9.28542e+7 
           1475      9.25293e+7 
           1485      9.37354e+7 
           1495      9.80665e+7 
           1505      1.00078e+8 
           1512      9.57716e+7 
           1517      9.95073e+7 
           1525      9.61252e+7 
           1535      9.57003e+7 
           1545      9.89224e+7 
           1555      8.67217e+7 
           1565      7.33963e+7 
           1575      8.66518e+7 
           1585      9.15526e+7 
           1595      9.50018e+7 
           1605      9.10898e+7 
           1615      9.42493e+7 
           1625      8.94991e+7 
           1635      9.46127e+7 
           1645      1.03446e+8 
           1655      8.61876e+7 
           1665      1.03757e+8 
           1672      8.72415e+7 
           1677      9.82342e+7 
           1685      1.05272e+8 
           1695      9.69011e+7 
           1705      9.67138e+7 
           1715      1.00067e+8 
           1725      9.79886e+7 
           1735      1.01897e+8 
           1745       9.8831e+7 
           1755      1.03219e+8 
           1765      9.31198e+7 
           1775      1.00625e+8 
           1785      9.93509e+7 
           1795      1.04175e+8 
           1805      9.97377e+7 
           1815      9.87949e+7 
           1825      9.53003e+7 
           1835       9.5136e+7 
           1845      8.97371e+7 
           1855      9.25175e+7 
           1865      9.33791e+7 
           1875      9.48782e+7 
           1885      9.47129e+7 
           1895      9.37789e+7 
           1905      9.05691e+7 
           1915      9.21384e+7 
           1925      9.29201e+7 
           1935      8.97838e+7 
           1945      9.39905e+7 
           1955      9.30383e+7 
           1967      9.35395e+7 
           1976      9.10096e+7 
           1984      8.98627e+7 
           1995      8.87921e+7 
           2005      8.67756e+7 
           2015      8.47641e+7 
           2025      8.37029e+7 
           2035       8.6331e+7 
           2045      8.70427e+7 
           2055      8.40861e+7 
           2065      8.34424e+7 
           2074      8.56222e+7 
           2078       8.6708e+7 
           2085      8.61173e+7 
           2095      8.37203e+7 
           2105      8.29149e+7 
           2115       8.2718e+7 
           2125      8.27021e+7 
           2135      7.63017e+7 
           2145      8.13603e+7 
           2155      8.05681e+7 
           2165      7.76168e+7 
           2175      7.69844e+7 
           2185      7.71817e+7 
           2195      8.00917e+7 
           2205      7.72849e+7 
           2215      7.29843e+7 
           2225       7.3144e+7 
           2235      7.80123e+7 
           2245      7.33886e+7 
           2255      7.16849e+7 
           2265       7.0988e+7 
           2275      7.42741e+7 
           2285      7.52777e+7 
           2295      7.18121e+7 
           2305      7.18002e+7 
           2315      7.07313e+7 
           2325      7.08281e+7 
           2335      6.98703e+7 
           2345      6.51529e+7 
           2355      6.97551e+7 
           2365      6.55428e+7 
           2375      6.78238e+7 
           2385      6.21552e+7 
           2395      6.61638e+7 
           2405      6.42977e+7 
           2415      6.49756e+7 
           2425      6.66702e+7 
           2435      6.40905e+7 
           2445      6.65733e+7 
           2455       6.5107e+7 
           2465       6.4245e+7 
           2475      6.22324e+7 
           2485      6.44901e+7 
           2495      6.28788e+7 
           2505      6.63762e+7 
           2513      6.31922e+7 
           2518      6.30306e+7 
           2525      5.99399e+7 
           2535      5.95676e+7 
           2545      5.95134e+7 
           2555      6.24302e+7 
           2565       6.2162e+7 
           2575      6.44925e+7 
           2585       6.4671e+7 
           2595      6.44477e+7 
           2605      6.24272e+7 
           2615      6.19837e+7 
           2625      6.29721e+7 
           2635       6.3298e+7 
           2645      6.69452e+7 
           2655      6.63135e+7 
           2665      6.36951e+7 
           2675      6.47676e+7 
           2685      6.52476e+7 
           2695      6.32134e+7 
           2705      6.33853e+7 
           2715      6.15546e+7 
           2725      6.15248e+7 
           2735      6.36442e+7 
           2745      5.86066e+7 
           2755       5.8847e+7 
           2765      6.05509e+7 
           2775      6.23216e+7 
           2785      6.14912e+7 
           2795      5.38762e+7 
           2805      5.75147e+7 
           2815      6.28451e+7 
           2825       6.2401e+7 
           2835      6.09819e+7 
           2845      5.97022e+7 
           2855      5.84805e+7 
           2865      6.00465e+7 
           2875      5.92466e+7 
           2885      6.01402e+7 
           2895      5.97164e+7 
           2910      6.17316e+7 
           2930      5.99307e+7 
           2950      5.95797e+7 
           2970      5.95232e+7 
           2990       5.9349e+7 
           3010      5.96149e+7 
           3030      5.92737e+7 
           3050      5.87702e+7 
           3070      5.81708e+7 
           3090      5.81778e+7 
           3110      5.75605e+7 
           3130      5.70772e+7 
           3150      5.70305e+7 
           3170      5.66768e+7 
           3190      5.53168e+7 
           3210      5.56862e+7 
           3230      5.49193e+7 
           3250      5.50159e+7 
           3270      5.50742e+7 
           3290      5.49427e+7 
           3310      5.47621e+7 
           3330      5.39976e+7 
           3350      5.32507e+7 
           3370      5.31446e+7 
           3390      5.26866e+7 
           3410      5.28641e+7 
           3430      5.25248e+7 
           3450      5.22183e+7 
           3470      5.18027e+7 
           3490      5.15447e+7 
           3510      5.14268e+7 
           3530      5.11995e+7 
           3550      5.09261e+7 
           3570       5.0363e+7 
           3590       5.0084e+7 
           3610      4.97821e+7 
           3630      4.95238e+7 
           3640       4.9363e+7 
           3650      4.95849e+7 
           3670      4.94571e+7 
           3690      4.80564e+7 
           3710      4.76629e+7 
           3730      4.68932e+7 
           3750      5.62208e+7 
           3770      5.92227e+7 
           3790      7.21719e+7 
           3810      8.57783e+7 
           3830      6.82941e+7 
           3850      9.69597e+7 
           3870      1.12597e+8 
           3890      5.89439e+7 
           3910      1.13353e+8 
           3930      1.26101e+8 
           3950      1.13119e+8 
           3970      5.68289e+7 
           3990      1.06376e+8 
           4010      1.27684e+8 
           4030      1.29568e+8 
           4050      1.27258e+8 
           4070      1.18007e+8 
           4090      8.31038e+7 
           4110      6.26265e+7 
           4130      1.09417e+8 
           4150      1.18884e+8 
           4170       1.1972e+8 
           4190      1.18859e+8 
           4210      1.17497e+8 
           4230      1.15388e+8 
           4250      1.14004e+8 
           4270      1.11598e+8 
           4290      1.08603e+8 
           4310      9.94811e+7 
           4330      6.83035e+7 
           4350      5.79095e+7 
           4370      9.42075e+7 
           4390      1.00971e+8 
           4410      1.01973e+8 
           4430      1.01574e+8 
           4450      1.00869e+8 
           4470      9.96403e+7 
           4490      9.77249e+7 
           4510      9.73972e+7 
           4530      9.61169e+7 
           4550      9.45386e+7 
           4570       9.3942e+7 
           4590      9.25797e+7 
           4610      9.18207e+7 
           4630      9.03983e+7 
           4650      8.95596e+7 
           4670      8.84348e+7 
           4690      8.69594e+7 
           4710      8.49387e+7 
           4730      8.49544e+7 
           4750      8.37963e+7 
           4770      8.24775e+7 
           4790       8.0874e+7 
           4810      7.83189e+7 
           4830      7.23296e+7 
           4850      5.30136e+7 
           4870      4.30563e+7 
           4890      6.71515e+7 
           4910      7.31578e+7 
           4930      7.38783e+7 
           4950      7.39898e+7 
           4970      7.35145e+7 
           4990      7.27508e+7 
           5010      7.17209e+7 
           5030      7.12544e+7 
           5050      7.03721e+7 
           5070      6.97637e+7 
           5090      6.89694e+7 
           5110      6.81911e+7 
           5130      6.74027e+7 
           5150      6.66089e+7 
           5170      6.52954e+7 
           5190      6.47833e+7 
           5210      6.43924e+7 
           5230      6.35235e+7 
           5250      6.30199e+7 
           5270      6.20989e+7 
           5290      6.16208e+7 
           5310      6.08489e+7 
           5330      6.01756e+7 
           5350      5.96291e+7 
           5370       5.8935e+7 
           5390       5.8313e+7 
           5410      5.76291e+7 
           5430      5.70533e+7 
           5450      5.64628e+7 
           5470      5.58593e+7 
           5490      5.52768e+7 
           5510      5.46901e+7 
           5530      5.40747e+7 
           5550      5.35402e+7 
           5570      5.29596e+7 
           5590      5.23957e+7 
           5610      5.18564e+7 
           5630      5.13246e+7 
           5650      5.07837e+7 
           5670      5.02503e+7 
           5690      4.97347e+7 
           5710      4.92206e+7 
           5730      4.87227e+7 
           5750      4.82111e+7 
           5770      4.77202e+7 
           5790      4.72315e+7 
           5810      4.67506e+7 
           5830      4.62764e+7 
           5850      4.58042e+7 
           5870      4.53122e+7 
           5890      4.47357e+7 
           5910      4.44302e+7 
           5930      4.39864e+7 
           5950       4.3539e+7 
           5970      4.31093e+7 
           5990      4.26717e+7 
           6010      4.22464e+7 
           6030      4.18371e+7 
           6050       4.1424e+7 
           6070      4.10206e+7 
           6090      4.06176e+7 
           6110      4.02189e+7 
           6130      3.98175e+7 
           6150      3.93767e+7 
           6170      3.90426e+7 
           6190      3.86797e+7 
           6210      3.83068e+7 
           6230      3.79341e+7 
           6250      3.75345e+7 
           6270       3.7215e+7 
           6290      3.68597e+7 
           6310      3.64977e+7 
           6330      3.61555e+7 
           6350       3.5731e+7 
           6370      3.54272e+7 
           6390      3.51209e+7 
           6410      3.47187e+7 
           6430      3.43682e+7 
           6450       3.3957e+7 
           6470      3.35818e+7 
           6490       3.3072e+7 
           6510      3.23322e+7 
           6530      3.07464e+7 
           6550      2.58629e+7 
           6570      2.10032e+7 
           6590      2.85817e+7 
           6610      3.05128e+7 
           6630      3.08887e+7 
           6650      3.08522e+7 
           6670      3.06802e+7 
           6690      3.04634e+7 
           6710      3.02226e+7 
           6730      2.99975e+7 
           6750      2.97423e+7 
           6770      2.94887e+7 
           6790      2.92246e+7 
           6810       2.8963e+7 
           6830      2.86999e+7 
           6850      2.84467e+7 
           6870      2.81951e+7 
           6890      2.79452e+7 
           6910      2.76992e+7 
           6930      2.74533e+7 
           6950      2.72128e+7 
           6970      2.69731e+7 
           6990       2.6738e+7 
           7010      2.64967e+7 
           7030        2.627e+7 
           7050       2.6043e+7 
           7070      2.58183e+7 
           7090      2.55964e+7 
           7110      2.53304e+7 
           7130      2.51492e+7 
           7150       2.4935e+7 
           7170      2.47243e+7 
           7190      2.45119e+7 
           7210      2.43036e+7 
           7230      2.40965e+7 
           7250      2.38878e+7 
           7270      2.36902e+7 
           7290      2.34867e+7 
           7310      2.32893e+7 
           7330      2.30936e+7 
           7350      2.29019e+7 
           7370      2.27098e+7 
           7390       2.2518e+7 
           7410       2.2326e+7 
           7430      2.21336e+7 
           7450      2.19552e+7 
           7470      2.17608e+7 
           7490       2.1587e+7 
           7510      2.14161e+7 
           7530       2.1242e+7 
           7550      2.10695e+7 
           7570      2.08965e+7 
           7590      2.07257e+7 
           7610      2.05564e+7 
           7630      2.03886e+7 
           7650       2.0221e+7 
           7670      2.00542e+7 
           7690      1.98946e+7 
           7710      1.97319e+7 
           7730      1.95764e+7 
           7750      1.94178e+7 
           7770      1.90696e+7 
           7790      1.91084e+7 
           7810      1.89556e+7 
           7830      1.88018e+7 
           7850      1.86486e+7 
           7870      1.84858e+7 
           7890      1.83293e+7 
           7910      1.82084e+7 
           7930      1.80658e+7 
           7950      1.79142e+7 
           7970       1.7787e+7 
           7990      1.76149e+7 
           8010      1.75077e+7 
           8030      1.73703e+7 
           8050      1.72353e+7 
           8070      1.71008e+7 
           8090       1.6968e+7 
           8110      1.68374e+7 
           8130      1.67074e+7 
           8150      1.65784e+7 
           8170      1.64511e+7 
           8190      1.63034e+7 
           8210      1.62297e+7 
           8230      1.61103e+7 
           8250       1.5993e+7 
           8270      1.59069e+7 
           8290      1.57941e+7 
           8310      1.56849e+7 
           8330      1.55445e+7 
           8350      1.54631e+7 
           8370      1.53484e+7 
           8390      1.52261e+7 
           8410      1.51026e+7 
           8430      1.49759e+7 
           8450      1.47964e+7 
           8470      1.46342e+7 
           8490      1.46416e+7 
           8510      1.42025e+7 
           8530      1.44694e+7 
           8550      1.35876e+7 
           8570       1.4429e+7 
           8590      1.36089e+7 
           8610      1.33506e+7 
           8630      1.43804e+7 
           8650      1.37364e+7 
           8670      1.18814e+7 
           8690       1.3964e+7 
           8710      1.44263e+7 
           8730      1.37231e+7 
           8750       1.1054e+7 
           8770       1.2981e+7 
           8790      1.42585e+7 
           8810      1.44423e+7 
           8830      1.39663e+7 
           8850      1.21798e+7 
           8870      1.04553e+7 
           8890      1.30734e+7 
           8910      1.39738e+7 
           8930      1.41914e+7 
           8950       1.4145e+7 
           8970      1.37519e+7 
           8990      1.27543e+7 
           9010       1.0131e+7 
           9030       1.0976e+7 
           9050      1.28259e+7 
           9070      1.33427e+7 
           9090      1.34286e+7 
           9110      1.35427e+7 
           9130      1.35001e+7 
           9150      1.33489e+7 
           9170      1.30771e+7 
           9190      1.25389e+7 
