# Kurucz ODFNEW /NOVER (2003)
# teff = 28000 K (value for the effective temperature for the model. Temperatures are given in K)
# logg = 4.5 log(cm/s2) (value for Log(G) for the model.)
# meta = 0  (value for the Metallicity for the model.)
# lh = 1.25  (l/Hp where l is the  mixing length of the convective element and Hp is the pressure scale height)
# vtur = 2 km/s (Microturbulence velocity)
# alpha = 0.4  (Alpha)
#
# column 1: WAVELENGTH (ANGSTROM), Wavelength in Angstrom
# column 2: FLUX (ERG/CM2/S/A), Flux in erg/cm2/s/A
          147.2     5.24883e-11 
            151     1.81252e-10 
          155.2     6.67279e-10 
          158.8      1.93822e-9 
            162      4.82396e-9 
            166      1.44097e-8 
          170.3      4.41703e-8 
          173.4      9.65192e-8 
          176.8      2.20398e-7 
          180.2       4.8952e-7 
          181.7      6.89298e-7 
          186.1      1.83202e-6 
            191      5.19197e-6 
          193.9      9.39759e-6 
          198.4      2.28674e-5 
          201.8      4.37145e-5 
            205      7.89998e-5 
          210.5     0.000210308 
          216.2     0.000552226 
          219.8     0.000991885 
            223      0.00164467 
          226.8      0.00298281 
            230        0.162385 
            234        0.348899 
            240        0.725008 
          246.5         1.55411 
          252.4         3.02965 
          256.8         4.66794 
            260         7.06591 
            264         10.2734 
          268.5         16.3971 
          273.5         26.3818 
          278.5         41.1602 
            284         74.9853 
            290         122.941 
            296         198.375 
            301         289.222 
            308         518.567 
            318         1118.63 
            328         2083.53 
            338         4043.17 
            348         7264.63 
            357         34250.3 
            366         74248.5 
            375          105286 
            385          170727 
            395          358536 
            405          502719 
            414          746773 
            422          938291 
            430      1.25201e+6 
            441      1.74455e+6 
            451      2.26926e+6 
            460      2.79609e+6 
            470      3.71272e+6 
            480      4.73986e+6 
            490      6.06721e+6 
            500       7.6235e+6 
            506      2.78888e+7 
            512      1.72827e+8 
            520      1.77553e+8 
            530      1.93005e+8 
            540      1.87615e+8 
            550      2.63673e+8 
            560      3.07931e+8 
            570      3.43671e+8 
            580      3.19738e+8 
            590      3.97184e+8 
            600      4.00223e+8 
            610      4.64528e+8 
            620      5.05596e+8 
            630      5.20644e+8 
            640      4.82491e+8 
            650      4.67269e+8 
            658      5.38516e+8 
            665      6.12376e+8 
            675      6.32021e+8 
            685      6.15766e+8 
            695       7.9655e+8 
            705      7.56908e+8 
            716      8.81168e+8 
            726      8.81005e+8 
            735      9.14862e+8 
            745      1.01054e+9 
            755      1.04449e+9 
            765      1.10478e+9 
            775      1.16037e+9 
            785      1.22484e+9 
            795      1.23833e+9 
            805      1.26374e+9 
            815      1.27806e+9 
            825      1.37219e+9 
            835      1.15722e+9 
            845       1.3786e+9 
            855      1.39231e+9 
            865      1.46201e+9 
            875      1.52193e+9 
            885      1.61355e+9 
            895      1.66513e+9 
            905      1.64169e+9 
            915       1.9582e+9 
            925      9.36336e+9 
            935      2.0592e+10 
            945     3.93416e+10 
            955     4.81143e+10 
            965     5.87451e+10 
            975     1.31115e+10 
            985     5.04157e+10 
            995     4.59027e+10 
           1005     5.09654e+10 
           1015      5.2098e+10 
           1025     2.72532e+10 
           1035     4.42063e+10 
           1045     6.08411e+10 
           1055     5.63254e+10 
           1065     4.39796e+10 
           1075     5.00078e+10 
           1085     4.59541e+10 
           1095     5.06799e+10 
           1105     4.55151e+10 
           1115     4.35206e+10 
           1125     3.26357e+10 
           1135     4.45738e+10 
           1145     3.98504e+10 
           1155     4.02929e+10 
           1165      4.0337e+10 
           1175     2.47418e+10 
           1185      3.7294e+10 
           1195     3.44459e+10 
           1205     2.49405e+10 
           1215       1.845e+10 
           1225     3.11827e+10 
           1235     3.53876e+10 
           1245     3.43013e+10 
           1255     3.37736e+10 
           1265     3.43223e+10 
           1275     3.51672e+10 
           1285     3.46927e+10 
           1295     2.51733e+10 
           1305     2.71029e+10 
           1315     3.34829e+10 
           1325     3.12649e+10 
           1335     3.05341e+10 
           1345     2.98318e+10 
           1355     2.99574e+10 
           1365     2.74354e+10 
           1375     2.64301e+10 
           1385     2.53722e+10 
           1395     1.62468e+10 
           1405     1.84452e+10 
           1415     2.30189e+10 
           1425     2.20087e+10 
           1435     2.29983e+10 
           1442     2.35637e+10 
           1447     2.31654e+10 
           1455     2.22316e+10 
           1465     2.07495e+10 
           1475      2.1051e+10 
           1485     2.06591e+10 
           1495     2.01426e+10 
           1505     1.82491e+10 
           1512     1.68117e+10 
           1517     1.72314e+10 
           1525     1.74934e+10 
           1535     1.47918e+10 
           1545     1.41033e+10 
           1555     1.36561e+10 
           1565     1.48338e+10 
           1575     1.57321e+10 
           1585     1.55672e+10 
           1595     1.55636e+10 
           1605     1.54317e+10 
           1615     1.48512e+10 
           1625     1.47703e+10 
           1635     1.53991e+10 
           1645     1.53391e+10 
           1655     1.51626e+10 
           1665     1.51481e+10 
           1672     1.43949e+10 
           1677      1.5977e+10 
           1685     1.53121e+10 
           1695     1.45236e+10 
           1705     1.40867e+10 
           1715     1.34196e+10 
           1725     1.29758e+10 
           1735     1.34223e+10 
           1745     1.32405e+10 
           1755     1.31646e+10 
           1765      1.2982e+10 
           1775     1.21797e+10 
           1785     1.23357e+10 
           1795      1.2526e+10 
           1805     1.25622e+10 
           1815     1.14704e+10 
           1825     1.17601e+10 
           1835     1.14007e+10 
           1845     1.03761e+10 
           1855      1.0597e+10 
           1865     1.07206e+10 
           1875     1.08562e+10 
           1885      9.80707e+9 
           1895       9.1644e+9 
           1905      9.81327e+9 
           1915       9.2989e+9 
           1925      8.77281e+9 
           1935      9.31112e+9 
           1945      9.52602e+9 
           1955      8.54713e+9 
           1967      9.17664e+9 
           1976      9.63316e+9 
           1984      8.88185e+9 
           1995      8.74915e+9 
           2005      8.96179e+9 
           2015      8.89524e+9 
           2025       9.0337e+9 
           2035      8.32253e+9 
           2045      8.40069e+9 
           2055      7.86158e+9 
           2065      7.83819e+9 
           2074      8.09252e+9 
           2078      7.54142e+9 
           2085      7.83673e+9 
           2095      7.53094e+9 
           2105      7.85269e+9 
           2115      7.85828e+9 
           2125      7.88252e+9 
           2135       7.7258e+9 
           2145       7.3816e+9 
           2155      7.61048e+9 
           2165      7.51196e+9 
           2175      7.40331e+9 
           2185      7.21402e+9 
           2195      7.25533e+9 
           2205      7.20385e+9 
           2215      7.07406e+9 
           2225      6.90256e+9 
           2235      6.77962e+9 
           2245      6.80105e+9 
           2255      6.59862e+9 
           2265       6.6275e+9 
           2275        6.527e+9 
           2285      6.43955e+9 
           2295      5.87379e+9 
           2305      6.22001e+9 
           2315      6.08351e+9 
           2325      6.01784e+9 
           2335      5.86891e+9 
           2345      5.90542e+9 
           2355       5.8384e+9 
           2365      5.77768e+9 
           2375      5.64056e+9 
           2385      5.57992e+9 
           2395       5.5015e+9 
           2405      5.43207e+9 
           2415      5.34241e+9 
           2425      5.31958e+9 
           2435      5.17693e+9 
           2445      5.15552e+9 
           2455      5.12299e+9 
           2465      5.05596e+9 
           2475      4.96746e+9 
           2485      4.84966e+9 
           2495      3.92505e+9 
           2505      4.65582e+9 
           2513      4.51753e+9 
           2518      4.61553e+9 
           2525      4.63707e+9 
           2535      4.60671e+9 
           2545      4.40807e+9 
           2555      4.44946e+9 
           2565      4.37436e+9 
           2575      4.37885e+9 
           2585      4.32722e+9 
           2595      4.27978e+9 
           2605      4.24188e+9 
           2615      4.17716e+9 
           2625      4.14184e+9 
           2635      4.09196e+9 
           2645       4.0333e+9 
           2655        3.991e+9 
           2665      3.85411e+9 
           2675      3.84904e+9 
           2685      3.84279e+9 
           2695      3.70939e+9 
           2705      3.65401e+9 
           2715      3.64534e+9 
           2725      3.61244e+9 
           2735      3.57817e+9 
           2745       3.5207e+9 
           2755      3.49781e+9 
           2765      3.44161e+9 
           2775      3.45854e+9 
           2785       3.3961e+9 
           2795      3.26435e+9 
           2805      3.29723e+9 
           2815       3.2999e+9 
           2825      3.24184e+9 
           2835       3.1434e+9 
           2845      3.18013e+9 
           2855      3.11819e+9 
           2865      3.10091e+9 
           2875      3.06146e+9 
           2885      3.02946e+9 
           2895      2.98402e+9 
           2910      2.90934e+9 
           2930      2.87582e+9 
           2950      2.78834e+9 
           2970      2.74668e+9 
           2990      2.67622e+9 
           3010      2.57437e+9 
           3030      2.54969e+9 
           3050      2.51308e+9 
           3070      2.47665e+9 
           3090      2.36759e+9 
           3110       2.3631e+9 
           3130      2.29543e+9 
           3150      2.25992e+9 
           3170      2.20349e+9 
           3190      2.15403e+9 
           3210      2.12522e+9 
           3230      2.06891e+9 
           3250      2.03928e+9 
           3270      1.99028e+9 
           3290         1.95e+9 
           3310      1.91327e+9 
           3330      1.86957e+9 
           3350       1.8361e+9 
           3370      1.79569e+9 
           3390      1.76968e+9 
           3410      1.73518e+9 
           3430      1.69954e+9 
           3450      1.65922e+9 
           3470      1.62783e+9 
           3490      1.59444e+9 
           3510      1.56843e+9 
           3530      1.54641e+9 
           3550      1.51487e+9 
           3570      1.49242e+9 
           3590      1.44815e+9 
           3610      1.42828e+9 
           3630      1.40012e+9 
           3640      1.39855e+9 
           3650       1.3763e+9 
           3670      1.36045e+9 
           3690      1.33575e+9 
           3710       1.2828e+9 
           3730      1.23629e+9 
           3750      1.24406e+9 
           3770      1.21616e+9 
           3790      1.26614e+9 
           3810      1.30754e+9 
           3830      1.15334e+9 
           3850      1.32006e+9 
           3870      1.30919e+9 
           3890      1.08587e+9 
           3910      1.31105e+9 
           3930      1.27323e+9 
           3950      1.24941e+9 
           3970      1.00755e+9 
           3990      1.20993e+9 
           4010      1.20822e+9 
           4030      1.14077e+9 
           4050      1.16904e+9 
           4070      1.10734e+9 
           4090      1.02814e+9 
           4110      9.23553e+8 
           4130      1.05987e+9 
           4150      1.05489e+9 
           4170      1.05365e+9 
           4190      1.03797e+9 
           4210      1.02928e+9 
           4230       1.0057e+9 
           4250      9.73688e+8 
           4270      9.46984e+8 
           4290      9.31583e+8 
           4310      9.02272e+8 
           4330      8.31727e+8 
           4350       7.6405e+8 
           4370      8.61036e+8 
           4390      8.51781e+8 
           4410       8.4909e+8 
           4430      8.44492e+8 
           4450      8.27444e+8 
           4470      7.86797e+8 
           4490      8.01611e+8 
           4510      7.96907e+8 
           4530      7.85094e+8 
           4550      7.72548e+8 
           4570      7.58892e+8 
           4590      7.44836e+8 
           4610      7.27503e+8 
           4630      7.17524e+8 
           4650      6.91102e+8 
           4670      6.94955e+8 
           4690      6.88783e+8 
           4710      6.59834e+8 
           4730      6.68427e+8 
           4750      6.56315e+8 
           4770      6.55144e+8 
           4790      6.43692e+8 
           4810      6.28824e+8 
           4830      6.14277e+8 
           4850      5.72353e+8 
           4870      5.14513e+8 
           4890      5.88692e+8 
           4910      5.83563e+8 
           4930      5.62934e+8 
           4950      5.64637e+8 
           4970      5.62938e+8 
           4990       5.5376e+8 
           5010      5.31321e+8 
           5030      5.35979e+8 
           5050      5.24208e+8 
           5070       5.2266e+8 
           5090      5.13253e+8 
           5110      5.05319e+8 
           5130      4.96148e+8 
           5150      4.89944e+8 
           5170      4.84257e+8 
           5190      4.78407e+8 
           5210      4.70258e+8 
           5230      4.65291e+8 
           5250      4.58882e+8 
           5270      4.51499e+8 
           5290       4.4622e+8 
           5310      4.39739e+8 
           5330      4.33753e+8 
           5350      4.27146e+8 
           5370      4.22259e+8 
           5390      4.15786e+8 
           5410      4.10529e+8 
           5430      4.04763e+8 
           5450      3.98818e+8 
           5470      3.93577e+8 
           5490       3.8869e+8 
           5510      3.84024e+8 
           5530      3.78234e+8 
           5550      3.73886e+8 
           5570      3.68741e+8 
           5590      3.64057e+8 
           5610      3.59012e+8 
           5630      3.54695e+8 
           5650      3.48624e+8 
           5670       3.4297e+8 
           5690      3.37526e+8 
           5710      3.35062e+8 
           5730      3.31557e+8 
           5750      3.25939e+8 
           5770      3.23604e+8 
           5790      3.19214e+8 
           5810      3.15157e+8 
           5830      3.10549e+8 
           5850      3.07064e+8 
           5870      2.94381e+8 
           5890      2.97054e+8 
           5910      2.94702e+8 
           5930       2.9095e+8 
           5950      2.87039e+8 
           5970      2.85024e+8 
           5990      2.80383e+8 
           6010      2.77728e+8 
           6030      2.73858e+8 
           6050      2.70794e+8 
           6070      2.67776e+8 
           6090      2.64516e+8 
           6110      2.61324e+8 
           6130      2.58309e+8 
           6150      2.54032e+8 
           6170      2.51388e+8 
           6190      2.48901e+8 
           6210      2.46108e+8 
           6230       2.4324e+8 
           6250      2.39901e+8 
           6270      2.37233e+8 
           6290      2.34603e+8 
           6310      2.31557e+8 
           6330      2.29165e+8 
           6350      2.25734e+8 
           6370      2.23706e+8 
           6390      2.21081e+8 
           6410      2.18493e+8 
           6430      2.16197e+8 
           6450        2.136e+8 
           6470      2.10329e+8 
           6490      2.08149e+8 
           6510      2.05823e+8 
           6530      2.02373e+8 
           6550      1.94035e+8 
           6570      1.72215e+8 
           6590      1.93951e+8 
           6610      1.94141e+8 
           6630      1.92535e+8 
           6650      1.90169e+8 
           6670      1.86405e+8 
           6690      1.84425e+8 
           6710      1.84197e+8 
           6730      1.81657e+8 
           6750      1.80276e+8 
           6770      1.78308e+8 
           6790      1.75217e+8 
           6810      1.74173e+8 
           6830      1.72056e+8 
           6850      1.70531e+8 
           6870      1.68645e+8 
           6890      1.66525e+8 
           6910      1.64395e+8 
           6930      1.63251e+8 
           6950      1.61564e+8 
           6970      1.59832e+8 
           6990      1.58086e+8 
           7010      1.56357e+8 
           7030      1.54676e+8 
           7050      1.53072e+8 
           7070      1.49034e+8 
           7090      1.49851e+8 
           7110       1.4769e+8 
           7130      1.46195e+8 
           7150      1.45128e+8 
           7170      1.43667e+8 
           7190      1.42206e+8 
           7210      1.40722e+8 
           7230      1.37545e+8 
           7250      1.37454e+8 
           7270      1.36385e+8 
           7290      1.33887e+8 
           7310      1.33564e+8 
           7330      1.32177e+8 
           7350      1.30859e+8 
           7370      1.29553e+8 
           7390      1.28239e+8 
           7410      1.26937e+8 
           7430      1.25586e+8 
           7450      1.24349e+8 
           7470        1.223e+8 
           7490      1.21769e+8 
           7510      1.20613e+8 
           7530      1.19322e+8 
           7550      1.18281e+8 
           7570      1.17111e+8 
           7590       1.1592e+8 
           7610      1.14537e+8 
           7630       1.1364e+8 
           7650      1.12505e+8 
           7670      1.11439e+8 
           7690      1.10332e+8 
           7710      1.09253e+8 
           7730      1.08102e+8 
           7750      1.07156e+8 
           7770      1.05656e+8 
           7790      1.05096e+8 
           7810      1.04033e+8 
           7830      1.03085e+8 
           7850      1.02089e+8 
           7870      1.00914e+8 
           7890      9.97618e+7 
           7910      9.91677e+7 
           7930      9.82068e+7 
           7950      9.72007e+7 
           7970      9.62687e+7 
           7990      9.52975e+7 
           8010      9.44641e+7 
           8030      9.35267e+7 
           8050      9.27021e+7 
           8070      9.18845e+7 
           8090      9.08897e+7 
           8110      8.94854e+7 
           8130      8.93478e+7 
           8150      8.84674e+7 
           8170      8.77695e+7 
           8190      8.63866e+7 
           8210      8.57315e+7 
           8230      8.48815e+7 
           8250      8.45258e+7 
           8270       8.2812e+7 
           8290      8.28624e+7 
           8310      8.22294e+7 
           8330      8.14876e+7 
           8350      8.03628e+7 
           8370       7.9791e+7 
           8390       7.9288e+7 
           8410      7.85118e+7 
           8430      7.78376e+7 
           8450      7.64723e+7 
           8470      7.64319e+7 
           8490      7.55444e+7 
           8510      7.48932e+7 
           8530      7.42266e+7 
           8550      7.31686e+7 
           8570      7.34173e+7 
