# Kurucz ODFNEW /NOVER (2003)
# teff = 7500 K (value for the effective temperature for the model. Temperatures are given in K)
# logg = 0.5 log(cm/s2) (value for Log(G) for the model.)
# meta = 0  (value for the Metallicity for the model.)
# lh = 1.25  (l/Hp where l is the  mixing length of the convective element and Hp is the pressure scale height)
# vtur = 2 km/s (Microturbulence velocity)
# alpha = 0  (Alpha)
#
# column 1: WAVELENGTH (ANGSTROM), Wavelength in Angstrom
# column 2: FLUX (ERG/CM2/S/A), Flux in erg/cm2/s/A
            395     2.33668e-23 
            405      1.9727e-22 
            414     1.09452e-21 
            422     4.67749e-21 
            430     1.88952e-20 
            441     1.18258e-19 
            451     5.78112e-19 
            460     2.26857e-18 
            470     9.72436e-18 
            480     3.91429e-17 
            490     1.48542e-16 
            500     5.33313e-16 
            506     1.06529e-15 
            512     2.27207e-15 
            520     5.80643e-15 
            530     1.82745e-14 
            540     5.42033e-14 
            550     1.54278e-13 
            560     4.22343e-13 
            570     1.11428e-12 
            580     2.79355e-12 
            590     6.99639e-12 
            600      1.6709e-11 
            610     3.87279e-11 
            620     8.72476e-11 
            630     1.91307e-10 
            640     4.08801e-10 
            650     8.52363e-10 
            658      1.50852e-9 
            665       2.4567e-9 
            675      4.84049e-9 
            685      9.33985e-9 
            695      1.76664e-8 
            705        3.122e-8 
            716      3.01387e-9 
            726      5.10656e-9 
            735      8.09701e-9 
            745      1.33125e-8 
            755       2.1579e-8 
            765      3.44951e-8 
            775      5.44002e-8 
            785      8.47454e-8 
            795      1.29096e-7 
            805      1.97066e-7 
            815      2.96806e-7 
            825        4.408e-7 
            835      6.47528e-7 
            845      9.41896e-7 
            855      1.35613e-6 
            865      1.93403e-6 
            875      2.72431e-6 
            885        3.826e-6 
            895      5.31261e-6 
            905      7.27447e-6 
            915      0.00606025 
            925       0.0193409 
            935       0.0250405 
            945       0.0341612 
            955       0.0497542 
            965       0.0666338 
            975       0.0846925 
            985        0.110733 
            995        0.136943 
           1005        0.191456 
           1015        0.246122 
           1025        0.304923 
           1035        0.392019 
           1045        0.505399 
           1055        0.636702 
           1065        0.771644 
           1075        0.979521 
           1085         1.21497 
           1095         1.45567 
           1105         4.71473 
           1115         15.5131 
           1125         22.9349 
           1135         31.0981 
           1145          38.017 
           1155         41.1316 
           1165         53.0526 
           1175         57.2806 
           1185         64.0847 
           1195         20.6195 
           1205         17.4112 
           1215         4.25593 
           1225         20.8493 
           1235         58.3882 
           1245         142.178 
           1255         319.988 
           1265         329.545 
           1275         686.705 
           1285         1147.69 
           1295         1538.08 
           1305          1046.4 
           1315         2298.64 
           1325          3100.1 
           1335         3226.95 
           1345         4916.37 
           1355         5264.29 
           1365         5732.35 
           1375         6565.68 
           1385         7786.46 
           1395          9403.4 
           1405           10908 
           1415         10872.6 
           1425         13347.7 
           1435         13433.8 
           1442         15933.8 
           1447         18194.1 
           1455           21833 
           1465         22331.1 
           1475         24872.6 
           1485         29011.2 
           1495         34478.4 
           1505           38599 
           1512         37789.2 
           1517         43073.7 
           1525         45525.8 
           1535          269921 
           1545      1.01197e+6 
           1555          768673 
           1565          501486 
           1575          988544 
           1585      1.29651e+6 
           1595      2.02475e+6 
           1605      1.49359e+6 
           1615      1.20823e+6 
           1625          940402 
           1635       1.0016e+6 
           1645      1.45038e+6 
           1655          799157 
           1665      1.07965e+6 
           1672          141281 
           1677      1.50487e+6 
           1685      2.67617e+6 
           1695      2.82997e+6 
           1705      2.12817e+6 
           1715      2.86426e+6 
           1725      3.32769e+6 
           1735      4.32906e+6 
           1745      3.57921e+6 
           1755      5.05584e+6 
           1765      3.87465e+6 
           1775      5.22211e+6 
           1785      4.11748e+6 
           1795      6.59447e+6 
           1805      5.49815e+6 
           1815        6.335e+6 
           1825      5.30433e+6 
           1835      4.66903e+6 
           1845      4.47479e+6 
           1855      5.15736e+6 
           1865      5.68924e+6 
           1875      5.57782e+6 
           1885       5.8215e+6 
           1895      6.46688e+6 
           1905      5.73613e+6 
           1915      6.06891e+6 
           1925      6.42335e+6 
           1935      4.82957e+6 
           1945      7.07795e+6 
           1955      7.23213e+6 
           1967      8.01649e+6 
           1976      7.91102e+6 
           1984      7.61622e+6 
           1995      7.42616e+6 
           2005      6.89439e+6 
           2015      6.05202e+6 
           2025      5.91155e+6 
           2035        7.001e+6 
           2045      7.93145e+6 
           2055      6.56512e+6 
           2065      6.22048e+6 
           2074      8.45292e+6 
           2078      8.90505e+6 
           2085      8.48858e+6 
           2095      7.92312e+6 
           2105      7.34614e+6 
           2115      7.33941e+6 
           2125      7.69164e+6 
           2135      5.51297e+6 
           2145      7.01895e+6 
           2155      7.48863e+6 
           2165      6.31906e+6 
           2175      6.48462e+6 
           2185      6.74893e+6 
           2195      7.78109e+6 
           2205      7.20253e+6 
           2215       5.6814e+6 
           2225      5.36631e+6 
           2235      7.42799e+6 
           2245      6.49332e+6 
           2255      5.21647e+6 
           2265      5.24593e+6 
           2275      6.43172e+6 
           2285      6.86749e+6 
           2295      6.23085e+6 
           2305      6.45379e+6 
           2315      5.85358e+6 
           2325      5.46261e+6 
           2335      3.30364e+6 
           2345      2.43342e+6 
           2355      4.58635e+6 
           2365      2.35532e+6 
           2375      3.49892e+6 
           2385      1.76654e+6 
           2395      2.51809e+6 
           2405      2.34862e+6 
           2415      3.46762e+6 
           2425      6.09468e+6 
           2435      5.78619e+6 
           2445      6.34224e+6 
           2455      6.27817e+6 
           2465      5.85856e+6 
           2475      5.61482e+6 
           2485      5.90623e+6 
           2495      5.66405e+6 
           2505      7.45951e+6 
           2513      5.46616e+6 
           2518       6.2989e+6 
           2525      4.93086e+6 
           2535      4.87732e+6 
           2545      4.90537e+6 
           2555      5.95274e+6 
           2565      4.90951e+6 
           2575      5.78677e+6 
           2585      5.00173e+6 
           2595      4.26675e+6 
           2605      3.58846e+6 
           2615      3.34517e+6 
           2625      4.51591e+6 
           2635      5.98038e+6 
           2645      9.32127e+6 
           2655      9.37946e+6 
           2665      7.42137e+6 
           2675      8.21151e+6 
           2685       7.9106e+6 
           2695      7.67772e+6 
           2705      8.13541e+6 
           2715      6.80505e+6 
           2725      6.92261e+6 
           2735      7.42658e+6 
           2745      3.92592e+6 
           2755      4.85359e+6 
           2765       5.8156e+6 
           2775       7.2336e+6 
           2785      5.50409e+6 
           2795      1.89628e+6 
           2805      2.49254e+6 
           2815      6.74661e+6 
           2825      8.85292e+6 
           2835      8.42122e+6 
           2845      8.17967e+6 
           2855      7.35755e+6 
           2865      8.90577e+6 
           2875      8.49389e+6 
           2885      8.86782e+6 
           2895      8.26815e+6 
           2910      1.02194e+7 
           2930      9.56864e+6 
           2950      9.47311e+6 
           2970      1.03201e+7 
           2990      1.05226e+7 
           3010      1.10909e+7 
           3030      1.09512e+7 
           3050      1.08518e+7 
           3070      1.08663e+7 
           3090      1.14908e+7 
           3110      1.09594e+7 
           3130      1.08625e+7 
           3150      1.15659e+7 
           3170      1.14684e+7 
           3190      1.06117e+7 
           3210      1.13435e+7 
           3230       1.0791e+7 
           3250      1.14636e+7 
           3270      1.16783e+7 
           3290       1.1874e+7 
           3310      1.22518e+7 
           3330      1.18867e+7 
           3350      1.17056e+7 
           3370      1.15518e+7 
           3390      1.18489e+7 
           3410      1.23398e+7 
           3430      1.25604e+7 
           3450      1.24896e+7 
           3470      1.22337e+7 
           3490      1.20392e+7 
           3510       1.2631e+7 
           3530      1.28566e+7 
           3550      1.32203e+7 
           3570      1.25748e+7 
           3590       1.2678e+7 
           3610      1.27767e+7 
           3630      1.30028e+7 
           3640      1.27031e+7 
           3650      1.33095e+7 
           3670      1.33516e+7 
           3690      1.52113e+7 
           3710      2.17951e+7 
           3730       3.6628e+7 
           3750      4.48619e+7 
           3770      4.51532e+7 
           3790      4.98526e+7 
           3810      5.35349e+7 
           3830      4.56681e+7 
           3850      5.32848e+7 
           3870      5.42271e+7 
           3890      4.65506e+7 
           3910      5.16151e+7 
           3930         3.67e+7 
           3950      5.08503e+7 
           3970      3.72095e+7 
           3990       5.2808e+7 
           4010      5.26059e+7 
           4030      5.17812e+7 
           4050      5.14961e+7 
           4070      5.07411e+7 
           4090      5.19824e+7 
           4110       4.4408e+7 
           4130      5.01455e+7 
           4150      5.08467e+7 
           4170      4.89389e+7 
           4190      4.90136e+7 
           4210      4.85724e+7 
           4230      4.79815e+7 
           4250      4.78543e+7 
           4270      4.69215e+7 
           4290      4.72506e+7 
           4310      4.49148e+7 
           4330      4.46415e+7 
           4350      3.99117e+7 
           4370      4.61598e+7 
           4390      4.48019e+7 
           4410      4.37184e+7 
           4430      4.45167e+7 
           4450       4.4418e+7 
           4470      4.40855e+7 
           4490      4.38151e+7 
           4510      4.41331e+7 
           4530      4.28098e+7 
           4550      4.16609e+7 
           4570      4.30558e+7 
           4590      4.14708e+7 
           4610      4.29979e+7 
           4630      4.14726e+7 
           4650      4.21359e+7 
           4670        4.166e+7 
           4690      4.10314e+7 
           4710      3.97344e+7 
           4730      4.07024e+7 
           4750      4.08512e+7 
           4770      4.00557e+7 
           4790      3.97597e+7 
           4810      3.93532e+7 
           4830      3.88713e+7 
           4850       3.6668e+7 
           4870      3.06951e+7 
           4890      3.77043e+7 
           4910      3.75712e+7 
           4930      3.66082e+7 
           4950      3.69895e+7 
           4970      3.71362e+7 
           4990      3.59283e+7 
           5010      3.46064e+7 
           5030      3.51999e+7 
           5050      3.49467e+7 
           5070      3.50218e+7 
           5090      3.46759e+7 
           5110      3.43588e+7 
           5130      3.35417e+7 
           5150      3.30417e+7 
           5170       3.2289e+7 
           5190      3.20462e+7 
           5210      3.20796e+7 
           5230      3.15372e+7 
           5250      3.19152e+7 
           5270      3.05584e+7 
           5290      3.14398e+7 
           5310       3.0538e+7 
           5330      3.01939e+7 
           5350      3.08609e+7 
           5370      3.04159e+7 
           5390      2.99819e+7 
           5410      2.95173e+7 
           5430      2.92287e+7 
           5450      2.94864e+7 
           5470      2.91554e+7 
           5490      2.90146e+7 
           5510      2.85971e+7 
           5530      2.83376e+7 
           5550      2.84224e+7 
           5570      2.80438e+7 
           5590      2.78531e+7 
           5610      2.76992e+7 
           5630      2.74742e+7 
           5650      2.69756e+7 
           5670      2.67235e+7 
           5690      2.67617e+7 
           5710      2.65619e+7 
           5730      2.63974e+7 
           5750       2.6115e+7 
           5770      2.59161e+7 
           5790      2.56104e+7 
           5810      2.54132e+7 
           5830      2.51538e+7 
           5850      2.50107e+7 
           5870      2.47837e+7 
           5890      2.42161e+7 
           5910       2.4321e+7 
           5930       2.4108e+7 
           5950      2.38227e+7 
           5970      2.37067e+7 
           5990      2.33565e+7 
           6010      2.32086e+7 
           6030      2.30705e+7 
           6050      2.28307e+7 
           6070      2.26938e+7 
           6090      2.24292e+7 
           6110      2.21908e+7 
           6130      2.19439e+7 
           6150      2.13851e+7 
           6170      2.15861e+7 
           6190      2.15068e+7 
           6210      2.13607e+7 
           6230      2.10452e+7 
           6250      2.04121e+7 
           6270      2.08312e+7 
           6290      2.06342e+7 
           6310      2.02481e+7 
           6330      2.02285e+7 
           6350      1.99004e+7 
           6370      1.97506e+7 
           6390      1.97019e+7 
           6410       1.9426e+7 
           6430      1.93418e+7 
           6450      1.89522e+7 
           6470      1.91241e+7 
           6490      1.86584e+7 
           6510      1.86053e+7 
           6530      1.85189e+7 
           6550      1.73127e+7 
           6570      1.37094e+7 
           6590        1.789e+7 
           6610      1.78854e+7 
           6630      1.78711e+7 
           6650      1.77441e+7 
           6670      1.75676e+7 
           6690      1.74442e+7 
           6710      1.73136e+7 
           6730       1.7141e+7 
           6750      1.70106e+7 
           6770      1.69168e+7 
           6790      1.67446e+7 
           6810      1.66399e+7 
           6830        1.644e+7 
           6850      1.63401e+7 
           6870       1.6234e+7 
           6890      1.61081e+7 
           6910      1.59684e+7 
           6930      1.58309e+7 
           6950      1.57157e+7 
           6970      1.55753e+7 
           6990      1.54701e+7 
           7010      1.52401e+7 
           7030      1.52084e+7 
           7050      1.50896e+7 
           7070      1.49833e+7 
           7090      1.48726e+7 
           7110       1.4535e+7 
           7130      1.45743e+7 
           7150      1.44848e+7 
           7170      1.43821e+7 
           7190      1.42293e+7 
           7210      1.41288e+7 
           7230       1.3975e+7 
           7250      1.39138e+7 
           7270      1.38295e+7 
           7290      1.36772e+7 
           7310      1.35171e+7 
           7330      1.34624e+7 
           7350      1.33767e+7 
           7370      1.33292e+7 
           7390      1.31902e+7 
           7410      1.30484e+7 
           7430      1.29087e+7 
           7450      1.28388e+7 
           7470      1.26722e+7 
           7490      1.26308e+7 
           7510      1.25342e+7 
           7530      1.24996e+7 
           7550      1.24454e+7 
           7570      1.23166e+7 
           7590      1.22511e+7 
           7610      1.21667e+7 
           7630      1.20725e+7 
           7650      1.19316e+7 
           7670      1.18483e+7 
           7690      1.17862e+7 
           7710      1.16376e+7 
           7730      1.16241e+7 
           7750      1.15347e+7 
           7770      1.11815e+7 
           7790      1.13762e+7 
           7810       1.1289e+7 
           7830      1.11743e+7 
           7850      1.10514e+7 
           7870      1.09728e+7 
           7890       1.0864e+7 
           7910      1.08332e+7 
           7930      1.07714e+7 
           7950      1.06398e+7 
           7970      1.06499e+7 
           7990      1.04356e+7 
           8010      1.04828e+7 
           8030      1.03967e+7 
           8050      1.03381e+7 
           8070      1.02505e+7 
           8090      1.01821e+7 
           8110       1.0117e+7 
           8130      1.00565e+7 
           8150      9.98335e+6 
           8170      9.91196e+6 
           8190      9.72544e+6 
           8210      9.70438e+6 
           8230      9.63948e+6 
           8250      9.58062e+6 
           8270       9.6109e+6 
           8290      9.50593e+6 
           8310      9.38985e+6 
           8330      9.20094e+6 
           8350      9.33253e+6 
           8370      9.05191e+6 
           8390      9.19184e+6 
           8410      9.17906e+6 
           8430      9.48173e+6 
           8450      9.25909e+6 
           8470      9.08046e+6 
           8490      9.83478e+6 
           8510       8.8408e+6 
           8530      1.00291e+7 
           8550      8.31765e+6 
           8570      1.02732e+7 
           8590      9.80625e+6 
           8610      9.53663e+6 
           8630      1.04819e+7 
           8650      1.03348e+7 
           8670      8.32004e+6 
           8690      1.00613e+7 
           8710      1.02311e+7 
           8730      1.01186e+7 
           8750      8.60801e+6 
           8770      9.96721e+6 
           8790      1.00009e+7 
           8810      9.87302e+6 
           8830      9.70369e+6 
           8850      9.52616e+6 
           8870      8.29431e+6 
           8890      9.61605e+6 
           8910      9.51503e+6 
           8930      9.43183e+6 
           8950      9.45463e+6 
           8970      9.38582e+6 
           8990      9.26813e+6 
           9010      8.08218e+6 
           9030      8.83646e+6 
           9050      9.12173e+6 
           9070      8.83471e+6 
           9090      8.71654e+6 
           9110      8.84718e+6 
           9130      8.85004e+6 
           9150      8.83569e+6 
           9170      8.74343e+6 
           9190      8.63583e+6 
           9210      8.49355e+6 
           9230      7.17305e+6 
           9250       8.2657e+6 
           9270      8.21955e+6 
           9290      8.40071e+6 
           9310      8.35944e+6 
           9330      8.28729e+6 
           9350      8.25058e+6 
           9370      8.20467e+6 
           9390       8.0843e+6 
           9410      7.86192e+6 
           9430      7.97773e+6 
           9450      7.95666e+6 
           9470       7.9109e+6 
           9490      7.87634e+6 
           9510      7.81242e+6 
