# Kurucz ODFNEW /NOVER (2003)
# teff = 21000 K (value for the effective temperature for the model. Temperatures are given in K)
# logg = 5 log(cm/s2) (value for Log(G) for the model.)
# meta = 0.2  (value for the Metallicity for the model.)
# lh = 1.25  (l/Hp where l is the  mixing length of the convective element and Hp is the pressure scale height)
# vtur = 2 km/s (Microturbulence velocity)
# alpha = 0  (Alpha)
#
# column 1: WAVELENGTH (ANGSTROM), Wavelength in Angstrom
# column 2: FLUX (ERG/CM2/S/A), Flux in erg/cm2/s/A
          147.2     1.57978e-17 
            151     8.26059e-17 
          155.2     4.68225e-16 
          158.8     1.92432e-15 
            162     6.41965e-15 
            166     2.71378e-14 
          170.3     1.18456e-13 
          173.4     3.28697e-13 
          176.8     9.63775e-13 
          180.2      2.7156e-12 
          181.7     4.23481e-12 
          186.1     1.50003e-11 
            191     5.73619e-11 
          193.9     1.22727e-10 
          198.4      3.8283e-10 
          201.8     8.76344e-10 
            205      1.86639e-9 
          210.5      6.47961e-9 
          216.2       2.2061e-8 
          219.8      4.63386e-8 
            223      8.78018e-8 
          226.8      1.83457e-7 
            230      1.06125e-6 
            234      2.56719e-6 
            240       7.2854e-6 
          246.5      2.10858e-5 
          252.4      5.30058e-5 
          256.8     0.000100452 
            260     0.000162924 
            264     0.000286163 
          268.5     0.000527373 
          273.5      0.00101402 
          278.5       0.0019139 
            284      0.00376468 
            290      0.00758162 
            296        0.014808 
            301       0.0253716 
            308       0.0519282 
            318        0.140247 
            328        0.346618 
            338         0.82842 
            348         1.85994 
            357         3.82762 
            366         7.42851 
            375         13.6477 
            385         26.1963 
            395          48.443 
            405         86.7379 
            414         143.448 
            422         218.062 
            430         327.545 
            441         561.004 
            451         892.496 
            460         1323.45 
            470         2023.66 
            480         3025.28 
            490         4457.36 
            500         6450.06 
            506         45886.8 
            512          266267 
            520          333734 
            530          454315 
            540          526736 
            550          758839 
            560          915767 
            570      1.17483e+6 
            580      1.22426e+6 
            590      1.65605e+6 
            600      2.01383e+6 
            610      2.48433e+6 
            620      2.85654e+6 
            630       3.3283e+6 
            640      3.54591e+6 
            650      3.45129e+6 
            658       4.6674e+6 
            665      5.32435e+6 
            675      6.01709e+6 
            685       6.7057e+6 
            695      8.14177e+6 
            705      8.99557e+6 
            716      1.02946e+7 
            726       1.1356e+7 
            735      1.23934e+7 
            745      1.41556e+7 
            755      1.57479e+7 
            765      1.74761e+7 
            775      1.93626e+7 
            785      2.13429e+7 
            795      2.29408e+7 
            805      2.48859e+7 
            815      2.68244e+7 
            825      2.95848e+7 
            835      3.05587e+7 
            845      3.34961e+7 
            855      3.60014e+7 
            865      3.90941e+7 
            875       4.2454e+7 
            885      4.63239e+7 
            895      4.95236e+7 
            905      5.06844e+7 
            915      7.09249e+7 
            925      2.58195e+8 
            935      6.09334e+8 
            945      1.92582e+9 
            955      4.39464e+9 
            965       6.2208e+9 
            975      1.19206e+9 
            985      8.92525e+9 
            995      8.96631e+9 
           1005     1.09969e+10 
           1015      8.69506e+9 
           1025      1.49193e+9 
           1035      5.63112e+9 
           1045     1.36092e+10 
           1055      1.3566e+10 
           1065     1.03527e+10 
           1075      1.2988e+10 
           1085     1.14629e+10 
           1095     1.31708e+10 
           1105     1.14661e+10 
           1115     1.07538e+10 
           1125      9.71899e+9 
           1135      1.2408e+10 
           1145     1.03169e+10 
           1155     1.13553e+10 
           1165     1.16656e+10 
           1175       8.0016e+9 
           1185     1.15557e+10 
           1195      8.21166e+9 
           1205       4.6146e+9 
           1215      1.59463e+9 
           1225      5.17687e+9 
           1235     1.01586e+10 
           1245     1.08703e+10 
           1255     1.06726e+10 
           1265     1.00445e+10 
           1275     1.07965e+10 
           1285     1.11488e+10 
           1295      7.20942e+9 
           1305      6.75072e+9 
           1315     1.04283e+10 
           1325      9.62646e+9 
           1335      8.69053e+9 
           1345      9.71632e+9 
           1355      9.45053e+9 
           1365      8.35721e+9 
           1375      8.39909e+9 
           1385      8.52432e+9 
           1395      7.15486e+9 
           1405      7.54633e+9 
           1415       7.5582e+9 
           1425      7.72095e+9 
           1435       7.7233e+9 
           1442      8.07988e+9 
           1447      7.95072e+9 
           1455      7.74039e+9 
           1465      7.14939e+9 
           1475      7.13762e+9 
           1485      6.91335e+9 
           1495      6.95399e+9 
           1505      6.28092e+9 
           1512      5.68074e+9 
           1517      5.96913e+9 
           1525       6.1281e+9 
           1535       5.4021e+9 
           1545      5.49937e+9 
           1555      5.23147e+9 
           1565      5.38586e+9 
           1575      5.70616e+9 
           1585      5.71582e+9 
           1595      5.74433e+9 
           1605      5.69856e+9 
           1615      5.66331e+9 
           1625       5.4523e+9 
           1635      5.71515e+9 
           1645      5.67191e+9 
           1655      5.35077e+9 
           1665       5.7308e+9 
           1672      5.48118e+9 
           1677      5.64412e+9 
           1685      5.68632e+9 
           1695      5.37566e+9 
           1705      5.10246e+9 
           1715      4.80847e+9 
           1725      4.72098e+9 
           1735      4.96044e+9 
           1745      4.76778e+9 
           1755      4.90808e+9 
           1765       4.5717e+9 
           1775      4.54485e+9 
           1785      4.58795e+9 
           1795      4.77947e+9 
           1805       4.7758e+9 
           1815      4.30739e+9 
           1825      4.47941e+9 
           1835      4.25115e+9 
           1845      3.90173e+9 
           1855      3.80493e+9 
           1865      3.86995e+9 
           1875      4.18486e+9 
           1885      3.74787e+9 
           1895      3.51098e+9 
           1905      3.79395e+9 
           1915      3.54527e+9 
           1925      3.43554e+9 
           1935      3.57932e+9 
           1945       3.6397e+9 
           1955      3.34008e+9 
           1967      3.61891e+9 
           1976      3.75998e+9 
           1984      3.46232e+9 
           1995      3.38486e+9 
           2005      3.49119e+9 
           2015      3.34909e+9 
           2025      3.55854e+9 
           2035      3.26193e+9 
           2045      3.30911e+9 
           2055      3.18902e+9 
           2065      3.23419e+9 
           2074       3.3464e+9 
           2078      3.09579e+9 
           2085      3.22227e+9 
           2095      3.02927e+9 
           2105      3.11006e+9 
           2115      3.09908e+9 
           2125      3.14457e+9 
           2135      3.03402e+9 
           2145      2.93538e+9 
           2155      3.03361e+9 
           2165      2.97969e+9 
           2175      2.93914e+9 
           2185      2.85311e+9 
           2195       2.8963e+9 
           2205      2.83258e+9 
           2215       2.7699e+9 
           2225      2.67064e+9 
           2235      2.71806e+9 
           2245      2.69024e+9 
           2255      2.58553e+9 
           2265      2.63919e+9 
           2275      2.61946e+9 
           2285      2.62451e+9 
           2295      2.49976e+9 
           2305      2.49883e+9 
           2315      2.41901e+9 
           2325      2.38709e+9 
           2335      2.28778e+9 
           2345       2.2603e+9 
           2355      2.27728e+9 
           2365      2.21246e+9 
           2375       2.2105e+9 
           2385      2.15306e+9 
           2395      2.20113e+9 
           2405      2.11421e+9 
           2415      2.12464e+9 
           2425       2.1356e+9 
           2435      2.04973e+9 
           2445      2.07975e+9 
           2455      2.06772e+9 
           2465      2.02568e+9 
           2475      1.98813e+9 
           2485        2.012e+9 
           2495      1.92891e+9 
           2505      1.97453e+9 
           2513      1.87208e+9 
           2518      1.94136e+9 
           2525      1.87401e+9 
           2535      1.85263e+9 
           2545      1.80454e+9 
           2555      1.84561e+9 
           2565      1.82008e+9 
           2575      1.83983e+9 
           2585      1.83459e+9 
           2595      1.81791e+9 
           2605      1.78665e+9 
           2615      1.77208e+9 
           2625      1.75521e+9 
           2635      1.74609e+9 
           2645      1.75957e+9 
           2655      1.74629e+9 
           2665      1.68356e+9 
           2675      1.69695e+9 
           2685      1.68256e+9 
           2695       1.6369e+9 
           2705      1.63182e+9 
           2715      1.60653e+9 
           2725      1.58046e+9 
           2735      1.59722e+9 
           2745      1.52246e+9 
           2755      1.52101e+9 
           2765        1.515e+9 
           2775      1.53493e+9 
           2785      1.51431e+9 
           2795      1.44263e+9 
           2805      1.47277e+9 
           2815      1.47963e+9 
           2825       1.4486e+9 
           2835      1.38955e+9 
           2845      1.40056e+9 
           2855      1.39839e+9 
           2865      1.40673e+9 
           2875       1.3832e+9 
           2885      1.37195e+9 
           2895      1.35993e+9 
           2910      1.34247e+9 
           2930      1.31087e+9 
           2950       1.2738e+9 
           2970      1.26367e+9 
           2990      1.23219e+9 
           3010      1.21263e+9 
           3030      1.19897e+9 
           3050      1.17326e+9 
           3070      1.15043e+9 
           3090      1.12434e+9 
           3110      1.10443e+9 
           3130      1.08629e+9 
           3150      1.06566e+9 
           3170      1.04176e+9 
           3190      1.01112e+9 
           3210      1.00466e+9 
           3230      9.87096e+8 
           3250      9.70027e+8 
           3270      9.53089e+8 
           3290      9.34854e+8 
           3310      9.20118e+8 
           3330      9.02508e+8 
           3350      8.84345e+8 
           3370      8.69733e+8 
           3390      8.55042e+8 
           3410      8.40344e+8 
           3430      8.22023e+8 
           3450      8.04924e+8 
           3470      7.92668e+8 
           3490      7.78939e+8 
           3510      7.66296e+8 
           3530      7.54432e+8 
           3550      7.42159e+8 
           3570      7.34015e+8 
           3590      7.13758e+8 
           3610      7.04368e+8 
           3630      6.91996e+8 
           3640      6.92066e+8 
           3650      6.81605e+8 
           3670      6.73693e+8 
           3690      6.63062e+8 
           3710      6.40441e+8 
           3730       6.1331e+8 
           3750       6.1643e+8 
           3770      6.05931e+8 
           3790      6.48283e+8 
           3810      6.86859e+8 
           3830      5.85477e+8 
           3850      7.19325e+8 
           3870      7.47905e+8 
           3890      5.45124e+8 
           3910      7.47022e+8 
           3930      7.42756e+8 
           3950      7.24846e+8 
           3970      5.09344e+8 
           3990      6.88142e+8 
           4010      7.08917e+8 
           4030      6.50912e+8 
           4050      6.97969e+8 
           4070      6.69316e+8 
           4090      5.82026e+8 
           4110      4.94148e+8 
           4130      6.24058e+8 
           4150      6.30154e+8 
           4170      6.29973e+8 
           4190      6.24982e+8 
           4210      6.17953e+8 
           4230      6.05828e+8 
           4250      5.93131e+8 
           4270      5.72753e+8 
           4290      5.71109e+8 
           4310      5.51442e+8 
           4330      4.66509e+8 
           4350      4.19982e+8 
           4370      5.19557e+8 
           4390      5.04766e+8 
           4410      5.18736e+8 
           4430      5.10205e+8 
           4450      5.06219e+8 
           4470      4.63782e+8 
           4490      4.85261e+8 
           4510      4.85708e+8 
           4530      4.76142e+8 
           4550      4.69654e+8 
           4570        4.629e+8 
           4590      4.55835e+8 
           4610      4.47227e+8 
           4630      4.38925e+8 
           4650      4.31899e+8 
           4670      4.28001e+8 
           4690      4.23159e+8 
           4710      4.05359e+8 
           4730      4.06249e+8 
           4750      4.00197e+8 
           4770      3.98819e+8 
           4790      3.91144e+8 
           4810      3.81596e+8 
           4830      3.70643e+8 
           4850      3.22813e+8 
           4870      2.82933e+8 
           4890      3.52182e+8 
           4910      3.54616e+8 
           4930      3.38802e+8 
           4950      3.48093e+8 
           4970      3.44763e+8 
           4990      3.39282e+8 
           5010      3.24391e+8 
           5030      3.28368e+8 
           5050      3.18253e+8 
           5070      3.20643e+8 
           5090      3.15903e+8 
           5110       3.1055e+8 
           5130      3.04511e+8 
           5150      3.00134e+8 
           5170      2.98718e+8 
           5190      2.94644e+8 
           5210      2.87737e+8 
           5230      2.86697e+8 
           5250      2.82972e+8 
           5270      2.78713e+8 
           5290      2.75828e+8 
           5310      2.71844e+8 
           5330      2.67792e+8 
           5350      2.63372e+8 
           5370      2.61414e+8 
           5390      2.57895e+8 
           5410      2.54254e+8 
           5430      2.50213e+8 
           5450      2.47263e+8 
           5470      2.43809e+8 
           5490      2.41386e+8 
           5510       2.3816e+8 
           5530      2.35061e+8 
           5550      2.32294e+8 
           5570      2.29147e+8 
           5590      2.26425e+8 
           5610      2.23233e+8 
           5630      2.20985e+8 
           5650       2.1606e+8 
           5670      2.13378e+8 
           5690      2.11438e+8 
           5710      2.09636e+8 
           5730      2.07189e+8 
           5750      2.04474e+8 
           5770      2.02244e+8 
           5790       1.9968e+8 
           5810      1.97136e+8 
           5830      1.94622e+8 
           5850      1.92325e+8 
           5870      1.82062e+8 
           5890      1.85541e+8 
           5910      1.85172e+8 
           5930      1.83025e+8 
           5950      1.80168e+8 
           5970      1.78826e+8 
           5990      1.76248e+8 
           6010       1.7467e+8 
           6030      1.72467e+8 
           6050      1.70494e+8 
           6070      1.68493e+8 
           6090      1.66383e+8 
           6110      1.64559e+8 
           6130      1.62685e+8 
           6150      1.59816e+8 
           6170      1.58722e+8 
           6190      1.57039e+8 
           6210      1.55209e+8 
           6230       1.5335e+8 
           6250      1.51126e+8 
           6270       1.4977e+8 
           6290      1.48067e+8 
           6310      1.46212e+8 
           6330      1.44782e+8 
           6350      1.42152e+8 
           6370      1.40945e+8 
           6390      1.39788e+8 
           6410      1.38147e+8 
           6430      1.36869e+8 
           6450      1.35171e+8 
           6470      1.33346e+8 
           6490      1.31801e+8 
           6510      1.29935e+8 
           6530      1.27214e+8 
           6550      1.17201e+8 
           6570      1.01747e+8 
           6590      1.20501e+8 
           6610       1.2267e+8 
           6630         1.22e+8 
           6650      1.20892e+8 
           6670      1.17958e+8 
           6690       1.1685e+8 
           6710      1.17234e+8 
           6730      1.15939e+8 
           6750      1.14799e+8 
           6770      1.13595e+8 
           6790      1.11734e+8 
           6810      1.11054e+8 
           6830      1.09856e+8 
           6850      1.08814e+8 
           6870      1.07678e+8 
           6890       1.0653e+8 
           6910       1.0541e+8 
           6930      1.04174e+8 
           6950       1.0324e+8 
           6970      1.02183e+8 
           6990      1.01091e+8 
           7010      1.00024e+8 
           7030      9.89907e+7 
           7050      9.78538e+7 
           7070      9.51605e+7 
           7090      9.60183e+7 
           7110       9.4905e+7 
           7130      9.39806e+7 
           7150      9.30429e+7 
           7170      9.21362e+7 
           7190      9.12454e+7 
           7210      9.03195e+7 
           7230      8.82566e+7 
           7250      8.84297e+7 
           7270      8.76302e+7 
           7290      8.59946e+7 
           7310      8.58842e+7 
           7330      8.50376e+7 
           7350      8.42058e+7 
           7370      8.33679e+7 
           7390      8.25448e+7 
           7410      8.17362e+7 
           7430      8.08259e+7 
           7450      8.01142e+7 
           7470      7.92132e+7 
           7490      7.85221e+7 
           7510      7.77704e+7 
           7530      7.70257e+7 
           7550      7.63207e+7 
           7570      7.55958e+7 
           7590      7.48448e+7 
           7610      7.41527e+7 
           7630      7.34409e+7 
           7650       7.2742e+7 
           7670      7.20493e+7 
           7690      7.13565e+7 
           7710      7.06889e+7 
           7730      7.00021e+7 
           7750       6.9359e+7 
           7770      6.81288e+7 
           7790      6.80588e+7 
           7810      6.74018e+7 
           7830      6.67999e+7 
           7850      6.60075e+7 
           7870      6.54291e+7 
           7890      6.46803e+7 
           7910      6.43596e+7 
           7930      6.37958e+7 
           7950      6.30103e+7 
           7970      6.25758e+7 
           7990      6.17731e+7 
           8010      6.14709e+7 
           8030      6.08613e+7 
           8050      6.02686e+7 
           8070      5.97562e+7 
           8090      5.91272e+7 
           8110       5.8624e+7 
           8130      5.81308e+7 
           8150      5.75963e+7 
           8170      5.71396e+7 
           8190      5.65183e+7 
           8210      5.58688e+7 
           8230      5.53507e+7 
           8250      5.50832e+7 
           8270      5.43841e+7 
           8290       5.4093e+7 
           8310      5.36436e+7 
           8330      5.31692e+7 
           8350      5.25014e+7 
           8370      5.21583e+7 
           8390      5.18281e+7 
           8410      5.13736e+7 
           8430      5.08841e+7 
           8450      4.99233e+7 
           8470      5.00113e+7 
           8490      4.94305e+7 
           8510      4.90507e+7 
           8530      4.85957e+7 
           8550      4.79177e+7 
           8570      4.80144e+7 
           8590      4.65453e+7 
