# Kurucz ODFNEW /NOVER (2003)
# teff = 29000 K (value for the effective temperature for the model. Temperatures are given in K)
# logg = 3.5 log(cm/s2) (value for Log(G) for the model.)
# meta = -1  (value for the Metallicity for the model.)
# lh = 1.25  (l/Hp where l is the  mixing length of the convective element and Hp is the pressure scale height)
# vtur = 2 km/s (Microturbulence velocity)
# alpha = 0  (Alpha)
#
# column 1: WAVELENGTH (ANGSTROM), Wavelength in Angstrom
# column 2: FLUX (ERG/CM2/S/A), Flux in erg/cm2/s/A
          147.2      2.28407e-9 
            151      7.67305e-9 
          155.2      2.73722e-8 
          158.8      7.72867e-8 
            162      1.87331e-7 
            166      5.40581e-7 
          170.3      1.59878e-6 
          173.4      3.38157e-6 
          176.8      7.46463e-6 
          180.2      1.59975e-5 
          181.7      2.21942e-5 
          186.1      5.63106e-5 
            191     0.000151132 
          193.9     0.000264872 
          198.4     0.000612825 
          201.8      0.00112695 
            205      0.00196339 
          210.5      0.00490808 
          216.2       0.0120799 
          219.8       0.0208413 
            223       0.0333525 
          226.8       0.0573045 
            230         73.0243 
            234         201.031 
            240         360.424 
          246.5          694.84 
          252.4         1219.03 
          256.8         1468.04 
            260         2659.06 
            264         3852.16 
          268.5         5734.11 
          273.5         8348.74 
          278.5         11537.1 
            284         21239.6 
            290         31658.7 
            296         44459.7 
            301         52986.9 
            308         87824.4 
            318          206351 
            328          327289 
            338          558842 
            348          883185 
            357       1.4414e+6 
            366      2.21922e+6 
            375      2.95784e+6 
            385      4.30116e+6 
            395       6.0692e+6 
            405      8.07272e+6 
            414      1.05766e+7 
            422      1.27287e+7 
            430      1.56283e+7 
            441      2.04945e+7 
            451      2.57134e+7 
            460      3.06013e+7 
            470      3.80226e+7 
            480      4.62818e+7 
            490      5.54236e+7 
            500      6.76953e+7 
            506      3.62227e+8 
            512      1.52908e+9 
            520      1.46498e+9 
            530      1.41156e+9 
            540      1.30538e+9 
            550      1.54814e+9 
            560      1.76436e+9 
            570      1.86336e+9 
            580      1.72048e+9 
            590      1.90302e+9 
            600      1.82944e+9 
            610      2.01435e+9 
            620      2.22941e+9 
            630      2.25506e+9 
            640       2.2406e+9 
            650      2.29809e+9 
            658      2.29171e+9 
            665      2.44341e+9 
            675       2.5255e+9 
            685      2.38181e+9 
            695      2.74203e+9 
            705      2.60006e+9 
            716      2.93245e+9 
            726      2.93642e+9 
            735      3.00491e+9 
            745      3.09237e+9 
            755      3.12943e+9 
            765      3.21584e+9 
            775      3.30913e+9 
            785       3.4501e+9 
            795      3.48914e+9 
            805      3.50327e+9 
            815      3.53524e+9 
            825      3.68114e+9 
            835      3.40541e+9 
            845      3.72126e+9 
            855      3.77453e+9 
            865       3.8793e+9 
            875       3.9638e+9 
            885       4.0613e+9 
            895      4.13773e+9 
            905        4.126e+9 
            915      6.04675e+9 
            925      2.8194e+10 
            935      4.1271e+10 
            945     5.20952e+10 
            955     5.46491e+10 
            965     5.88058e+10 
            975     3.31027e+10 
            985     5.25319e+10 
            995     4.97765e+10 
           1005     5.12041e+10 
           1015     5.13922e+10 
           1025     4.21041e+10 
           1035      4.8954e+10 
           1045     5.34412e+10 
           1055     5.18778e+10 
           1065     4.72579e+10 
           1075     4.83778e+10 
           1085     4.55893e+10 
           1095     4.78364e+10 
           1105     4.61785e+10 
           1115     4.53418e+10 
           1125      4.0878e+10 
           1135     4.40562e+10 
           1145     4.19969e+10 
           1155     4.17134e+10 
           1165     4.10781e+10 
           1175     3.19557e+10 
           1185     3.83027e+10 
           1195     3.75852e+10 
           1205       3.562e+10 
           1215     2.88501e+10 
           1225     3.54606e+10 
           1235     3.63509e+10 
           1245     3.50912e+10 
           1255     3.50173e+10 
           1265     3.49768e+10 
           1275     3.46736e+10 
           1285     3.42524e+10 
           1295     3.20339e+10 
           1305     3.21332e+10 
           1315      3.2581e+10 
           1325     3.15396e+10 
           1335     3.06186e+10 
           1345     3.06586e+10 
           1355     3.01482e+10 
           1365     2.93421e+10 
           1375     2.88392e+10 
           1385     2.82985e+10 
           1395     2.49033e+10 
           1405     2.50978e+10 
           1415     2.65807e+10 
           1425      2.5183e+10 
           1435     2.55888e+10 
           1442     2.55765e+10 
           1447     2.52615e+10 
           1455     2.46161e+10 
           1465     2.41917e+10 
           1475     2.38631e+10 
           1485     2.36453e+10 
           1495     2.30064e+10 
           1505     2.25253e+10 
           1512     2.21475e+10 
           1517     2.20427e+10 
           1525     2.15869e+10 
           1535     1.99187e+10 
           1545     1.88994e+10 
           1555     1.85013e+10 
           1565     1.90947e+10 
           1575     1.94756e+10 
           1585     1.93896e+10 
           1595     1.91162e+10 
           1605     1.81007e+10 
           1615     1.76317e+10 
           1625     1.76536e+10 
           1635     1.76525e+10 
           1645     1.71058e+10 
           1655     1.74293e+10 
           1665     1.71036e+10 
           1672     1.64972e+10 
           1677     1.74746e+10 
           1685       1.698e+10 
           1695     1.65888e+10 
           1705     1.62237e+10 
           1715     1.57482e+10 
           1725     1.54268e+10 
           1735     1.56475e+10 
           1745     1.53685e+10 
           1755     1.51119e+10 
           1765     1.48686e+10 
           1775     1.46286e+10 
           1785     1.45443e+10 
           1795     1.42962e+10 
           1805     1.42192e+10 
           1815     1.38399e+10 
           1825     1.36672e+10 
           1835     1.35667e+10 
           1845     1.29464e+10 
           1855     1.27908e+10 
           1865     1.27525e+10 
           1875     1.26415e+10 
           1885     1.20974e+10 
           1895     1.17749e+10 
           1905     1.19755e+10 
           1915     1.16166e+10 
           1925     1.12349e+10 
           1935     1.14421e+10 
           1945     1.14532e+10 
           1955     1.08139e+10 
           1967     1.10017e+10 
           1976     1.10822e+10 
           1984      1.0724e+10 
           1995     1.04092e+10 
           2005     1.05043e+10 
           2015     1.04597e+10 
           2025     1.03833e+10 
           2035     1.00768e+10 
           2045      9.93526e+9 
           2055      8.76223e+9 
           2065       8.5621e+9 
           2074       8.8501e+9 
           2078      8.76546e+9 
           2085      9.12354e+9 
           2095      9.14308e+9 
           2105       9.1644e+9 
           2115        9.147e+9 
           2125      9.03942e+9 
           2135      8.92353e+9 
           2145      8.76356e+9 
           2155       8.7246e+9 
           2165      8.52523e+9 
           2175      8.49002e+9 
           2185      8.32648e+9 
           2195      8.29457e+9 
           2205      8.17767e+9 
           2215      8.00571e+9 
           2225      7.94761e+9 
           2235      7.82838e+9 
           2245      7.73637e+9 
           2255      7.57159e+9 
           2265      7.53059e+9 
           2275      7.43396e+9 
           2285      7.31852e+9 
           2295      6.97243e+9 
           2305      7.07678e+9 
           2315      7.02589e+9 
           2325      6.93855e+9 
           2335      6.83765e+9 
           2345       6.7639e+9 
           2355      6.67235e+9 
           2365      6.58533e+9 
           2375      6.49285e+9 
           2385      6.34745e+9 
           2395      6.30487e+9 
           2405      6.24278e+9 
           2415      6.15818e+9 
           2425      6.08533e+9 
           2435      5.99599e+9 
           2445      5.92568e+9 
           2455      5.85081e+9 
           2465      5.77808e+9 
           2475      5.70184e+9 
           2485      5.61956e+9 
           2495      5.01438e+9 
           2505      5.46036e+9 
           2513      5.29626e+9 
           2518      5.34952e+9 
           2525      5.35187e+9 
           2535      5.28845e+9 
           2545      5.19526e+9 
           2555      5.14302e+9 
           2565      5.08977e+9 
           2575      5.02741e+9 
           2585      4.96655e+9 
           2595      4.90379e+9 
           2605      4.86005e+9 
           2615       4.7965e+9 
           2625      4.73942e+9 
           2635      4.67823e+9 
           2645       4.6196e+9 
           2655      4.56242e+9 
           2665      4.49653e+9 
           2675      4.43823e+9 
           2685      4.40633e+9 
           2695      4.32649e+9 
           2705      4.29394e+9 
           2715      4.24294e+9 
           2725      4.17868e+9 
           2735       4.1158e+9 
           2745      4.09836e+9 
           2755      4.05159e+9 
           2765      3.98242e+9 
           2775      3.96008e+9 
           2785      3.91081e+9 
           2795      3.83378e+9 
           2805      3.81248e+9 
           2815       3.7786e+9 
           2825      3.71465e+9 
           2835      3.67105e+9 
           2845      3.65018e+9 
           2855      3.60515e+9 
           2865      3.56387e+9 
           2875      3.52422e+9 
           2885      3.48525e+9 
           2895      3.44517e+9 
           2910      3.38412e+9 
           2930      3.31197e+9 
           2950      3.22249e+9 
           2970       3.1648e+9 
           2990      3.09218e+9 
           3010      3.02204e+9 
           3030      2.95769e+9 
           3050      2.89651e+9 
           3070      2.83711e+9 
           3090      2.76468e+9 
           3110      2.71591e+9 
           3130      2.65794e+9 
           3150      2.60071e+9 
           3170      2.54611e+9 
           3190      2.48196e+9 
           3210      2.43482e+9 
           3230      2.39133e+9 
           3250      2.34387e+9 
           3270      2.29468e+9 
           3290      2.24762e+9 
           3310      2.20438e+9 
           3330      2.15827e+9 
           3350      2.11271e+9 
           3370      2.07331e+9 
           3390      2.03416e+9 
           3410      1.99411e+9 
           3430      1.94947e+9 
           3450       1.9062e+9 
           3470      1.87293e+9 
           3490      1.83622e+9 
           3510      1.80602e+9 
           3530      1.77268e+9 
           3550      1.73874e+9 
           3570      1.71107e+9 
           3590      1.67098e+9 
           3610       1.6417e+9 
           3630      1.60888e+9 
           3640      1.59872e+9 
           3650      1.55465e+9 
           3670       1.5309e+9 
           3690      1.49556e+9 
           3710      1.45682e+9 
           3730      1.41768e+9 
           3750      1.46606e+9 
           3770      1.45209e+9 
           3790      1.46893e+9 
           3810      1.49572e+9 
           3830      1.37176e+9 
           3850      1.47972e+9 
           3870      1.45498e+9 
           3890      1.30729e+9 
           3910      1.41899e+9 
           3930      1.38509e+9 
           3950      1.36709e+9 
           3970      1.21048e+9 
           3990      1.32046e+9 
           4010      1.29589e+9 
           4030       1.2527e+9 
           4050      1.25776e+9 
           4070      1.22808e+9 
           4090      1.18434e+9 
           4110      1.09089e+9 
           4130      1.16374e+9 
           4150      1.14623e+9 
           4170      1.13282e+9 
           4190      1.11381e+9 
           4210      1.09439e+9 
           4230      1.07874e+9 
           4250      1.05887e+9 
           4270      1.03819e+9 
           4290      1.02382e+9 
           4310      1.00515e+9 
           4330      9.62917e+8 
           4350      8.99452e+8 
           4370      9.57147e+8 
           4390      9.33726e+8 
           4410       9.2638e+8 
           4430       9.1289e+8 
           4450      8.99585e+8 
           4470      8.68682e+8 
           4490      8.71126e+8 
           4510       8.5749e+8 
           4530      8.44428e+8 
           4550      8.28614e+8 
           4570      8.17679e+8 
           4590       8.0431e+8 
           4610      7.92206e+8 
           4630      7.79278e+8 
           4650      7.57762e+8 
           4670      7.55155e+8 
           4690      7.38692e+8 
           4710      7.26267e+8 
           4730      7.23001e+8 
           4750      7.11683e+8 
           4770      7.01902e+8 
           4790      6.91324e+8 
           4810      6.80735e+8 
           4830      6.69909e+8 
           4850      6.47018e+8 
           4870       5.9789e+8 
           4890      6.40573e+8 
           4910      6.31833e+8 
           4930      6.15046e+8 
           4950      6.12945e+8 
           4970      6.04926e+8 
           4990      5.96138e+8 
           5010      5.82157e+8 
           5030      5.78966e+8 
           5050      5.68761e+8 
           5070      5.62685e+8 
           5090      5.54637e+8 
           5110      5.46755e+8 
           5130      5.38892e+8 
           5150      5.31306e+8 
           5170      5.23933e+8 
           5190      5.16714e+8 
           5210      5.09535e+8 
           5230      5.02464e+8 
           5250      4.95431e+8 
           5270      4.88571e+8 
           5290      4.81963e+8 
           5310      4.75346e+8 
           5330      4.68894e+8 
           5350        4.625e+8 
           5370      4.56252e+8 
           5390       4.5002e+8 
           5410       4.4285e+8 
           5430      4.38073e+8 
           5450      4.32188e+8 
           5470      4.26427e+8 
           5490      4.20751e+8 
           5510      4.15195e+8 
           5530      4.09697e+8 
           5550       4.0434e+8 
           5570      3.99001e+8 
           5590      3.93715e+8 
           5610      3.88675e+8 
           5630      3.83624e+8 
           5650      3.78624e+8 
           5670       3.7359e+8 
           5690      3.67699e+8 
           5710      3.61938e+8 
           5730      3.57385e+8 
           5750      3.52704e+8 
           5770      3.48464e+8 
           5790      3.44072e+8 
           5810      3.39832e+8 
           5830      3.35609e+8 
           5850        3.317e+8 
           5870      3.21539e+8 
           5890      3.23594e+8 
           5910      3.19984e+8 
           5930      3.16544e+8 
           5950      3.12738e+8 
           5970      3.09071e+8 
           5990      3.05184e+8 
           6010      3.01497e+8 
           6030      2.97791e+8 
           6050      2.94189e+8 
           6070      2.90648e+8 
           6090      2.87127e+8 
           6110      2.83666e+8 
           6130      2.80254e+8 
           6150      2.76821e+8 
           6170      2.73515e+8 
           6190      2.70305e+8 
           6210      2.67102e+8 
           6230      2.63934e+8 
           6250        2.608e+8 
           6270       2.5774e+8 
           6290      2.54714e+8 
           6310      2.51701e+8 
           6330      2.48787e+8 
           6350      2.45877e+8 
           6370      2.43036e+8 
           6390      2.40216e+8 
           6410      2.37417e+8 
           6430      2.34713e+8 
           6450       2.3201e+8 
           6470        2.293e+8 
           6490       2.2669e+8 
           6510      2.24153e+8 
           6530      2.21412e+8 
           6550      2.16602e+8 
           6570      1.98974e+8 
           6590      2.13565e+8 
           6610      2.11748e+8 
           6630       2.0941e+8 
           6650      2.07104e+8 
           6670       2.0351e+8 
           6690      2.01201e+8 
           6710      2.00271e+8 
           6730      1.98018e+8 
           6750      1.95903e+8 
           6770       1.9377e+8 
           6790      1.91543e+8 
           6810      1.89542e+8 
           6830      1.87465e+8 
           6850       1.8544e+8 
           6870      1.83428e+8 
           6890      1.81325e+8 
           6910      1.79441e+8 
           6930      1.77559e+8 
           6950      1.75658e+8 
           6970      1.73782e+8 
           6990      1.71926e+8 
           7010      1.70095e+8 
           7030      1.68267e+8 
           7050      1.66503e+8 
           7070      1.62781e+8 
           7090      1.63018e+8 
           7110       1.6129e+8 
           7130      1.59608e+8 
           7150       1.5795e+8 
           7170      1.56213e+8 
           7190      1.54667e+8 
           7210      1.53071e+8 
           7230      1.51137e+8 
           7250      1.49882e+8 
           7270      1.48388e+8 
           7290      1.45952e+8 
           7310      1.45345e+8 
           7330      1.43872e+8 
           7350      1.42407e+8 
           7370      1.40963e+8 
           7390      1.39531e+8 
           7410      1.38127e+8 
           7430       1.3673e+8 
           7450      1.35365e+8 
           7470       1.3396e+8 
           7490      1.32647e+8 
           7510      1.31314e+8 
           7530      1.30033e+8 
           7550      1.28743e+8 
           7570      1.27466e+8 
           7590      1.26134e+8 
           7610      1.24939e+8 
           7630      1.23735e+8 
           7650      1.22522e+8 
           7670       1.2132e+8 
           7690      1.20129e+8 
           7710      1.18962e+8 
           7730      1.17799e+8 
           7750      1.16665e+8 
           7770      1.15541e+8 
           7790      1.14427e+8 
           7810      1.13279e+8 
           7830       1.1224e+8 
           7850      1.11235e+8 
           7870      1.10147e+8 
           7890      1.09057e+8 
           7910      1.08079e+8 
           7930      1.07043e+8 
           7950       1.0604e+8 
           7970      1.04957e+8 
           7990      1.04008e+8 
           8010      1.02972e+8 
           8030      1.02004e+8 
           8050      1.01074e+8 
           8070      1.00157e+8 
           8090      9.90922e+7 
           8110      9.81458e+7 
           8130      9.74014e+7 
           8150      9.63681e+7 
           8170      9.56259e+7 
           8190      9.46371e+7 
           8210      9.34053e+7 
           8230      9.26571e+7 
           8250      9.19206e+7 
           8270      9.07329e+7 
           8290      9.01805e+7 
           8310      8.93869e+7 
           8330       8.8551e+7 
           8350      8.74627e+7 
           8370      8.68355e+7 
           8390       8.6133e+7 
           8410       8.5335e+7 
           8430      8.44959e+7 
           8450       8.3421e+7 
           8470      8.27965e+7 
           8490      8.22971e+7 
           8510      8.10472e+7 
           8530      8.10196e+7 
           8550      7.88786e+7 
           8570      8.03266e+7 
           8590      7.75177e+7 
