# Kurucz ODFNEW /NOVER (2003)
# teff = 8000 K (value for the effective temperature for the model. Temperatures are given in K)
# logg = 5 log(cm/s2) (value for Log(G) for the model.)
# meta = 0.2  (value for the Metallicity for the model.)
# lh = 1.25  (l/Hp where l is the  mixing length of the convective element and Hp is the pressure scale height)
# vtur = 2 km/s (Microturbulence velocity)
# alpha = 0.4  (Alpha)
#
# column 1: WAVELENGTH (ANGSTROM), Wavelength in Angstrom
# column 2: FLUX (ERG/CM2/S/A), Flux in erg/cm2/s/A
            318     2.02391e-25 
            328     2.34605e-24 
            338     2.33271e-23 
            348     2.01934e-22 
            357     1.26174e-21 
            366     7.17905e-21 
            375     3.73528e-20 
            385      2.1215e-19 
            395     1.09664e-18 
            405     5.20083e-18 
            414     1.97188e-17 
            422     6.12404e-17 
            430     1.81804e-16 
            441     7.57717e-16 
            451      2.5982e-15 
            460     7.49898e-15 
            470     2.31393e-14 
            480     6.78505e-14 
            490     1.89824e-13 
            500      5.0747e-13 
            506     1.18397e-12 
            512     2.32567e-12 
            520     4.75913e-12 
            530     1.13503e-11 
            540     2.56734e-11 
            550     5.70611e-11 
            560     1.22089e-10 
            570     2.53576e-10 
            580     5.05886e-10 
            590      1.00721e-9 
            600      1.93158e-9 
            610      3.62494e-9 
            620      6.63736e-9 
            630      1.18999e-8 
            640      2.09013e-8 
            650       3.6043e-8 
            658      5.49749e-8 
            665      7.84792e-8 
            675      1.29525e-7 
            685      2.10482e-7 
            695      3.36021e-7 
            705      5.23089e-7 
            716      8.54493e-7 
            726       1.3045e-6 
            735      1.88726e-6 
            745       2.8058e-6 
            755      4.12871e-6 
            765      6.01235e-6 
            775      8.65012e-6 
            785      1.23493e-5 
            795      1.71483e-5 
            805      2.40162e-5 
            815      3.34988e-5 
            825      4.59415e-5 
            835      6.23915e-5 
            845      8.40278e-5 
            855     0.000112268 
            865     0.000148778 
            875      0.00019415 
            885     0.000255415 
            895     0.000331206 
            905     0.000424426 
            915        0.141179 
            925         0.48327 
            935         0.63644 
            945        0.844475 
            955          1.1314 
            965         1.47083 
            975         1.80826 
            985         2.30132 
            995         2.83503 
           1005         3.69227 
           1015         4.60021 
           1025         5.44104 
           1035         6.98157 
           1045         8.58282 
           1055          10.512 
           1065          12.686 
           1075         15.5484 
           1085         18.9052 
           1095         22.5273 
           1105         61.7996 
           1115         190.137 
           1125          268.03 
           1135         371.663 
           1145         462.297 
           1155         502.645 
           1165         672.144 
           1175         796.504 
           1185         831.435 
           1195         491.164 
           1205         627.534 
           1215         178.131 
           1225         728.266 
           1235         1386.93 
           1245         2433.39 
           1255         4074.83 
           1265         3685.78 
           1275         5122.48 
           1285         6498.67 
           1295         7524.14 
           1305         6467.57 
           1315         8958.85 
           1325           10187 
           1335         11234.5 
           1345         12880.3 
           1355         13440.4 
           1365         14808.3 
           1375         15999.9 
           1385           17157 
           1395         19227.3 
           1405           21134 
           1415         22469.5 
           1425         24485.4 
           1435         25244.9 
           1442           28555 
           1447         29583.3 
           1455         32248.5 
           1465         33531.7 
           1475         36100.2 
           1485           39140 
           1495         43347.8 
           1505         47232.9 
           1512         48502.1 
           1517         51807.3 
           1525         59066.6 
           1535         93987.9 
           1545          144013 
           1555          158963 
           1565          152696 
           1575          207969 
           1585          237429 
           1595          273230 
           1605          282968 
           1615          291911 
           1625          286289 
           1635          346159 
           1645          470211 
           1655          342574 
           1665          529485 
           1672          388146 
           1677          738836 
           1685      1.23483e+6 
           1695          867650 
           1705      1.82894e+6 
           1715      5.05145e+6 
           1725      5.96893e+6 
           1735      9.60976e+6 
           1745      9.30805e+6 
           1755      1.34924e+7 
           1765      6.39051e+6 
           1775       1.1569e+7 
           1785       1.3239e+7 
           1795      1.77513e+7 
           1805      1.20812e+7 
           1815      1.16842e+7 
           1825      1.08783e+7 
           1835      1.10521e+7 
           1845      7.76816e+6 
           1855      1.18273e+7 
           1865      1.62174e+7 
           1875      1.49593e+7 
           1885      1.58433e+7 
           1895      1.64518e+7 
           1905      1.45293e+7 
           1915      1.76272e+7 
           1925      1.59989e+7 
           1935      9.72877e+6 
           1945      1.84629e+7 
           1955      1.92612e+7 
           1967       2.1797e+7 
           1976      1.99683e+7 
           1984      1.80064e+7 
           1995      1.90976e+7 
           2005       1.7112e+7 
           2015      1.71059e+7 
           2025      1.51983e+7 
           2035      2.01645e+7 
           2045      2.16776e+7 
           2055      2.01424e+7 
           2065      2.03188e+7 
           2074       2.4035e+7 
           2078      2.69341e+7 
           2085      2.53142e+7 
           2095      2.31032e+7 
           2105      2.10435e+7 
           2115      2.21857e+7 
           2125      2.20508e+7 
           2135      1.83587e+7 
           2145      2.31571e+7 
           2155       2.2907e+7 
           2165      2.04318e+7 
           2175      2.02913e+7 
           2185       2.3316e+7 
           2195      2.49775e+7 
           2205      2.29825e+7 
           2215      1.91105e+7 
           2225      2.00037e+7 
           2235      2.44301e+7 
           2245      2.21058e+7 
           2255      1.93809e+7 
           2265      1.89201e+7 
           2275      2.08883e+7 
           2285      2.31439e+7 
           2295      1.96961e+7 
           2305      2.15259e+7 
           2315      2.09249e+7 
           2325      2.03034e+7 
           2335       1.6881e+7 
           2345      1.29549e+7 
           2355       1.9765e+7 
           2365      1.39182e+7 
           2375      1.68902e+7 
           2385      1.16538e+7 
           2395       1.4078e+7 
           2405      1.39488e+7 
           2415      1.42392e+7 
           2425      1.88076e+7 
           2435       1.7497e+7 
           2445      1.99953e+7 
           2455      2.00884e+7 
           2465       2.0064e+7 
           2475      1.78149e+7 
           2485      1.74668e+7 
           2495      1.65028e+7 
           2505       2.1454e+7 
           2513       1.5067e+7 
           2518      1.34516e+7 
           2525       1.2531e+7 
           2535      1.11842e+7 
           2545      9.83145e+6 
           2555      1.24595e+7 
           2565      1.38731e+7 
           2575      1.90205e+7 
           2585      1.99437e+7 
           2595      1.96828e+7 
           2605      1.77378e+7 
           2615      1.64752e+7 
           2625      2.15668e+7 
           2635       2.2832e+7 
           2645       2.8078e+7 
           2655      3.05225e+7 
           2665      2.34083e+7 
           2675      2.66436e+7 
           2685      2.72596e+7 
           2695      2.36146e+7 
           2705       2.6026e+7 
           2715       2.2693e+7 
           2725      2.32107e+7 
           2735      2.52547e+7 
           2745      1.77345e+7 
           2755       1.9505e+7 
           2765       2.1279e+7 
           2775      2.29821e+7 
           2785      1.58269e+7 
           2795      6.20888e+6 
           2805        8.214e+6 
           2815      2.21886e+7 
           2825      2.79726e+7 
           2835      2.72993e+7 
           2845      2.50752e+7 
           2855      1.91294e+7 
           2865      2.76187e+7 
           2875      2.75454e+7 
           2885      2.66845e+7 
           2895      2.63251e+7 
           2910      3.14419e+7 
           2930      2.88486e+7 
           2950      2.90682e+7 
           2970      3.10364e+7 
           2990      3.06146e+7 
           3010       3.1321e+7 
           3030      3.13266e+7 
           3050      3.12865e+7 
           3070      3.15729e+7 
           3090      3.19708e+7 
           3110      3.10452e+7 
           3130      3.10785e+7 
           3150      3.16419e+7 
           3170      3.13436e+7 
           3190      2.87468e+7 
           3210      3.02163e+7 
           3230      2.79349e+7 
           3250      3.00563e+7 
           3270      3.14077e+7 
           3290      3.13413e+7 
           3310      3.20571e+7 
           3330      3.11806e+7 
           3350      3.04458e+7 
           3370      2.98543e+7 
           3390      3.03849e+7 
           3410      3.03782e+7 
           3430      3.05491e+7 
           3450      3.04574e+7 
           3470      3.00823e+7 
           3490      3.02253e+7 
           3510      3.07711e+7 
           3530      3.01679e+7 
           3550      3.15792e+7 
           3570      2.93913e+7 
           3590       2.9037e+7 
           3610      2.93125e+7 
           3630       2.9322e+7 
           3640      2.87887e+7 
           3650      3.08962e+7 
           3670      3.05212e+7 
           3690      2.96683e+7 
           3710      2.92453e+7 
           3730      2.71833e+7 
           3750      3.00339e+7 
           3770      3.15953e+7 
           3790       3.7156e+7 
           3810      4.22014e+7 
           3830      3.30401e+7 
           3850      4.57896e+7 
           3870      5.05973e+7 
           3890      3.21906e+7 
           3910      4.97251e+7 
           3930      3.61853e+7 
           3950      4.76197e+7 
           3970      2.79997e+7 
           3990      5.04795e+7 
           4010      5.81912e+7 
           4030      5.85963e+7 
           4050      5.74815e+7 
           4070      5.48484e+7 
           4090      4.47848e+7 
           4110      3.54693e+7 
           4130      5.29549e+7 
           4150      5.71574e+7 
           4170      5.70351e+7 
           4190      5.67838e+7 
           4210      5.69767e+7 
           4230      5.46685e+7 
           4250      5.58279e+7 
           4270      5.33164e+7 
           4290      5.29023e+7 
           4310      4.78535e+7 
           4330      3.90094e+7 
           4350      3.36583e+7 
           4370      4.98429e+7 
           4390      5.12859e+7 
           4410      5.11937e+7 
           4430      4.98763e+7 
           4450      5.08882e+7 
           4470      5.14633e+7 
           4490      5.05331e+7 
           4510      5.25752e+7 
           4530      4.98943e+7 
           4550      4.97387e+7 
           4570      5.13029e+7 
           4590       4.9319e+7 
           4610      5.01914e+7 
           4630      4.88308e+7 
           4650      4.90406e+7 
           4670      4.92692e+7 
           4690      4.69916e+7 
           4710      4.45471e+7 
           4730      4.74412e+7 
           4750      4.72045e+7 
           4770      4.64999e+7 
           4790      4.57397e+7 
           4810       4.4357e+7 
           4830      4.22286e+7 
           4850      3.31349e+7 
           4870      2.68923e+7 
           4890       3.9472e+7 
           4910      4.19592e+7 
           4930      4.18814e+7 
           4950      4.28567e+7 
           4970      4.31805e+7 
           4990      4.13448e+7 
           5010       3.9738e+7 
           5030       4.1062e+7 
           5050      4.03785e+7 
           5070      4.12242e+7 
           5090      4.06144e+7 
           5110      4.07011e+7 
           5130       3.9766e+7 
           5150      3.88114e+7 
           5170      3.74448e+7 
           5190       3.6898e+7 
           5210      3.78602e+7 
           5230      3.76345e+7 
           5250      3.80454e+7 
           5270      3.46102e+7 
           5290      3.72393e+7 
           5310      3.70248e+7 
           5330      3.43857e+7 
           5350        3.611e+7 
           5370      3.60022e+7 
           5390       3.5611e+7 
           5410      3.42412e+7 
           5430      3.50218e+7 
           5450      3.51851e+7 
           5470      3.47256e+7 
           5490       3.4058e+7 
           5510      3.41066e+7 
           5530      3.38049e+7 
           5550      3.39347e+7 
           5570      3.32422e+7 
           5590      3.26913e+7 
           5610      3.27937e+7 
           5630      3.29094e+7 
           5650      3.24656e+7 
           5670       3.1678e+7 
           5690      3.18176e+7 
           5710      3.14483e+7 
           5730      3.19761e+7 
           5750      3.11126e+7 
           5770      3.11643e+7 
           5790      3.07831e+7 
           5810       3.0711e+7 
           5830       3.0576e+7 
           5850      3.01174e+7 
           5870      2.99049e+7 
           5890      2.91505e+7 
           5910       2.9467e+7 
           5930      2.92171e+7 
           5950      2.89465e+7 
           5970      2.88005e+7 
           5990      2.84415e+7 
           6010      2.80106e+7 
           6030      2.77256e+7 
           6050      2.77258e+7 
           6070       2.7752e+7 
           6090      2.73404e+7 
           6110       2.6974e+7 
           6130      2.63271e+7 
           6150      2.57856e+7 
           6170      2.56108e+7 
           6190      2.63177e+7 
           6210      2.61055e+7 
           6230      2.56605e+7 
           6250      2.48938e+7 
           6270      2.55584e+7 
           6290      2.53914e+7 
           6310      2.48352e+7 
           6330      2.46569e+7 
           6350      2.41253e+7 
           6370      2.40836e+7 
           6390      2.42301e+7 
           6410      2.36803e+7 
           6430      2.37355e+7 
           6450       2.3038e+7 
           6470      2.30893e+7 
           6490      2.26851e+7 
           6510       2.2417e+7 
           6530      2.14221e+7 
           6550      1.84341e+7 
           6570      1.49156e+7 
           6590      2.01411e+7 
           6610      2.14499e+7 
           6630      2.17217e+7 
           6650       2.1748e+7 
           6670      2.15916e+7 
           6690      2.15746e+7 
           6710      2.13851e+7 
           6730      2.12349e+7 
           6750      2.07636e+7 
           6770      2.09748e+7 
           6790      2.07894e+7 
           6810      2.06171e+7 
           6830      2.04771e+7 
           6850      2.02574e+7 
           6870      2.02106e+7 
           6890      2.00466e+7 
           6910      1.98897e+7 
           6930      1.97186e+7 
           6950      1.95998e+7 
           6970      1.94177e+7 
           6990      1.93391e+7 
           7010      1.87322e+7 
           7030       1.8952e+7 
           7050      1.88636e+7 
           7070      1.87073e+7 
           7090      1.86004e+7 
           7110      1.81069e+7 
           7130      1.81981e+7 
           7150      1.80375e+7 
           7170      1.78344e+7 
           7190      1.76566e+7 
           7210      1.76697e+7 
           7230      1.75036e+7 
           7250      1.72903e+7 
           7270      1.73521e+7 
           7290      1.70174e+7 
           7310      1.70929e+7 
           7330      1.69297e+7 
           7350      1.68983e+7 
           7370      1.67686e+7 
           7390      1.65055e+7 
           7410      1.62546e+7 
           7430      1.61317e+7 
           7450       1.6088e+7 
           7470      1.60013e+7 
           7490       1.5922e+7 
           7510      1.58961e+7 
           7530      1.58018e+7 
           7550      1.57321e+7 
           7570      1.55577e+7 
           7590      1.54921e+7 
           7610      1.53288e+7 
           7630      1.52952e+7 
           7650      1.50994e+7 
           7670      1.48504e+7 
           7690      1.47383e+7 
           7710      1.48045e+7 
           7730      1.47103e+7 
           7750      1.45273e+7 
           7770      1.41062e+7 
           7790      1.44759e+7 
           7810       1.4279e+7 
           7830       1.4149e+7 
           7850      1.39969e+7 
           7870       1.3924e+7 
           7890      1.37657e+7 
           7910      1.36974e+7 
           7930      1.33624e+7 
           7950      1.33829e+7 
           7970      1.35424e+7 
           7990      1.32805e+7 
           8010      1.33282e+7 
           8030      1.31707e+7 
           8050      1.30914e+7 
           8070      1.30393e+7 
           8090      1.29393e+7 
           8110      1.28801e+7 
           8130      1.28573e+7 
           8150      1.27511e+7 
           8170      1.26589e+7 
           8190      1.23354e+7 
           8210      1.21955e+7 
           8230      1.21646e+7 
           8250      1.21301e+7 
           8270      1.22714e+7 
           8290      1.21624e+7 
           8310      1.19577e+7 
           8330      1.18569e+7 
           8350      1.18456e+7 
           8370      1.18794e+7 
           8390      1.17415e+7 
           8410      1.17134e+7 
           8430      1.15619e+7 
           8450      1.12698e+7 
           8470      1.14015e+7 
           8490      1.12271e+7 
           8510      1.07811e+7 
           8530      1.10377e+7 
           8550       9.6828e+6 
           8570      1.11124e+7 
           8590      1.07768e+7 
           8610      1.06577e+7 
           8630      1.09098e+7 
           8650      1.05936e+7 
           8670      9.10388e+6 
           8690      1.03386e+7 
           8710      1.07367e+7 
           8730      1.03657e+7 
           8750      9.19995e+6 
           8770      1.01352e+7 
           8790      1.05558e+7 
           8810        1.052e+7 
           8830      1.02497e+7 
           8850      9.46074e+6 
           8870      8.48632e+6 
           8890      9.85486e+6 
           8910      1.02012e+7 
           8930      1.01872e+7 
           8950      1.03148e+7 
           8970      1.00783e+7 
           8990      9.63171e+6 
           9010      8.03948e+6 
           9030      8.62162e+6 
           9050      9.62632e+6 
           9070      9.66313e+6 
           9090      9.55728e+6 
           9110      9.77638e+6 
           9130      9.86737e+6 
           9150      9.81663e+6 
           9170      9.64214e+6 
           9190      9.35221e+6 
           9210      8.61035e+6 
           9230      7.02181e+6 
           9250      8.25205e+6 
           9270       8.8149e+6 
           9290      9.29033e+6 
           9310      9.35303e+6 
           9330      9.31038e+6 
           9350      9.31411e+6 
