# Kurucz ODFNEW /NOVER (2003)
# teff = 7750 K (value for the effective temperature for the model. Temperatures are given in K)
# logg = 2 log(cm/s2) (value for Log(G) for the model.)
# meta = 0  (value for the Metallicity for the model.)
# lh = 1.25  (l/Hp where l is the  mixing length of the convective element and Hp is the pressure scale height)
# vtur = 2 km/s (Microturbulence velocity)
# alpha = 0  (Alpha)
#
# column 1: WAVELENGTH (ANGSTROM), Wavelength in Angstrom
# column 2: FLUX (ERG/CM2/S/A), Flux in erg/cm2/s/A
            366     7.48672e-24 
            375      9.3879e-23 
            385     7.63829e-22 
            395     5.41486e-21 
            405     3.46814e-20 
            414     1.70378e-19 
            422     6.61166e-19 
            430      1.7127e-19 
            441     8.66698e-19 
            451     3.51631e-18 
            460     1.17334e-17 
            470     4.22605e-17 
            480     1.43736e-16 
            490     4.63592e-16 
            500     1.42068e-15 
            506     3.60844e-15 
            512     7.66036e-15 
            520     1.73304e-14 
            530     4.66399e-14 
            540     1.18499e-13 
            550     2.94833e-13 
            560     7.03292e-13 
            570     1.62206e-12 
            580     3.58218e-12 
            590     7.85915e-12 
            600     1.65656e-11 
            610     3.40332e-11 
            620     6.80867e-11 
            630     1.32971e-10 
            640     2.53786e-10 
            650     4.74242e-10 
            658     7.70036e-10 
            665      1.16309e-9 
            675      2.06603e-9 
            685      3.60194e-9 
            695      6.16978e-9 
            705      1.03485e-8 
            716      1.80694e-8 
            726      2.94178e-8 
            735      4.50381e-8 
            745      7.12971e-8 
            755      1.11381e-7 
            765      1.71755e-7 
            775      2.61542e-7 
            785      3.93746e-7 
            795      5.80158e-7 
            805      8.57433e-7 
            815      1.25112e-6 
            825       1.8016e-6 
            835      2.56801e-6 
            845      3.62703e-6 
            855      5.07423e-6 
            865      7.03587e-6 
            875      9.64329e-6 
            885      1.31841e-5 
            895      1.78327e-5 
            905      2.38054e-5 
            915       0.0160906 
            925       0.0497888 
            935       0.0655185 
            945       0.0875861 
            955        0.123392 
            965        0.163172 
            975        0.206926 
            985        0.267773 
            995        0.331917 
           1005        0.451579 
           1015        0.575393 
           1025        0.700658 
           1035        0.903328 
           1045         1.14386 
           1055         1.42876 
           1065         1.73261 
           1075         2.17368 
           1085         2.68604 
           1095         3.22114 
           1105         9.72041 
           1115          31.648 
           1125          46.355 
           1135         64.3048 
           1145         80.3186 
           1155         88.0666 
           1165         117.719 
           1175         134.227 
           1185         142.928 
           1195          64.188 
           1205         56.5162 
           1215         14.3046 
           1225         66.3897 
           1235         172.223 
           1245         411.212 
           1255          994.98 
           1265         1006.88 
           1275          1868.6 
           1285         2893.87 
           1295          3741.4 
           1305         2797.45 
           1315         5089.65 
           1325          6390.1 
           1335         6883.43 
           1345         9307.73 
           1355         9643.61 
           1365         10545.1 
           1375         11705.6 
           1385         13143.9 
           1395         15412.6 
           1405         17431.4 
           1415         17558.1 
           1425         20400.2 
           1435         20468.1 
           1442         23942.3 
           1447         26371.7 
           1455         30102.4 
           1465         30277.4 
           1475         33473.4 
           1485         37648.6 
           1495           43331 
           1505         47836.6 
           1512         47773.7 
           1517         52439.2 
           1525         56332.2 
           1535          222195 
           1545          906114 
           1555          760306 
           1565          598051 
           1575      1.17595e+6 
           1585      1.48195e+6 
           1595      2.03749e+6 
           1605      1.64525e+6 
           1615      1.48238e+6 
           1625      1.23166e+6 
           1635      1.47142e+6 
           1645      2.20328e+6 
           1655      1.04914e+6 
           1665      1.85278e+6 
           1672          476305 
           1677      2.70445e+6 
           1685      4.31486e+6 
           1695      4.49265e+6 
           1705      4.18092e+6 
           1715      5.79358e+6 
           1725      6.21796e+6 
           1735      7.73865e+6 
           1745      6.81398e+6 
           1755       8.9245e+6 
           1765      6.39584e+6 
           1775      8.58737e+6 
           1785      7.33258e+6 
           1795      1.07659e+7 
           1805      8.70865e+6 
           1815      1.00425e+7 
           1825      8.26783e+6 
           1835      7.49302e+6 
           1845      6.87747e+6 
           1855      8.03924e+6 
           1865      9.05825e+6 
           1875      8.49532e+6 
           1885      8.86801e+6 
           1895      9.87998e+6 
           1905      8.74517e+6 
           1915      9.34184e+6 
           1925      9.21261e+6 
           1935       6.4172e+6 
           1945       1.0295e+7 
           1955      1.05064e+7 
           1967      1.16444e+7 
           1976      1.13861e+7 
           1984      1.08925e+7 
           1995      1.06023e+7 
           2005      9.87175e+6 
           2015      9.00296e+6 
           2025      8.54963e+6 
           2035      1.00468e+7 
           2045      1.12442e+7 
           2055      9.90749e+6 
           2065       9.3506e+6 
           2074      1.19759e+7 
           2078      1.28581e+7 
           2085      1.21757e+7 
           2095       1.1337e+7 
           2105      1.03904e+7 
           2115      1.06309e+7 
           2125      1.09841e+7 
           2135      8.17069e+6 
           2145       1.0221e+7 
           2155      1.05782e+7 
           2165      9.30968e+6 
           2175      9.40425e+6 
           2185      9.87941e+6 
           2195      1.10766e+7 
           2205      1.04247e+7 
           2215      8.59082e+6 
           2225      8.22993e+6 
           2235      1.06822e+7 
           2245        9.475e+6 
           2255      8.05538e+6 
           2265      8.18121e+6 
           2275       9.4968e+6 
           2285      1.00676e+7 
           2295      9.01157e+6 
           2305      9.50363e+6 
           2315      8.81576e+6 
           2325      8.33727e+6 
           2335      5.91217e+6 
           2345      4.55437e+6 
           2355      7.65071e+6 
           2365      4.55256e+6 
           2375      6.25228e+6 
           2385      3.54607e+6 
           2395       4.7929e+6 
           2405       4.5492e+6 
           2415      5.68354e+6 
           2425      8.65104e+6 
           2435      8.33615e+6 
           2445      9.07789e+6 
           2455      9.01909e+6 
           2465      8.67388e+6 
           2475      8.09224e+6 
           2485      8.37254e+6 
           2495      7.96303e+6 
           2505      1.04235e+7 
           2513      7.91797e+6 
           2518      8.60313e+6 
           2525      7.04341e+6 
           2535      6.73587e+6 
           2545      6.89825e+6 
           2555       8.2744e+6 
           2565      7.26292e+6 
           2575      8.48215e+6 
           2585       7.9053e+6 
           2595      7.13232e+6 
           2605      6.29046e+6 
           2615      5.83697e+6 
           2625      7.66239e+6 
           2635      9.05575e+6 
           2645      1.27245e+7 
           2655      1.29811e+7 
           2665      1.03924e+7 
           2675      1.15431e+7 
           2685      1.12242e+7 
           2695      1.05772e+7 
           2705      1.12679e+7 
           2715        9.778e+6 
           2725      9.94939e+6 
           2735       1.0883e+7 
           2745      6.52112e+6 
           2755      7.70084e+6 
           2765       8.7717e+6 
           2775      1.07227e+7 
           2785      8.83559e+6 
           2795      3.35805e+6 
           2805      4.42593e+6 
           2815      1.05723e+7 
           2825      1.27172e+7 
           2835       1.1985e+7 
           2845      1.14601e+7 
           2855      1.03239e+7 
           2865      1.23581e+7 
           2875      1.18671e+7 
           2885      1.22381e+7 
           2895      1.14156e+7 
           2910      1.38954e+7 
           2930      1.30731e+7 
           2950      1.29432e+7 
           2970      1.38816e+7 
           2990      1.40796e+7 
           3010       1.4652e+7 
           3030      1.44624e+7 
           3050      1.44111e+7 
           3070      1.45485e+7 
           3090      1.51467e+7 
           3110      1.45237e+7 
           3130      1.44114e+7 
           3150      1.51933e+7 
           3170      1.51023e+7 
           3190      1.40165e+7 
           3210       1.4804e+7 
           3230      1.40868e+7 
           3250      1.48969e+7 
           3270        1.523e+7 
           3290      1.54317e+7 
           3310      1.58516e+7 
           3330      1.54226e+7 
           3350      1.52283e+7 
           3370      1.50063e+7 
           3390      1.52821e+7 
           3410      1.56736e+7 
           3430      1.59355e+7 
           3450      1.58253e+7 
           3470      1.55558e+7 
           3490      1.54127e+7 
           3510      1.60054e+7 
           3530       1.6099e+7 
           3550      1.66042e+7 
           3570      1.57805e+7 
           3590      1.57987e+7 
           3610       1.5914e+7 
           3630      1.61629e+7 
           3640      1.58422e+7 
           3650      1.66182e+7 
           3670      1.63198e+7 
           3690      1.67715e+7 
           3710      2.08984e+7 
           3730      2.57628e+7 
           3750      3.72242e+7 
           3770      4.04829e+7 
           3790      5.13344e+7 
           3810      5.90134e+7 
           3830      4.58401e+7 
           3850       6.2709e+7 
           3870      6.85473e+7 
           3890      4.19175e+7 
           3910      6.55058e+7 
           3930      4.89983e+7 
           3950      6.37778e+7 
           3970      3.54622e+7 
           3990      6.50801e+7 
           4010      6.78648e+7 
           4030      6.65781e+7 
           4050      6.59429e+7 
           4070      6.41661e+7 
           4090      5.71284e+7 
           4110      4.38393e+7 
           4130      6.21032e+7 
           4150      6.37482e+7 
           4170      6.19552e+7 
           4190      6.15197e+7 
           4210      6.10024e+7 
           4230      5.96185e+7 
           4250      5.95801e+7 
           4270      5.74199e+7 
           4290      5.81017e+7 
           4310      5.42945e+7 
           4330      4.67192e+7 
           4350        3.985e+7 
           4370      5.54908e+7 
           4390       5.4656e+7 
           4410      5.32374e+7 
           4430      5.31225e+7 
           4450      5.35098e+7 
           4470       5.3015e+7 
           4490      5.25326e+7 
           4510      5.34364e+7 
           4530      5.12014e+7 
           4550       5.0048e+7 
           4570      5.16961e+7 
           4590      4.94889e+7 
           4610      5.09111e+7 
           4630      4.90961e+7 
           4650      4.95737e+7 
           4670      4.91708e+7 
           4690      4.75996e+7 
           4710      4.59566e+7 
           4730      4.75305e+7 
           4750      4.75218e+7 
           4770      4.64899e+7 
           4790      4.60877e+7 
           4810      4.53519e+7 
           4830      4.43134e+7 
           4850      3.70171e+7 
           4870      2.94529e+7 
           4890      4.21093e+7 
           4910      4.27061e+7 
           4930      4.16628e+7 
           4950      4.22386e+7 
           4970      4.23752e+7 
           4990      4.07033e+7 
           5010      3.91062e+7 
           5030      4.00093e+7 
           5050      3.93769e+7 
           5070      3.97704e+7 
           5090      3.91952e+7 
           5110      3.89366e+7 
           5130      3.79608e+7 
           5150      3.71836e+7 
           5170      3.64102e+7 
           5190      3.60322e+7 
           5210      3.59851e+7 
           5230      3.55314e+7 
           5250      3.60088e+7 
           5270       3.3993e+7 
           5290      3.51958e+7 
           5310        3.439e+7 
           5330      3.35463e+7 
           5350      3.43752e+7 
           5370      3.38923e+7 
           5390      3.34065e+7 
           5410      3.27442e+7 
           5430      3.26223e+7 
           5450      3.28437e+7 
           5470      3.24013e+7 
           5490      3.22331e+7 
           5510      3.18258e+7 
           5530      3.14926e+7 
           5550      3.14996e+7 
           5570      3.09969e+7 
           5590      3.06791e+7 
           5610      3.05409e+7 
           5630      3.04016e+7 
           5650      2.99023e+7 
           5670      2.95007e+7 
           5690      2.95032e+7 
           5710      2.92368e+7 
           5730      2.92097e+7 
           5750      2.87836e+7 
           5770      2.85787e+7 
           5790      2.82366e+7 
           5810      2.80247e+7 
           5830      2.77929e+7 
           5850      2.75074e+7 
           5870      2.72875e+7 
           5890      2.66355e+7 
           5910      2.67716e+7 
           5930      2.65249e+7 
           5950      2.62436e+7 
           5970      2.60713e+7 
           5990      2.56938e+7 
           6010      2.53927e+7 
           6030      2.53012e+7 
           6050      2.50693e+7 
           6070      2.49381e+7 
           6090      2.46385e+7 
           6110      2.43422e+7 
           6130      2.39671e+7 
           6150      2.34439e+7 
           6170      2.35139e+7 
           6190      2.35844e+7 
           6210      2.34093e+7 
           6230      2.30592e+7 
           6250      2.23718e+7 
           6270      2.28177e+7 
           6290      2.26167e+7 
           6310      2.21897e+7 
           6330      2.21305e+7 
           6350      2.17905e+7 
           6370      2.16362e+7 
           6390      2.15628e+7 
           6410      2.12231e+7 
           6430      2.11514e+7 
           6450      2.07207e+7 
           6470      2.08295e+7 
           6490      2.03498e+7 
           6510      2.03138e+7 
           6530      2.00518e+7 
           6550      1.80653e+7 
           6570      1.42488e+7 
           6590      1.91695e+7 
           6610      1.94978e+7 
           6630      1.94874e+7 
           6650      1.93457e+7 
           6670      1.91596e+7 
           6690      1.90603e+7 
           6710      1.88992e+7 
           6730      1.87288e+7 
           6750      1.85221e+7 
           6770      1.84794e+7 
           6790      1.82996e+7 
           6810      1.81687e+7 
           6830      1.79558e+7 
           6850      1.78351e+7 
           6870      1.77282e+7 
           6890      1.75905e+7 
           6910      1.74407e+7 
           6930      1.72861e+7 
           6950      1.71579e+7 
           6970      1.70052e+7 
           6990      1.68926e+7 
           7010       1.6627e+7 
           7030      1.65775e+7 
           7050      1.64722e+7 
           7070      1.63573e+7 
           7090      1.62329e+7 
           7110       1.5787e+7 
           7130      1.58749e+7 
           7150       1.5784e+7 
           7170      1.56711e+7 
           7190      1.55105e+7 
           7210        1.541e+7 
           7230       1.5268e+7 
           7250      1.51545e+7 
           7270       1.5099e+7 
           7290      1.49085e+7 
           7310      1.47805e+7 
           7330      1.47014e+7 
           7350      1.46229e+7 
           7370      1.45485e+7 
           7390      1.43815e+7 
           7410      1.42086e+7 
           7430       1.4062e+7 
           7450      1.40001e+7 
           7470      1.38118e+7 
           7490      1.37724e+7 
           7510      1.36998e+7 
           7530      1.36398e+7 
           7550      1.35901e+7 
           7570       1.3452e+7 
           7590      1.33759e+7 
           7610      1.32771e+7 
           7630      1.31798e+7 
           7650      1.30401e+7 
           7670      1.29062e+7 
           7690      1.28507e+7 
           7710       1.2715e+7 
           7730       1.2689e+7 
           7750      1.25797e+7 
           7770      1.22267e+7 
           7790      1.24285e+7 
           7810      1.23279e+7 
           7830      1.21851e+7 
           7850      1.20516e+7 
           7870      1.19831e+7 
           7890      1.18673e+7 
           7910      1.18008e+7 
           7930       1.1721e+7 
           7950      1.15995e+7 
           7970      1.16344e+7 
           7990      1.14163e+7 
           8010      1.14381e+7 
           8030      1.13379e+7 
           8050      1.12805e+7 
           8070      1.11888e+7 
           8090      1.11071e+7 
           8110      1.10569e+7 
           8130      1.09895e+7 
           8150      1.09095e+7 
           8170      1.08325e+7 
           8190      1.06005e+7 
           8210      1.05679e+7 
           8230      1.04938e+7 
           8250      1.04397e+7 
           8270      1.04944e+7 
           8290      1.04049e+7 
           8310      1.03124e+7 
           8330      1.01114e+7 
           8350      1.01511e+7 
           8370      9.98329e+6 
           8390      9.89079e+6 
           8410      9.80226e+6 
           8430      9.89416e+6 
           8450      9.69596e+6 
           8470      9.35615e+6 
           8490      1.01081e+7 
           8510      8.97969e+6 
           8530      1.02507e+7 
           8550      8.32384e+6 
           8570      1.04881e+7 
           8590      9.66788e+6 
           8610      9.33539e+6 
           8630      1.06832e+7 
           8650      1.03524e+7 
           8670      8.05141e+6 
           8690      1.03661e+7 
           8710       1.0825e+7 
           8730      1.05017e+7 
           8750      8.22765e+6 
           8770      1.01019e+7 
           8790      1.06528e+7 
           8810      1.05812e+7 
           8830      1.02787e+7 
           8850      9.53049e+6 
           8870      7.99025e+6 
           8890      1.00451e+7 
           8910      1.02012e+7 
           8930      1.01447e+7 
           8950      1.01784e+7 
           8970      1.00469e+7 
           8990      9.77621e+6 
           9010      7.88959e+6 
           9030      8.76115e+6 
           9050      9.69117e+6 
           9070      9.49095e+6 
           9090      9.34801e+6 
           9110      9.53398e+6 
           9130      9.55327e+6 
           9150      9.53315e+6 
           9170      9.41903e+6 
           9190      9.24783e+6 
           9210      8.80977e+6 
           9230      6.92232e+6 
           9250      8.47484e+6 
           9270      8.78421e+6 
           9290      9.04937e+6 
           9310      9.02444e+6 
           9330      8.95333e+6 
           9350      8.91723e+6 
           9370      8.87019e+6 
           9390      8.73759e+6 
           9410      8.45415e+6 
           9430      8.60007e+6 
           9450      8.57299e+6 
