# Kurucz ODFNEW /NOVER (2003)
# teff = 26000 K (value for the effective temperature for the model. Temperatures are given in K)
# logg = 5 log(cm/s2) (value for Log(G) for the model.)
# meta = 0  (value for the Metallicity for the model.)
# lh = 1.25  (l/Hp where l is the  mixing length of the convective element and Hp is the pressure scale height)
# vtur = 2 km/s (Microturbulence velocity)
# alpha = 0  (Alpha)
#
# column 1: WAVELENGTH (ANGSTROM), Wavelength in Angstrom
# column 2: FLUX (ERG/CM2/S/A), Flux in erg/cm2/s/A
          147.2     1.51651e-12 
            151     5.74702e-12 
          155.2     2.33166e-11 
          158.8     7.32904e-11 
            162     1.95068e-10 
            166     6.31168e-10 
          170.3      2.10265e-9 
          173.4      4.85002e-9 
          176.8      1.17475e-8 
          180.2      2.76027e-8 
          181.7      3.98286e-8 
          186.1      1.13378e-7 
            191      3.45119e-7 
          193.9      6.50648e-7 
          198.4      1.68235e-6 
          201.8      3.36004e-6 
            205      6.31946e-6 
          210.5      1.79615e-5 
          216.2      5.03102e-5 
          219.8      9.39483e-5 
            223     0.000161096 
          226.8     0.000300046 
            230       0.0189725 
            234       0.0425455 
            240       0.0939273 
          246.5        0.212451 
          252.4        0.435323 
          256.8        0.691234 
            260         1.06259 
            264         1.61149 
          268.5         2.58242 
          273.5         4.25505 
          278.5         6.92237 
            284         12.0091 
            290         20.3627 
            296         33.9592 
            301         50.7872 
            308         88.1341 
            318         194.456 
            328         380.567 
            338          752.74 
            348         1389.31 
            357         3113.47 
            366            5335 
            375         8121.82 
            385         13195.3 
            395         21385.4 
            405         32338.7 
            414         47087.9 
            422         63239.5 
            430         86729.3 
            441          127969 
            451          177968 
            460          234138 
            470          321610 
            480          430018 
            490          573661 
            500          750219 
            506      3.46837e+6 
            512      2.15811e+7 
            520      2.47535e+7 
            530      2.97239e+7 
            540      3.17171e+7 
            550      4.28438e+7 
            560      4.86901e+7 
            570       5.7582e+7 
            580      5.64881e+7 
            590      7.08546e+7 
            600      7.79066e+7 
            610      8.93145e+7 
            620      9.63355e+7 
            630      1.02654e+8 
            640      9.86247e+7 
            650      9.43919e+7 
            658      1.16744e+8 
            665      1.33944e+8 
            675      1.43912e+8 
            685      1.49712e+8 
            695      1.85446e+8 
            705      1.91592e+8 
            716      2.13726e+8 
            726      2.23661e+8 
            735      2.33084e+8 
            745      2.59402e+8 
            755      2.76031e+8 
            765      2.94972e+8 
            775      3.14762e+8 
            785      3.35601e+8 
            795      3.47203e+8 
            805      3.62001e+8 
            815      3.74713e+8 
            825      4.03168e+8 
            835      3.83945e+8 
            845       4.2284e+8 
            855      4.36131e+8 
            865      4.62332e+8 
            875       4.8923e+8 
            885      5.21642e+8 
            895      5.43254e+8 
            905       5.4332e+8 
            915      6.44093e+8 
            925       2.5373e+9 
            935      6.11575e+9 
            945     1.63567e+10 
            955     2.55814e+10 
            965     3.44788e+10 
            975        6.313e+9 
            985     3.65607e+10 
            995     3.41928e+10 
           1005     3.93169e+10 
           1015     3.58751e+10 
           1025     1.08218e+10 
           1035     2.75078e+10 
           1045     4.54549e+10 
           1055     4.25563e+10 
           1065     3.37793e+10 
           1075     3.91163e+10 
           1085     3.47248e+10 
           1095     3.89415e+10 
           1105     3.51607e+10 
           1115     3.39844e+10 
           1125     2.78017e+10 
           1135     3.46922e+10 
           1145     3.03217e+10 
           1155     3.18011e+10 
           1165     3.13158e+10 
           1175      1.9685e+10 
           1185     2.95621e+10 
           1195     2.64313e+10 
           1205     1.81019e+10 
           1215      8.68183e+9 
           1225      2.0783e+10 
           1235     2.69056e+10 
           1245      2.6655e+10 
           1255     2.61291e+10 
           1265     2.63438e+10 
           1275      2.6982e+10 
           1285     2.66504e+10 
           1295     1.95982e+10 
           1305     2.03599e+10 
           1315      2.5348e+10 
           1325     2.34347e+10 
           1335     2.24529e+10 
           1345     2.26784e+10 
           1355      2.2507e+10 
           1365      2.0472e+10 
           1375     1.99342e+10 
           1385     1.96454e+10 
           1395     1.51958e+10 
           1405     1.61629e+10 
           1415     1.73737e+10 
           1425     1.69816e+10 
           1435     1.73353e+10 
           1442     1.77967e+10 
           1447     1.74326e+10 
           1455     1.69306e+10 
           1465     1.56551e+10 
           1475     1.57623e+10 
           1485     1.53878e+10 
           1495     1.51492e+10 
           1505      1.3633e+10 
           1512     1.23131e+10 
           1517     1.26622e+10 
           1525      1.3056e+10 
           1535     1.12031e+10 
           1545     1.10055e+10 
           1555     1.06091e+10 
           1565     1.13288e+10 
           1575     1.19191e+10 
           1585     1.18269e+10 
           1595     1.17576e+10 
           1605     1.17948e+10 
           1615     1.14693e+10 
           1625     1.13119e+10 
           1635     1.18129e+10 
           1645      1.1672e+10 
           1655     1.15008e+10 
           1665     1.16964e+10 
           1672     1.11877e+10 
           1677     1.19327e+10 
           1685     1.16011e+10 
           1695      1.1018e+10 
           1705     1.05828e+10 
           1715     1.00851e+10 
           1725      9.83291e+9 
           1735     1.01792e+10 
           1745      9.92912e+9 
           1755      9.98105e+9 
           1765      9.65216e+9 
           1775      9.21644e+9 
           1785      9.30123e+9 
           1795      9.54222e+9 
           1805      9.54883e+9 
           1815      8.64314e+9 
           1825      8.91799e+9 
           1835      8.58968e+9 
           1845      7.83036e+9 
           1855       7.8505e+9 
           1865       7.9524e+9 
           1875      8.26911e+9 
           1885       7.3879e+9 
           1895      6.87592e+9 
           1905      7.39086e+9 
           1915      6.96984e+9 
           1925      6.63684e+9 
           1935      6.98296e+9 
           1945      7.14058e+9 
           1955      6.46015e+9 
           1967      6.93764e+9 
           1976       7.2419e+9 
           1984         6.66e+9 
           1995      6.54634e+9 
           2005      6.72589e+9 
           2015      6.63462e+9 
           2025      6.82429e+9 
           2035      6.24558e+9 
           2045      6.31617e+9 
           2055      6.09972e+9 
           2065      6.13505e+9 
           2074      6.34922e+9 
           2078      5.82907e+9 
           2085      6.04261e+9 
           2095      5.71777e+9 
           2105      5.92255e+9 
           2115      5.90348e+9 
           2125      5.96643e+9 
           2135      5.82414e+9 
           2145      5.54823e+9 
           2155      5.73463e+9 
           2165      5.68362e+9 
           2175      5.59294e+9 
           2185      5.44212e+9 
           2195      5.47772e+9 
           2205      5.41831e+9 
           2215      5.33294e+9 
           2225      5.19022e+9 
           2235       5.1211e+9 
           2245      5.13545e+9 
           2255      4.97777e+9 
           2265      5.01542e+9 
           2275      4.93583e+9 
           2285      4.91935e+9 
           2295       4.6057e+9 
           2305      4.74664e+9 
           2315      4.61483e+9 
           2325      4.56121e+9 
           2335      4.42853e+9 
           2345      4.42194e+9 
           2355      4.40899e+9 
           2365      4.34174e+9 
           2375      4.26085e+9 
           2385      4.22221e+9 
           2395      4.18433e+9 
           2405      4.09542e+9 
           2415      4.05737e+9 
           2425      4.05172e+9 
           2435      3.93489e+9 
           2445       3.9281e+9 
           2455      3.91723e+9 
           2465      3.84701e+9 
           2475      3.79385e+9 
           2485      3.74184e+9 
           2495      3.46057e+9 
           2505      3.63754e+9 
           2513      3.46808e+9 
           2518      3.58796e+9 
           2525      3.53784e+9 
           2535      3.48712e+9 
           2545      3.38985e+9 
           2555      3.41739e+9 
           2565      3.36915e+9 
           2575      3.36133e+9 
           2585      3.32669e+9 
           2595      3.28963e+9 
           2605      3.25676e+9 
           2615      3.21829e+9 
           2625      3.18846e+9 
           2635      3.15633e+9 
           2645      3.12594e+9 
           2655      3.10382e+9 
           2665      3.00414e+9 
           2675      3.00078e+9 
           2685      2.98829e+9 
           2695      2.88856e+9 
           2705      2.86065e+9 
           2715      2.84534e+9 
           2725      2.81242e+9 
           2735       2.8062e+9 
           2745      2.72159e+9 
           2755      2.71582e+9 
           2765      2.67931e+9 
           2775      2.69765e+9 
           2785      2.65481e+9 
           2795      2.55671e+9 
           2805      2.57686e+9 
           2815       2.5796e+9 
           2825      2.52455e+9 
           2835      2.43942e+9 
           2845      2.48043e+9 
           2855      2.44589e+9 
           2865      2.43546e+9 
           2875       2.4066e+9 
           2885      2.37859e+9 
           2895      2.34892e+9 
           2910      2.30373e+9 
           2930      2.26032e+9 
           2950      2.18968e+9 
           2970      2.16546e+9 
           2990      2.11101e+9 
           3010      2.05365e+9 
           3030       2.0332e+9 
           3050      1.99281e+9 
           3070      1.95546e+9 
           3090      1.89022e+9 
           3110      1.87074e+9 
           3130      1.82952e+9 
           3150      1.79573e+9 
           3170      1.75107e+9 
           3190      1.70526e+9 
           3210      1.68901e+9 
           3230      1.65137e+9 
           3250      1.62226e+9 
           3270      1.58895e+9 
           3290      1.55605e+9 
           3310      1.52874e+9 
           3330      1.49704e+9 
           3350      1.46727e+9 
           3370      1.43963e+9 
           3390      1.41469e+9 
           3410      1.38791e+9 
           3430      1.35531e+9 
           3450      1.32483e+9 
           3470      1.30272e+9 
           3490      1.27759e+9 
           3510      1.25543e+9 
           3530      1.23529e+9 
           3550      1.21307e+9 
           3570      1.19928e+9 
           3590      1.16204e+9 
           3610      1.14588e+9 
           3630      1.12462e+9 
           3640      1.12576e+9 
           3650        1.103e+9 
           3670      1.08995e+9 
           3690      1.07169e+9 
           3710      1.03406e+9 
           3730      9.99059e+8 
           3750      9.89288e+8 
           3770      9.61352e+8 
           3790      1.00009e+9 
           3810      1.04109e+9 
           3830      9.06401e+8 
           3850      1.07185e+9 
           3870      1.09058e+9 
           3890      8.48582e+8 
           3910      1.08427e+9 
           3930      1.06946e+9 
           3950      1.04678e+9 
           3970      7.89007e+8 
           3990      1.00017e+9 
           4010      1.01463e+9 
           4030      9.39916e+8 
           4050      9.90395e+8 
           4070      9.46639e+8 
           4090      8.51577e+8 
           4110        7.446e+8 
           4130      8.93824e+8 
           4150      8.95357e+8 
           4170      8.93094e+8 
           4190      8.83172e+8 
           4210      8.74142e+8 
           4230      8.55557e+8 
           4250      8.34175e+8 
           4270      8.08775e+8 
           4290      8.02378e+8 
           4310       7.7552e+8 
           4330      6.83699e+8 
           4350      6.22915e+8 
           4370      7.33203e+8 
           4390       7.1692e+8 
           4410      7.27362e+8 
           4430      7.19389e+8 
           4450      7.09227e+8 
           4470      6.58266e+8 
           4490      6.84052e+8 
           4510      6.80906e+8 
           4530      6.68776e+8 
           4550      6.58815e+8 
           4570       6.4783e+8 
           4590      6.37512e+8 
           4610      6.23855e+8 
           4630      6.13662e+8 
           4650      5.98795e+8 
           4670      5.96907e+8 
           4690      5.90936e+8 
           4710      5.66926e+8 
           4730      5.68456e+8 
           4750      5.59722e+8 
           4770      5.57803e+8 
           4790      5.47342e+8 
           4810      5.34854e+8 
           4830      5.21116e+8 
           4850      4.69004e+8 
           4870      4.16664e+8 
           4890      4.96763e+8 
           4910      4.96538e+8 
           4930      4.75327e+8 
           4950      4.84425e+8 
           4970      4.80229e+8 
           4990      4.72483e+8 
           5010      4.52419e+8 
           5030      4.58149e+8 
           5050      4.46152e+8 
           5070        4.462e+8 
           5090      4.39283e+8 
           5110      4.32273e+8 
           5130      4.23169e+8 
           5150      4.17744e+8 
           5170      4.14828e+8 
           5190      4.09343e+8 
           5210      4.02112e+8 
           5230      3.97886e+8 
           5250      3.92496e+8 
           5270      3.86592e+8 
           5290      3.81844e+8 
           5310      3.76407e+8 
           5330      3.71121e+8 
           5350      3.65325e+8 
           5370       3.6155e+8 
           5390      3.56499e+8 
           5410      3.51847e+8 
           5430      3.46615e+8 
           5450      3.41958e+8 
           5470      3.37384e+8 
           5490      3.33131e+8 
           5510      3.29066e+8 
           5530       3.2435e+8 
           5550      3.20536e+8 
           5570       3.1615e+8 
           5590      3.12252e+8 
           5610      3.07923e+8 
           5630      3.04254e+8 
           5650      2.98882e+8 
           5670       2.9414e+8 
           5690      2.90156e+8 
           5710      2.88046e+8 
           5730      2.84674e+8 
           5750      2.80509e+8 
           5770      2.77866e+8 
           5790      2.74253e+8 
           5810      2.70783e+8 
           5830      2.67033e+8 
           5850        2.639e+8 
           5870      2.50571e+8 
           5890      2.54595e+8 
           5910      2.53683e+8 
           5930      2.50347e+8 
           5950      2.46985e+8 
           5970      2.45079e+8 
           5990      2.41367e+8 
           6010      2.38981e+8 
           6030      2.35813e+8 
           6050      2.33103e+8 
           6070      2.30476e+8 
           6090      2.27644e+8 
           6110      2.24935e+8 
           6130      2.22347e+8 
           6150      2.18682e+8 
           6170      2.16663e+8 
           6190       2.1439e+8 
           6210      2.11917e+8 
           6230      2.09452e+8 
           6250       2.0658e+8 
           6270      2.04383e+8 
           6290      2.02085e+8 
           6310      1.99614e+8 
           6330      1.97462e+8 
           6350      1.94463e+8 
           6370      1.92641e+8 
           6390      1.90551e+8 
           6410      1.88373e+8 
           6430      1.86365e+8 
           6450      1.84134e+8 
           6470      1.81476e+8 
           6490      1.79545e+8 
           6510       1.7727e+8 
           6530      1.74004e+8 
           6550      1.63319e+8 
           6570      1.43055e+8 
           6590      1.65463e+8 
           6610      1.67102e+8 
           6630      1.65932e+8 
           6650       1.6439e+8 
           6670        1.604e+8 
           6690      1.58735e+8 
           6710      1.59162e+8 
           6730      1.57195e+8 
           6750      1.55735e+8 
           6770      1.54044e+8 
           6790      1.51283e+8 
           6810      1.50493e+8 
           6830      1.48919e+8 
           6850      1.47416e+8 
           6870      1.45841e+8 
           6890      1.44194e+8 
           6910      1.42587e+8 
           6930      1.41145e+8 
           6950      1.39695e+8 
           6970      1.38219e+8 
           6990      1.36736e+8 
           7010      1.35274e+8 
           7030       1.3385e+8 
           7050       1.3241e+8 
           7070      1.28564e+8 
           7090      1.29683e+8 
           7110      1.28023e+8 
           7130      1.26713e+8 
           7150      1.25637e+8 
           7170      1.24365e+8 
           7190      1.23106e+8 
           7210      1.21837e+8 
           7230      1.18886e+8 
           7250      1.19235e+8 
           7270      1.18116e+8 
           7290      1.15824e+8 
           7310      1.15706e+8 
           7330      1.14529e+8 
           7350       1.1339e+8 
           7370      1.12255e+8 
           7390      1.11117e+8 
           7410      1.10004e+8 
           7430      1.08846e+8 
           7450      1.07808e+8 
           7470      1.06488e+8 
           7490      1.05645e+8 
           7510      1.04576e+8 
           7530      1.03529e+8 
           7550      1.02578e+8 
           7570      1.01577e+8 
           7590      1.00565e+8 
           7610      9.95295e+7 
           7630      9.86007e+7 
           7650      9.76481e+7 
           7670      9.66976e+7 
           7690      9.57621e+7 
           7710       9.4835e+7 
           7730      9.39035e+7 
           7750      9.30181e+7 
           7770      9.17037e+7 
           7790      9.12458e+7 
           7810       9.0322e+7 
           7830      8.95109e+7 
           7850      8.86336e+7 
           7870      8.77579e+7 
           7890      8.67507e+7 
           7910      8.61862e+7 
           7930      8.53806e+7 
           7950      8.44687e+7 
           7970      8.36717e+7 
           7990      8.27694e+7 
           8010      8.20747e+7 
           8030      8.12983e+7 
           8050      8.05344e+7 
           8070      7.97945e+7 
           8090      7.89917e+7 
           8110      7.81272e+7 
           8130       7.7635e+7 
           8150      7.68971e+7 
           8170      7.62558e+7 
           8190      7.53896e+7 
           8210      7.45644e+7 
           8230      7.38965e+7 
           8250      7.34391e+7 
           8270      7.23021e+7 
           8290      7.20907e+7 
           8310      7.14877e+7 
           8330      7.08191e+7 
           8350      6.98643e+7 
           8370       6.9434e+7 
           8390      6.89589e+7 
           8410       6.8333e+7 
           8430      6.76964e+7 
           8450      6.64846e+7 
           8470      6.65176e+7 
           8490      6.57499e+7 
           8510      6.52851e+7 
           8530      6.45806e+7 
           8550      6.39078e+7 
           8570      6.37484e+7 
           8590      6.19304e+7 
