# Kurucz ODFNEW /NOVER (2003)
# teff = 20000 K (value for the effective temperature for the model. Temperatures are given in K)
# logg = 4.5 log(cm/s2) (value for Log(G) for the model.)
# meta = -2.5  (value for the Metallicity for the model.)
# lh = 1.25  (l/Hp where l is the  mixing length of the convective element and Hp is the pressure scale height)
# vtur = 2 km/s (Microturbulence velocity)
# alpha = 0.4  (Alpha)
#
# column 1: WAVELENGTH (ANGSTROM), Wavelength in Angstrom
# column 2: FLUX (ERG/CM2/S/A), Flux in erg/cm2/s/A
          147.2     5.19876e-21 
            151     3.59463e-20 
          155.2     2.73894e-19 
          158.8     1.43736e-18 
            162     5.91392e-18 
            166     3.21975e-17 
          170.3     1.82766e-16 
          173.4       6.065e-16 
          176.8     2.15589e-15 
          180.2     7.31299e-15 
          181.7     1.23569e-14 
          186.1     5.48584e-14 
            191     2.66244e-13 
          193.9     6.52762e-13 
          198.4     2.49328e-12 
          201.8     6.59927e-12 
            205     1.60176e-11 
          210.5     6.89306e-11 
          216.2     2.89085e-10 
          219.8     6.87613e-10 
            223      1.44952e-9 
          226.8      3.41866e-9 
            230      8.11571e-9 
            234      1.95052e-8 
            240      6.52723e-8 
          246.5      2.25019e-7 
          252.4      6.54279e-7 
          256.8      1.39783e-6 
            260      2.40171e-6 
            264      4.61517e-6 
          268.5      9.38789e-6 
          273.5      2.00819e-5 
          278.5      4.17819e-5 
            284      9.06559e-5 
            290     0.000203765 
            296     0.000442318 
            301     0.000823556 
            308       0.0018931 
            318      0.00583736 
            328        0.016712 
            338       0.0447911 
            348         0.11304 
            357        0.247981 
            366        0.522026 
            375         1.05733 
            385         2.22202 
            395         4.48333 
            405         8.71444 
            414         15.3841 
            422          24.937 
            430          39.633 
            441         72.7323 
            451         122.783 
            460         192.531 
            470         310.405 
            480         489.601 
            490         756.424 
            500         1146.16 
            506         8658.56 
            512         24373.4 
            520         31587.3 
            530           47061 
            540         55032.7 
            550         80562.8 
            560          102785 
            570          130829 
            580          141901 
            590          194653 
            600          252534 
            610          310344 
            620          376759 
            630          455597 
            640          543839 
            650          651238 
            658          746552 
            665          837481 
            675          980964 
            685      1.14145e+6 
            695      1.33666e+6 
            705      1.54474e+6 
            716       1.8007e+6 
            726      2.06249e+6 
            735      2.32541e+6 
            745      2.64391e+6 
            755      2.99368e+6 
            765      3.37278e+6 
            775       3.7931e+6 
            785      4.24699e+6 
            795      4.73695e+6 
            805      5.26959e+6 
            815      5.84073e+6 
            825      6.45885e+6 
            835      7.05019e+6 
            845       7.8224e+6 
            855      8.56553e+6 
            865      9.37965e+6 
            875      1.02259e+7 
            885      1.11375e+7 
            895      1.20916e+7 
            905      1.29975e+7 
            915      2.24348e+7 
            925      8.82972e+7 
            935      2.68159e+8 
            945      1.64828e+9 
            955       4.4913e+9 
            965      6.52139e+9 
            975      1.87833e+9 
            985     1.08733e+10 
            995     1.20067e+10 
           1005     1.20737e+10 
           1015       8.6095e+9 
           1025      9.16988e+8 
           1035      7.09692e+9 
           1045      1.1647e+10 
           1055     1.19177e+10 
           1065     1.13435e+10 
           1075     1.16143e+10 
           1085     1.09391e+10 
           1095     1.13101e+10 
           1105     1.07086e+10 
           1115      1.0622e+10 
           1125     1.01461e+10 
           1135     1.02471e+10 
           1145      9.81231e+9 
           1155      9.87075e+9 
           1165      9.68897e+9 
           1175      8.83003e+9 
           1185      9.12644e+9 
           1195      7.96948e+9 
           1205      5.36233e+9 
           1215      7.09858e+8 
           1225      4.69159e+9 
           1235      7.57942e+9 
           1245      7.98945e+9 
           1255      7.89277e+9 
           1265      7.78661e+9 
           1275      7.82299e+9 
           1285      7.68688e+9 
           1295      7.17123e+9 
           1305      7.03388e+9 
           1315       7.2713e+9 
           1325      7.05596e+9 
           1335      6.80416e+9 
           1345      6.85809e+9 
           1355      6.76237e+9 
           1365      6.61108e+9 
           1375      6.50849e+9 
           1385      6.40777e+9 
           1395      6.19834e+9 
           1405      6.12855e+9 
           1415      6.05992e+9 
           1425      5.97405e+9 
           1435       5.8759e+9 
           1442      5.81537e+9 
           1447      5.76391e+9 
           1455      5.68148e+9 
           1465      5.58207e+9 
           1475      5.48863e+9 
           1485      5.38967e+9 
           1495      5.30213e+9 
           1505      5.18933e+9 
           1512      5.13925e+9 
           1517      5.10755e+9 
           1525      5.02495e+9 
           1535      4.90133e+9 
           1545      4.86808e+9 
           1555      4.76952e+9 
           1565      4.71276e+9 
           1575      4.65083e+9 
           1585      4.57643e+9 
           1595      4.51094e+9 
           1605      4.41176e+9 
           1615      4.34054e+9 
           1625      4.29541e+9 
           1635       4.2333e+9 
           1645      4.15498e+9 
           1655      4.09736e+9 
           1665      4.04978e+9 
           1672       3.9456e+9 
           1677      3.97596e+9 
           1685      3.92927e+9 
           1695      3.86574e+9 
           1705       3.8016e+9 
           1715      3.73716e+9 
           1725      3.68307e+9 
           1735      3.63911e+9 
           1745      3.58304e+9 
           1755      3.53903e+9 
           1765      3.44679e+9 
           1775      3.42935e+9 
           1785      3.38158e+9 
           1795      3.34166e+9 
           1805       3.2926e+9 
           1815      3.24292e+9 
           1825       3.2025e+9 
           1835      3.15673e+9 
           1845      3.09881e+9 
           1855      3.02005e+9 
           1865      2.98635e+9 
           1875      2.98094e+9 
           1885      2.92225e+9 
           1895      2.86012e+9 
           1905      2.85696e+9 
           1915      2.79278e+9 
           1925      2.75703e+9 
           1935      2.73283e+9 
           1945      2.70969e+9 
           1955      2.65335e+9 
           1967      2.63364e+9 
           1976      2.60912e+9 
           1984      2.57118e+9 
           1995      2.51943e+9 
           2005      2.50852e+9 
           2015      2.47997e+9 
           2025      2.45158e+9 
           2035      2.41672e+9 
           2045      2.38594e+9 
           2055      2.32647e+9 
           2065      2.31415e+9 
           2074       2.3026e+9 
           2078      2.27167e+9 
           2085      2.26893e+9 
           2095      2.23324e+9 
           2105       2.2142e+9 
           2115      2.18927e+9 
           2125      2.16471e+9 
           2135      2.13745e+9 
           2145      2.11036e+9 
           2155       2.0862e+9 
           2165      2.06006e+9 
           2175      2.03511e+9 
           2185      2.01155e+9 
           2195      1.98857e+9 
           2205      1.96399e+9 
           2215      1.94015e+9 
           2225      1.91659e+9 
           2235       1.8957e+9 
           2245      1.87362e+9 
           2255      1.85097e+9 
           2265       1.8304e+9 
           2275      1.80874e+9 
           2285      1.78868e+9 
           2295      1.76405e+9 
           2305      1.74728e+9 
           2315      1.72674e+9 
           2325      1.70774e+9 
           2335      1.68575e+9 
           2345      1.66249e+9 
           2355      1.64956e+9 
           2365      1.62816e+9 
           2375      1.61201e+9 
           2385      1.58951e+9 
           2395      1.57377e+9 
           2405      1.55726e+9 
           2415      1.53974e+9 
           2425       1.5261e+9 
           2435      1.50845e+9 
           2445      1.49191e+9 
           2455      1.47691e+9 
           2465       1.4598e+9 
           2475      1.44471e+9 
           2485      1.42908e+9 
           2495      1.40778e+9 
           2505      1.39879e+9 
           2513      1.38482e+9 
           2518      1.37921e+9 
           2525      1.36815e+9 
           2535      1.35239e+9 
           2545      1.33841e+9 
           2555      1.32668e+9 
           2565      1.31155e+9 
           2575      1.29934e+9 
           2585      1.28547e+9 
           2595      1.27183e+9 
           2605      1.26486e+9 
           2615      1.25295e+9 
           2625      1.24069e+9 
           2635      1.22646e+9 
           2645      1.21548e+9 
           2655      1.20153e+9 
           2665      1.18659e+9 
           2675      1.17395e+9 
           2685       1.1684e+9 
           2695      1.14906e+9 
           2705      1.14486e+9 
           2715      1.13312e+9 
           2725      1.11366e+9 
           2735      1.11071e+9 
           2745      1.09629e+9 
           2755      1.08596e+9 
           2765      1.06959e+9 
           2775      1.06753e+9 
           2785      1.05681e+9 
           2795      1.03243e+9 
           2805      1.02968e+9 
           2815      1.02642e+9 
           2825      1.00685e+9 
           2835      1.00121e+9 
           2845       9.9665e+8 
           2855       9.8723e+8 
           2865      9.77827e+8 
           2875      9.68393e+8 
           2885      9.59201e+8 
           2895      9.50114e+8 
           2910      9.36607e+8 
           2930      9.18599e+8 
           2950      8.96185e+8 
           2970      8.85096e+8 
           2990      8.68659e+8 
           3010      8.52829e+8 
           3030      8.37259e+8 
           3050      8.22062e+8 
           3070      8.07189e+8 
           3090       7.9267e+8 
           3110      7.78496e+8 
           3130       7.6531e+8 
           3150      7.51712e+8 
           3170       7.3847e+8 
           3190       7.2054e+8 
           3210      7.12649e+8 
           3230       7.0024e+8 
           3250      6.88082e+8 
           3270      6.76802e+8 
           3290      6.64665e+8 
           3310      6.53975e+8 
           3330       6.4295e+8 
           3350      6.31402e+8 
           3370      6.21541e+8 
           3390      6.11213e+8 
           3410      6.01116e+8 
           3430      5.89932e+8 
           3450       5.7906e+8 
           3470      5.70652e+8 
           3490      5.61378e+8 
           3510      5.52919e+8 
           3530      5.44555e+8 
           3550      5.35746e+8 
           3570      5.29051e+8 
           3590      5.18437e+8 
           3610      5.11292e+8 
           3630      5.02214e+8 
           3640      5.00511e+8 
           3650      4.96584e+8 
           3670      4.90767e+8 
           3690      4.81311e+8 
           3710      4.65297e+8 
           3730      4.44589e+8 
           3750      4.72007e+8 
           3770      4.77084e+8 
           3790      5.20452e+8 
           3810      5.56059e+8 
           3830      4.70883e+8 
           3850      5.85916e+8 
           3870       6.0825e+8 
           3890      4.38519e+8 
           3910      6.00797e+8 
           3930      6.03844e+8 
           3950       5.8403e+8 
           3970      4.10769e+8 
           3990      5.57566e+8 
           4010      5.66848e+8 
           4030       5.2934e+8 
           4050      5.56854e+8 
           4070      5.43367e+8 
           4090       4.7431e+8 
           4110      3.99252e+8 
           4130      5.07661e+8 
           4150      5.07942e+8 
           4170      5.05356e+8 
           4190      4.99406e+8 
           4210       4.9142e+8 
           4230      4.83563e+8 
           4250      4.75831e+8 
           4270      4.67459e+8 
           4290      4.58832e+8 
           4310      4.46492e+8 
           4330      3.81413e+8 
           4350      3.41998e+8 
           4370      4.23584e+8 
           4390      4.09724e+8 
           4410       4.1853e+8 
           4430       4.1092e+8 
           4450      4.06379e+8 
           4470      3.78447e+8 
           4490      3.93471e+8 
           4510      3.88544e+8 
           4530      3.82679e+8 
           4550      3.76939e+8 
           4570       3.7132e+8 
           4590       3.6582e+8 
           4610      3.60401e+8 
           4630       3.5508e+8 
           4650       3.4982e+8 
           4670      3.44722e+8 
           4690      3.39699e+8 
           4710      3.30299e+8 
           4730      3.29869e+8 
           4750      3.25077e+8 
           4770      3.20469e+8 
           4790      3.15335e+8 
           4810      3.09771e+8 
           4830      3.01818e+8 
           4850      2.64836e+8 
           4870      2.31182e+8 
           4890      2.86689e+8 
           4910      2.87609e+8 
           4930      2.77236e+8 
           4950      2.81811e+8 
           4970      2.78068e+8 
           4990      2.74225e+8 
           5010      2.66906e+8 
           5030      2.66724e+8 
           5050      2.61395e+8 
           5070      2.59527e+8 
           5090      2.55994e+8 
           5110      2.52537e+8 
           5130       2.4914e+8 
           5150      2.45789e+8 
           5170      2.42495e+8 
           5190      2.39273e+8 
           5210      2.36052e+8 
           5230      2.32955e+8 
           5250      2.29885e+8 
           5270      2.26869e+8 
           5290      2.23891e+8 
           5310      2.20965e+8 
           5330       2.1809e+8 
           5350      2.15251e+8 
           5370      2.12475e+8 
           5390      2.09747e+8 
           5410      2.07054e+8 
           5430      2.04381e+8 
           5450      2.01781e+8 
           5470      1.99212e+8 
           5490      1.96701e+8 
           5510      1.94209e+8 
           5530      1.91759e+8 
           5550      1.89352e+8 
           5570      1.86987e+8 
           5590      1.84651e+8 
           5610      1.82355e+8 
           5630      1.80099e+8 
           5650      1.77859e+8 
           5670      1.75669e+8 
           5690      1.73528e+8 
           5710      1.71402e+8 
           5730      1.69312e+8 
           5750      1.67248e+8 
           5770      1.65231e+8 
           5790      1.63226e+8 
           5810      1.61267e+8 
           5830      1.59331e+8 
           5850      1.57418e+8 
           5870      1.50651e+8 
           5890      1.53397e+8 
           5910      1.51865e+8 
           5930      1.50071e+8 
           5950      1.48297e+8 
           5970      1.46555e+8 
           5990      1.44843e+8 
           6010      1.43151e+8 
           6030      1.41488e+8 
           6050      1.39844e+8 
           6070      1.38218e+8 
           6090      1.36631e+8 
           6110      1.35062e+8 
           6130       1.3351e+8 
           6150      1.31986e+8 
           6170      1.30479e+8 
           6190      1.28998e+8 
           6210      1.27533e+8 
           6230      1.26094e+8 
           6250      1.24672e+8 
           6270      1.23274e+8 
           6290      1.21891e+8 
           6310      1.20524e+8 
           6330       1.1919e+8 
           6350      1.17833e+8 
           6370      1.16546e+8 
           6390      1.15273e+8 
           6410      1.13996e+8 
           6430       1.1275e+8 
           6450      1.11509e+8 
           6470       1.1029e+8 
           6490      1.09003e+8 
           6510      1.07489e+8 
           6530      1.05507e+8 
           6550      9.80054e+7 
           6570      8.53349e+7 
           6590      1.00905e+8 
           6610      1.01615e+8 
           6630      1.00874e+8 
           6650      1.00098e+8 
           6670      9.80249e+7 
           6690      9.70188e+7 
           6710      9.69517e+7 
           6730      9.59355e+7 
           6750      9.49213e+7 
           6770      9.39257e+7 
           6790      9.29483e+7 
           6810      9.19807e+7 
           6830      9.10229e+7 
           6850      9.00746e+7 
           6870      8.91439e+7 
           6890      8.82303e+7 
           6910      8.73179e+7 
           6930      8.64224e+7 
           6950      8.55436e+7 
           6970      8.46656e+7 
           6990       8.3804e+7 
           7010      8.29585e+7 
           7030      8.21136e+7 
           7050      8.12846e+7 
           7070      7.93255e+7 
           7090       7.9658e+7 
           7110      7.88602e+7 
           7130      7.80776e+7 
           7150       7.7295e+7 
           7170        7.652e+7 
           7190      7.57669e+7 
           7210      7.50211e+7 
           7230      7.42679e+7 
           7250      7.35505e+7 
           7270      7.28256e+7 
           7290      7.16539e+7 
           7310      7.14033e+7 
           7330      7.07127e+7 
           7350      7.00285e+7 
           7370      6.93487e+7 
           7390      6.86779e+7 
           7410      6.80154e+7 
           7430      6.73603e+7 
           7450      6.67202e+7 
           7470      6.60812e+7 
           7490      6.54494e+7 
           7510       6.4812e+7 
           7530      6.42098e+7 
           7550       6.3601e+7 
           7570      6.29992e+7 
           7590      6.24047e+7 
           7610      6.18176e+7 
           7630       6.1237e+7 
           7650      6.06636e+7 
           7670      6.00966e+7 
           7690      5.95366e+7 
           7710      5.89829e+7 
           7730      5.84353e+7 
           7750      5.78945e+7 
           7770      5.73479e+7 
           7790      5.68321e+7 
           7810      5.62919e+7 
           7830      5.57933e+7 
           7850      5.53138e+7 
           7870      5.48085e+7 
           7890      5.43005e+7 
           7910      5.38191e+7 
           7930      5.33311e+7 
           7950      5.28485e+7 
           7970      5.23606e+7 
           7990      5.18964e+7 
           8010      5.14344e+7 
           8030      5.09734e+7 
           8050       5.0517e+7 
           8070      5.00668e+7 
           8090      4.95841e+7 
           8110      4.91485e+7 
           8130      4.87366e+7 
           8150      4.82646e+7 
           8170      4.78801e+7 
           8190      4.74281e+7 
           8210      4.69648e+7 
           8230      4.66372e+7 
           8250      4.62509e+7 
           8270      4.57261e+7 
           8290       4.5451e+7 
           8310      4.50781e+7 
           8330        4.468e+7 
           8350      4.41674e+7 
           8370      4.38802e+7 
           8390      4.35482e+7 
           8410      4.31554e+7 
           8430      4.27489e+7 
           8450       4.2216e+7 
           8470      4.19255e+7 
           8490      4.15661e+7 
           8510      4.10537e+7 
           8530      4.08883e+7 
           8550      3.98629e+7 
           8570      4.05798e+7 
