# Kurucz ODFNEW /NOVER (2003)
# teff = 22000 K (value for the effective temperature for the model. Temperatures are given in K)
# logg = 4 log(cm/s2) (value for Log(G) for the model.)
# meta = -1  (value for the Metallicity for the model.)
# lh = 1.25  (l/Hp where l is the  mixing length of the convective element and Hp is the pressure scale height)
# vtur = 2 km/s (Microturbulence velocity)
# alpha = 0.4  (Alpha)
#
# column 1: WAVELENGTH (ANGSTROM), Wavelength in Angstrom
# column 2: FLUX (ERG/CM2/S/A), Flux in erg/cm2/s/A
          147.2      1.4579e-17 
            151     7.78606e-17 
          155.2     4.53679e-16 
          158.8      1.9188e-15 
            162      6.5843e-15 
            166     2.89041e-14 
          170.3     1.31937e-13 
          173.4      3.7765e-13 
          176.8     1.15019e-12 
          180.2     3.36866e-12 
          181.7     5.34692e-12 
          186.1     1.99279e-11 
            191     8.06074e-11 
          193.9     1.78539e-10 
          198.4     5.86907e-10 
          201.8       1.3944e-9 
            205      3.06959e-9 
          210.5      1.12857e-8 
          216.2      4.06273e-8 
          219.8      8.82091e-8 
            223      1.72073e-7 
          226.8      3.71279e-7 
            230      5.12366e-6 
            234      1.24758e-5 
            240      3.42425e-5 
          246.5      9.64295e-5 
          252.4     0.000238022 
          256.8      0.00043911 
            260     0.000707872 
            264      0.00122263 
          268.5      0.00221364 
          273.5      0.00417623 
          278.5      0.00772671 
            284       0.0148485 
            290       0.0292541 
            296       0.0559401 
            301       0.0941688 
            308         0.18591 
            318        0.490526 
            328         1.17787 
            338          2.7244 
            348         5.94472 
            357         11.7548 
            366         22.2383 
            375         40.0639 
            385         75.1832 
            395         135.666 
            405         237.763 
            414         385.838 
            422         577.266 
            430         852.134 
            441         1428.75 
            451         2234.25 
            460         3264.16 
            470         4899.36 
            480         7201.68 
            490           10429 
            500         14858.7 
            506          124606 
            512          420944 
            520          528494 
            530          734026 
            540          818366 
            550      1.18025e+6 
            560      1.42066e+6 
            570      1.77477e+6 
            580      1.80917e+6 
            590      2.42542e+6 
            600      2.99353e+6 
            610      3.61806e+6 
            620      4.17558e+6 
            630      4.89824e+6 
            640      5.42855e+6 
            650      6.04524e+6 
            658      7.22667e+6 
            665      7.89417e+6 
            675      8.71738e+6 
            685      9.79348e+6 
            695      1.15353e+7 
            705      1.27392e+7 
            716      1.45597e+7 
            726       1.5984e+7 
            735      1.76152e+7 
            745      1.98456e+7 
            755      2.19564e+7 
            765      2.41252e+7 
            775      2.66679e+7 
            785      2.92702e+7 
            795      3.15779e+7 
            805       3.4352e+7 
            815      3.69773e+7 
            825       4.0412e+7 
            835      4.21671e+7 
            845      4.62343e+7 
            855      4.95302e+7 
            865      5.35167e+7 
            875      5.76836e+7 
            885      6.21978e+7 
            895      6.63042e+7 
            905      6.89592e+7 
            915      1.08255e+8 
            925      6.52829e+8 
            935      2.22131e+9 
            945      7.21756e+9 
            955     1.10463e+10 
            965     1.45538e+10 
            975      3.72998e+9 
            985     1.66565e+10 
            995     1.57728e+10 
           1005     1.69009e+10 
           1015     1.53471e+10 
           1025      4.33304e+9 
           1035     1.21214e+10 
           1045     1.82078e+10 
           1055     1.73945e+10 
           1065     1.50433e+10 
           1075     1.67037e+10 
           1085      1.5305e+10 
           1095     1.66512e+10 
           1105     1.50204e+10 
           1115     1.47307e+10 
           1125     1.34936e+10 
           1135     1.52391e+10 
           1145     1.38086e+10 
           1155     1.44555e+10 
           1165     1.45257e+10 
           1175     1.15451e+10 
           1185     1.40274e+10 
           1195     1.21303e+10 
           1205       8.0749e+9 
           1215      3.29537e+9 
           1225       9.8185e+9 
           1235     1.23287e+10 
           1245      1.2551e+10 
           1255     1.21568e+10 
           1265      1.1902e+10 
           1275     1.21881e+10 
           1285     1.19191e+10 
           1295      9.32105e+9 
           1305      9.36434e+9 
           1315     1.13313e+10 
           1325     1.07953e+10 
           1335     1.03154e+10 
           1345     1.04254e+10 
           1355     1.04336e+10 
           1365      9.85424e+9 
           1375      9.70186e+9 
           1385      9.69483e+9 
           1395      8.40332e+9 
           1405      8.70742e+9 
           1415      9.01584e+9 
           1425      8.86693e+9 
           1435      8.88721e+9 
           1442      8.98648e+9 
           1447      8.83218e+9 
           1455       8.6499e+9 
           1465      8.34247e+9 
           1475        8.228e+9 
           1485      8.01352e+9 
           1495      7.90246e+9 
           1505      7.46698e+9 
           1512      7.08688e+9 
           1517      7.23063e+9 
           1525      7.23288e+9 
           1535       6.6943e+9 
           1545      6.78753e+9 
           1555      6.47024e+9 
           1565      6.62715e+9 
           1575      6.75057e+9 
           1585      6.62457e+9 
           1595      6.61787e+9 
           1605      6.43212e+9 
           1615      6.32556e+9 
           1625      6.25679e+9 
           1635      6.32593e+9 
           1645      6.20387e+9 
           1655      6.07218e+9 
           1665      6.12176e+9 
           1672      5.94138e+9 
           1677      6.08256e+9 
           1685      5.99123e+9 
           1695      5.80169e+9 
           1705      5.60852e+9 
           1715      5.40382e+9 
           1725      5.33869e+9 
           1735      5.36881e+9 
           1745      5.26563e+9 
           1755      5.28346e+9 
           1765      5.03947e+9 
           1775      4.98416e+9 
           1785      4.95046e+9 
           1795       5.0001e+9 
           1805      4.95584e+9 
           1815      4.70594e+9 
           1825      4.75665e+9 
           1835      4.64162e+9 
           1845      4.34387e+9 
           1855      4.28402e+9 
           1865      4.31315e+9 
           1875      4.39125e+9 
           1885      4.07601e+9 
           1895      3.85854e+9 
           1905      4.05275e+9 
           1915      3.88859e+9 
           1925      3.77449e+9 
           1935      3.86939e+9 
           1945      3.89942e+9 
           1955      3.64771e+9 
           1967       3.7933e+9 
           1976      3.88927e+9 
           1984       3.6768e+9 
           1995      3.58392e+9 
           2005      3.62839e+9 
           2015      3.61102e+9 
           2025      3.65657e+9 
           2035      3.46816e+9 
           2045      3.45099e+9 
           2055      3.34487e+9 
           2065      3.37404e+9 
           2074      3.43293e+9 
           2078      3.28912e+9 
           2085      3.31933e+9 
           2095      3.19424e+9 
           2105      3.23802e+9 
           2115      3.21126e+9 
           2125      3.23642e+9 
           2135      3.17072e+9 
           2145       3.0686e+9 
           2155      3.10532e+9 
           2165      3.06867e+9 
           2175      3.02204e+9 
           2185      2.98071e+9 
           2195      2.96737e+9 
           2205       2.9244e+9 
           2215        2.887e+9 
           2225      2.82899e+9 
           2235      2.80117e+9 
           2245      2.78778e+9 
           2255      2.73044e+9 
           2265      2.72386e+9 
           2275      2.68789e+9 
           2285      2.66924e+9 
           2295      2.58524e+9 
           2305      2.59462e+9 
           2315      2.54519e+9 
           2325      2.51965e+9 
           2335      2.45596e+9 
           2345      2.42821e+9 
           2355        2.431e+9 
           2365      2.38752e+9 
           2375      2.36245e+9 
           2385      2.32804e+9 
           2395       2.3116e+9 
           2405       2.2786e+9 
           2415      2.24517e+9 
           2425      2.24572e+9 
           2435      2.20215e+9 
           2445        2.185e+9 
           2455      2.17167e+9 
           2465      2.13735e+9 
           2475      2.11494e+9 
           2485      2.09143e+9 
           2495      2.01339e+9 
           2505      2.04178e+9 
           2513      1.98358e+9 
           2518      2.00732e+9 
           2525      1.98651e+9 
           2535      1.95938e+9 
           2545      1.91778e+9 
           2555      1.92819e+9 
           2565      1.89641e+9 
           2575      1.89415e+9 
           2585      1.87377e+9 
           2595      1.85309e+9 
           2605      1.84228e+9 
           2615      1.82381e+9 
           2625        1.806e+9 
           2635      1.78239e+9 
           2645      1.77562e+9 
           2655      1.75537e+9 
           2665       1.7243e+9 
           2675      1.71227e+9 
           2685       1.7055e+9 
           2695      1.66833e+9 
           2705      1.66508e+9 
           2715      1.64665e+9 
           2725      1.61536e+9 
           2735       1.6145e+9 
           2745      1.57531e+9 
           2755      1.56593e+9 
           2765      1.54728e+9 
           2775      1.54999e+9 
           2785      1.53072e+9 
           2795      1.47754e+9 
           2805      1.48862e+9 
           2815      1.48681e+9 
           2825      1.45648e+9 
           2835      1.42986e+9 
           2845      1.43817e+9 
           2855      1.42414e+9 
           2865      1.41247e+9 
           2875      1.39714e+9 
           2885       1.3839e+9 
           2895      1.36941e+9 
           2910      1.34763e+9 
           2930      1.31741e+9 
           2950      1.28514e+9 
           2970      1.26986e+9 
           2990      1.24214e+9 
           3010      1.21862e+9 
           3030       1.1977e+9 
           3050      1.17455e+9 
           3070      1.15226e+9 
           3090      1.12576e+9 
           3110      1.10798e+9 
           3130      1.08809e+9 
           3150      1.06768e+9 
           3170      1.04705e+9 
           3190      1.01897e+9 
           3210      1.00861e+9 
           3230       9.8966e+8 
           3250      9.71775e+8 
           3270      9.55203e+8 
           3290      9.36455e+8 
           3310      9.21218e+8 
           3330       9.0458e+8 
           3350      8.86762e+8 
           3370      8.72519e+8 
           3390      8.57272e+8 
           3410      8.42256e+8 
           3430      8.23624e+8 
           3450      8.06316e+8 
           3470      7.94639e+8 
           3490      7.80857e+8 
           3510      7.70271e+8 
           3530      7.58756e+8 
           3550      7.46165e+8 
           3570      7.37207e+8 
           3590      7.20071e+8 
           3610      7.09253e+8 
           3630       6.9657e+8 
           3640      6.95336e+8 
           3650      6.83585e+8 
           3670      6.75483e+8 
           3690      6.60102e+8 
           3710      6.39018e+8 
           3730       6.1729e+8 
           3750      6.62347e+8 
           3770      6.68088e+8 
           3790      7.08526e+8 
           3810       7.4136e+8 
           3830       6.4357e+8 
           3850      7.64794e+8 
           3870      7.71323e+8 
           3890      6.09605e+8 
           3910      7.61857e+8 
           3930      7.45927e+8 
           3950      7.37402e+8 
           3970       5.6738e+8 
           3990      7.07428e+8 
           4010      7.05051e+8 
           4030      6.63021e+8 
           4050      6.89287e+8 
           4070       6.7109e+8 
           4090      6.16866e+8 
           4110      5.36254e+8 
           4130      6.29513e+8 
           4150      6.26523e+8 
           4170      6.22152e+8 
           4190      6.14446e+8 
           4210      6.05646e+8 
           4230      5.95321e+8 
           4250      5.84663e+8 
           4270      5.70934e+8 
           4290      5.64866e+8 
           4310      5.52294e+8 
           4330      4.97734e+8 
           4350      4.52254e+8 
           4370        5.251e+8 
           4390      5.07229e+8 
           4410      5.13584e+8 
           4430       5.0435e+8 
           4450      4.99046e+8 
           4470      4.69118e+8 
           4490      4.81374e+8 
           4510      4.77022e+8 
           4530      4.69239e+8 
           4550      4.61738e+8 
           4570      4.54621e+8 
           4590      4.48093e+8 
           4610      4.41306e+8 
           4630       4.3469e+8 
           4650      4.26307e+8 
           4670      4.21678e+8 
           4690       4.1624e+8 
           4710      4.03118e+8 
           4730      4.02562e+8 
           4750      3.96207e+8 
           4770       3.9256e+8 
           4790      3.86678e+8 
           4810       3.7974e+8 
           4830      3.72129e+8 
           4850      3.42127e+8 
           4870      3.04409e+8 
           4890      3.55538e+8 
           4910      3.53069e+8 
           4930      3.40135e+8 
           4950      3.44265e+8 
           4970      3.39898e+8 
           4990         3.35e+8 
           5010      3.25007e+8 
           5030      3.25554e+8 
           5050      3.17751e+8 
           5070      3.16832e+8 
           5090      3.12399e+8 
           5110       3.0801e+8 
           5130      3.03566e+8 
           5150      2.99452e+8 
           5170      2.95716e+8 
           5190      2.91707e+8 
           5210       2.8696e+8 
           5230      2.83956e+8 
           5250      2.80157e+8 
           5270      2.76366e+8 
           5290      2.72772e+8 
           5310      2.69132e+8 
           5330      2.65471e+8 
           5350       2.6174e+8 
           5370       2.5867e+8 
           5390      2.55263e+8 
           5410      2.51924e+8 
           5430      2.48334e+8 
           5450      2.45272e+8 
           5470      2.42109e+8 
           5490      2.39161e+8 
           5510      2.36076e+8 
           5530      2.33028e+8 
           5550      2.30117e+8 
           5570      2.27143e+8 
           5590      2.24339e+8 
           5610      2.21366e+8 
           5630      2.18738e+8 
           5650      2.15458e+8 
           5670      2.12839e+8 
           5690      2.10298e+8 
           5710      2.07961e+8 
           5730      2.05422e+8 
           5750      2.02776e+8 
           5770      2.00422e+8 
           5790      1.97972e+8 
           5810      1.95529e+8 
           5830      1.93126e+8 
           5850      1.90806e+8 
           5870       1.8274e+8 
           5890      1.85682e+8 
           5910      1.83953e+8 
           5930      1.81739e+8 
           5950      1.79434e+8 
           5970      1.77473e+8 
           5990      1.75261e+8 
           6010      1.73293e+8 
           6030      1.71234e+8 
           6050      1.69228e+8 
           6070      1.67246e+8 
           6090      1.65266e+8 
           6110      1.63368e+8 
           6130      1.61472e+8 
           6150      1.59447e+8 
           6170      1.57732e+8 
           6190      1.55938e+8 
           6210      1.54144e+8 
           6230      1.52369e+8 
           6250      1.50576e+8 
           6270      1.48898e+8 
           6290       1.4721e+8 
           6310      1.45493e+8 
           6330      1.43908e+8 
           6350      1.41956e+8 
           6370      1.40518e+8 
           6390      1.39087e+8 
           6410      1.37523e+8 
           6430       1.3604e+8 
           6450      1.34519e+8 
           6470      1.32977e+8 
           6490      1.31542e+8 
           6510      1.29988e+8 
           6530         1.28e+8 
           6550      1.21995e+8 
           6570      1.07988e+8 
           6590       1.2274e+8 
           6610      1.22869e+8 
           6630      1.21829e+8 
           6650      1.20586e+8 
           6670      1.18102e+8 
           6690      1.16867e+8 
           6710      1.16757e+8 
           6730      1.15499e+8 
           6750      1.14294e+8 
           6770      1.13086e+8 
           6790      1.11767e+8 
           6810      1.10689e+8 
           6830      1.09517e+8 
           6850       1.0838e+8 
           6870      1.07247e+8 
           6890      1.06118e+8 
           6910      1.05015e+8 
           6930      1.03908e+8 
           6950       1.0285e+8 
           6970      1.01788e+8 
           6990      1.00728e+8 
           7010      9.96943e+7 
           7030      9.86705e+7 
           7050      9.76567e+7 
           7070      9.51077e+7 
           7090      9.56885e+7 
           7110      9.47187e+7 
           7130      9.37583e+7 
           7150      9.27997e+7 
           7170      9.18577e+7 
           7190      9.09539e+7 
           7210      9.00441e+7 
           7230      8.86602e+7 
           7250      8.82362e+7 
           7270      8.73736e+7 
           7290      8.58032e+7 
           7310      8.56375e+7 
           7330      8.48062e+7 
           7350      8.39757e+7 
           7370       8.3146e+7 
           7390      8.23309e+7 
           7410      8.15303e+7 
           7430      8.07235e+7 
           7450      7.99581e+7 
           7470      7.91592e+7 
           7490      7.84146e+7 
           7510      7.76302e+7 
           7530      7.69127e+7 
           7550      7.61753e+7 
           7570      7.54512e+7 
           7590      7.47206e+7 
           7610      7.40096e+7 
           7630      7.33115e+7 
           7650      7.26132e+7 
           7670      7.19277e+7 
           7690      7.12482e+7 
           7710      7.05749e+7 
           7730      6.99138e+7 
           7750      6.92524e+7 
           7770      6.84221e+7 
           7790      6.79718e+7 
           7810      6.72845e+7 
           7830      6.67138e+7 
           7850      6.61298e+7 
           7870      6.55143e+7 
           7890      6.48316e+7 
           7910      6.43536e+7 
           7930      6.37539e+7 
           7950      6.30401e+7 
           7970      6.24216e+7 
           7990      6.18204e+7 
           8010      6.12948e+7 
           8030      6.07327e+7 
           8050       6.0193e+7 
           8070      5.97157e+7 
           8090      5.90466e+7 
           8110      5.86011e+7 
           8130      5.81365e+7 
           8150      5.75339e+7 
           8170       5.7134e+7 
           8190      5.65295e+7 
           8210      5.58677e+7 
           8230      5.55209e+7 
           8250      5.50826e+7 
           8270       5.4302e+7 
           8290       5.4065e+7 
           8310      5.36081e+7 
           8330      5.31268e+7 
           8350      5.23917e+7 
           8370      5.20922e+7 
           8390      5.17258e+7 
           8410      5.12612e+7 
           8430       5.0742e+7 
           8450      4.99202e+7 
           8470      4.97488e+7 
           8490      4.93406e+7 
           8510      4.86923e+7 
           8530      4.85926e+7 
           8550      4.72117e+7 
           8570      4.84268e+7 
           8590      4.62033e+7 
