# Kurucz ODFNEW /NOVER (2003)
# teff = 19000 K (value for the effective temperature for the model. Temperatures are given in K)
# logg = 4.5 log(cm/s2) (value for Log(G) for the model.)
# meta = -1  (value for the Metallicity for the model.)
# lh = 1.25  (l/Hp where l is the  mixing length of the convective element and Hp is the pressure scale height)
# vtur = 2 km/s (Microturbulence velocity)
# alpha = 0  (Alpha)
#
# column 1: WAVELENGTH (ANGSTROM), Wavelength in Angstrom
# column 2: FLUX (ERG/CM2/S/A), Flux in erg/cm2/s/A
          147.2     2.69735e-21 
            151     1.83813e-20 
          155.2     1.37155e-19 
          158.8     7.05207e-19 
            162     2.84858e-18 
            166     1.51507e-17 
          170.3     8.38279e-17 
          173.4     2.73217e-16 
          176.8     9.52724e-16 
          180.2     3.17305e-15 
          181.7     5.31907e-15 
          186.1     2.31118e-14 
            191      1.0968e-13 
          193.9     2.65263e-13 
          198.4     9.93827e-13 
          201.8     2.59934e-12 
            205     6.25115e-12 
          210.5     2.64695e-11 
          216.2     1.09442e-10 
          219.8     2.58381e-10 
            223     5.41098e-10 
          226.8      1.26821e-9 
            230      3.60015e-9 
            234      9.09005e-9 
            240      3.04909e-8 
          246.5      1.04942e-7 
          252.4       3.0523e-7 
          256.8      6.48389e-7 
            260      1.12166e-6 
            264      2.15818e-6 
          268.5      4.39415e-6 
          273.5      9.41191e-6 
          278.5      1.96354e-5 
            284      4.27291e-5 
            290      9.63415e-5 
            296     0.000209692 
            301     0.000391753 
            308     0.000901198 
            318      0.00281221 
            328      0.00811349 
            338       0.0219309 
            348       0.0558263 
            357        0.123422 
            366         0.26209 
            375        0.534962 
            385         1.13447 
            395         2.30879 
            405         4.52718 
            414         8.05657 
            422         13.1459 
            430         21.0186 
            441         38.9629 
            451         66.3311 
            460         104.777 
            470         170.309 
            480         270.709 
            490         421.589 
            500         643.635 
            506         5376.17 
            512         14635.5 
            520         19105.4 
            530         27832.9 
            540         33790.7 
            550         49824.2 
            560         64394.8 
            570         84043.5 
            580         93078.1 
            590          129307 
            600          167603 
            610          210274 
            620          256546 
            630          315156 
            640          374752 
            650          453805 
            658          531250 
            665          595918 
            675          697341 
            685          822386 
            695          979758 
            705      1.13794e+6 
            716      1.33619e+6 
            726      1.53665e+6 
            735      1.74465e+6 
            745      2.00791e+6 
            755      2.29418e+6 
            765      2.59592e+6 
            775      2.94885e+6 
            785      3.32513e+6 
            795      3.71934e+6 
            805      4.16113e+6 
            815      4.62001e+6 
            825      5.15573e+6 
            835      5.63615e+6 
            845      6.26963e+6 
            855      6.88036e+6 
            865      7.60029e+6 
            875      8.33885e+6 
            885      9.16204e+6 
            895      9.98466e+6 
            905      1.06723e+7 
            915      1.69046e+7 
            925      5.57989e+7 
            935       1.4621e+8 
            945      8.04693e+8 
            955       2.5443e+9 
            965      3.70489e+9 
            975      8.82156e+8 
            985      6.86809e+9 
            995      7.55571e+9 
           1005      8.06778e+9 
           1015       5.5166e+9 
           1025      4.98744e+8 
           1035      3.89944e+9 
           1045        8.539e+9 
           1055      8.73532e+9 
           1065      7.74866e+9 
           1075      8.65194e+9 
           1085      7.97029e+9 
           1095      8.52478e+9 
           1105      7.86611e+9 
           1115      7.79716e+9 
           1125      7.31328e+9 
           1135      7.81723e+9 
           1145      7.20514e+9 
           1155      7.44577e+9 
           1165      7.56609e+9 
           1175      6.46371e+9 
           1185      7.23076e+9 
           1195      5.62393e+9 
           1205      3.35937e+9 
           1215      4.58284e+8 
           1225      2.98371e+9 
           1235      5.83832e+9 
           1245      6.43516e+9 
           1255      6.34187e+9 
           1265      6.05084e+9 
           1275      6.31689e+9 
           1285      6.30976e+9 
           1295      5.42959e+9 
           1305      5.15844e+9 
           1315       5.9953e+9 
           1325      5.74871e+9 
           1335      5.41581e+9 
           1345      5.65336e+9 
           1355      5.55196e+9 
           1365      5.32352e+9 
           1375       5.2647e+9 
           1385       5.2677e+9 
           1395       4.9917e+9 
           1405      5.05983e+9 
           1415      4.96711e+9 
           1425      4.93178e+9 
           1435      4.88341e+9 
           1442      4.90949e+9 
           1447      4.85061e+9 
           1455      4.75097e+9 
           1465      4.61349e+9 
           1475      4.54906e+9 
           1485      4.42702e+9 
           1495      4.38468e+9 
           1505      4.23995e+9 
           1512      4.06977e+9 
           1517      4.13794e+9 
           1525      4.08832e+9 
           1535      3.88909e+9 
           1545      3.95743e+9 
           1555      3.78065e+9 
           1565      3.74618e+9 
           1575      3.80477e+9 
           1585      3.76546e+9 
           1595       3.7717e+9 
           1605      3.63769e+9 
           1615      3.59263e+9 
           1625      3.51388e+9 
           1635        3.515e+9 
           1645      3.46571e+9 
           1655      3.32039e+9 
           1665      3.43826e+9 
           1672      3.29189e+9 
           1677      3.34837e+9 
           1685       3.3424e+9 
           1695      3.25141e+9 
           1705      3.14431e+9 
           1715      3.05626e+9 
           1725      3.00852e+9 
           1735       3.0439e+9 
           1745      2.96123e+9 
           1755      2.99082e+9 
           1765      2.79401e+9 
           1775       2.8658e+9 
           1785      2.83213e+9 
           1795      2.84462e+9 
           1805      2.80683e+9 
           1815      2.71938e+9 
           1825      2.72371e+9 
           1835        2.663e+9 
           1845      2.54302e+9 
           1855      2.47801e+9 
           1865      2.47555e+9 
           1875      2.52637e+9 
           1885      2.39319e+9 
           1895      2.31187e+9 
           1905      2.38618e+9 
           1915      2.29845e+9 
           1925      2.25857e+9 
           1935      2.27091e+9 
           1945      2.29103e+9 
           1955      2.17983e+9 
           1967      2.23257e+9 
           1976       2.2529e+9 
           1984      2.16816e+9 
           1995      2.10371e+9 
           2005      2.12429e+9 
           2015      2.10363e+9 
           2025      2.11892e+9 
           2035      2.05248e+9 
           2045      2.03371e+9 
           2055       1.9649e+9 
           2065      1.97534e+9 
           2074      1.99405e+9 
           2078      1.94651e+9 
           2085      1.95236e+9 
           2095      1.89574e+9 
           2105       1.9054e+9 
           2115      1.88734e+9 
           2125      1.89165e+9 
           2135      1.85471e+9 
           2145      1.82133e+9 
           2155      1.81963e+9 
           2165      1.78261e+9 
           2175      1.76227e+9 
           2185      1.74326e+9 
           2195      1.74094e+9 
           2205      1.70488e+9 
           2215      1.67593e+9 
           2225      1.64203e+9 
           2235      1.65203e+9 
           2245      1.62912e+9 
           2255      1.59715e+9 
           2265      1.59424e+9 
           2275      1.57501e+9 
           2285      1.56854e+9 
           2295      1.53137e+9 
           2305      1.51925e+9 
           2315      1.49652e+9 
           2325      1.48542e+9 
           2335      1.44868e+9 
           2345      1.40853e+9 
           2355      1.42227e+9 
           2365      1.38488e+9 
           2375      1.38606e+9 
           2385      1.35115e+9 
           2395      1.35973e+9 
           2405      1.33561e+9 
           2415      1.32199e+9 
           2425      1.32469e+9 
           2435      1.29363e+9 
           2445      1.28861e+9 
           2455      1.28495e+9 
           2465      1.25669e+9 
           2475      1.24705e+9 
           2485      1.24392e+9 
           2495      1.21364e+9 
           2505      1.22162e+9 
           2513      1.19381e+9 
           2518      1.20351e+9 
           2525      1.17812e+9 
           2535      1.15688e+9 
           2545      1.14967e+9 
           2555       1.1591e+9 
           2565      1.14017e+9 
           2575      1.13991e+9 
           2585      1.13145e+9 
           2595      1.11894e+9 
           2605      1.10731e+9 
           2615      1.09737e+9 
           2625      1.08553e+9 
           2635      1.07486e+9 
           2645      1.08323e+9 
           2655      1.07113e+9 
           2665      1.05133e+9 
           2675      1.04775e+9 
           2685      1.04095e+9 
           2695      1.02281e+9 
           2705      1.01872e+9 
           2715      1.00381e+9 
           2725      9.87734e+8 
           2735      9.88583e+8 
           2745      9.58194e+8 
           2755      9.53088e+8 
           2765      9.49803e+8 
           2775      9.53635e+8 
           2785      9.41553e+8 
           2795      9.10571e+8 
           2805      9.19316e+8 
           2815       9.1969e+8 
           2825      9.03136e+8 
           2835      8.88338e+8 
           2845      8.86899e+8 
           2855      8.82037e+8 
           2865      8.77359e+8 
           2875      8.66982e+8 
           2885      8.60213e+8 
           2895      8.53066e+8 
           2910      8.42115e+8 
           2930      8.22978e+8 
           2950      8.05104e+8 
           2970      7.96304e+8 
           2990      7.80672e+8 
           3010      7.68669e+8 
           3030      7.55683e+8 
           3050      7.42039e+8 
           3070      7.28844e+8 
           3090      7.16165e+8 
           3110      7.03478e+8 
           3130       6.9194e+8 
           3150       6.7984e+8 
           3170      6.68102e+8 
           3190      6.51903e+8 
           3210      6.45194e+8 
           3230      6.34412e+8 
           3250       6.2381e+8 
           3270      6.13913e+8 
           3290      6.03304e+8 
           3310      5.93904e+8 
           3330      5.84073e+8 
           3350      5.73864e+8 
           3370      5.65049e+8 
           3390       5.5591e+8 
           3410      5.46979e+8 
           3430      5.37256e+8 
           3450      5.27754e+8 
           3470      5.20092e+8 
           3490      5.11859e+8 
           3510      5.04483e+8 
           3530      4.96757e+8 
           3550      4.88934e+8 
           3570      4.82614e+8 
           3590      4.73422e+8 
           3610      4.66919e+8 
           3630      4.59015e+8 
           3640      4.57207e+8 
           3650      4.52613e+8 
           3670      4.47385e+8 
           3690      4.38814e+8 
           3710      4.24762e+8 
           3730       4.0622e+8 
           3750      4.32867e+8 
           3770      4.38412e+8 
           3790      4.79878e+8 
           3810      5.14145e+8 
           3830       4.3575e+8 
           3850      5.41311e+8 
           3870      5.64758e+8 
           3890      4.04337e+8 
           3910       5.5861e+8 
           3930      5.60768e+8 
           3950      5.43442e+8 
           3970      3.79505e+8 
           3990      5.18284e+8 
           4010      5.29644e+8 
           4030      4.95775e+8 
           4050      5.20496e+8 
           4070      5.06865e+8 
           4090      4.40146e+8 
           4110      3.70148e+8 
           4130      4.72632e+8 
           4150      4.74956e+8 
           4170      4.72491e+8 
           4190      4.67433e+8 
           4210      4.60239e+8 
           4230      4.52781e+8 
           4250      4.45464e+8 
           4270      4.35804e+8 
           4290      4.29601e+8 
           4310      4.17552e+8 
           4330      3.54548e+8 
           4350      3.17968e+8 
           4370      3.96005e+8 
           4390      3.84508e+8 
           4410      3.92069e+8 
           4430      3.85293e+8 
           4450      3.81153e+8 
           4470      3.55916e+8 
           4490       3.6759e+8 
           4510      3.64652e+8 
           4530      3.59015e+8 
           4550      3.53664e+8 
           4570      3.48519e+8 
           4590      3.43432e+8 
           4610      3.38349e+8 
           4630      3.33253e+8 
           4650      3.28337e+8 
           4670      3.23751e+8 
           4690      3.19146e+8 
           4710      3.10192e+8 
           4730       3.0936e+8 
           4750       3.0469e+8 
           4770      3.01246e+8 
           4790       2.9624e+8 
           4810      2.90867e+8 
           4830      2.83166e+8 
           4850      2.47395e+8 
           4870      2.16108e+8 
           4890      2.68997e+8 
           4910      2.70341e+8 
           4930      2.61053e+8 
           4950      2.65083e+8 
           4970      2.61703e+8 
           4990      2.58051e+8 
           5010      2.50952e+8 
           5030      2.50911e+8 
           5050      2.45338e+8 
           5070      2.44329e+8 
           5090      2.41031e+8 
           5110      2.37735e+8 
           5130      2.34539e+8 
           5150      2.31371e+8 
           5170      2.28401e+8 
           5190      2.25385e+8 
           5210      2.22048e+8 
           5230      2.19485e+8 
           5250      2.16627e+8 
           5270      2.13765e+8 
           5290      2.11048e+8 
           5310      2.08285e+8 
           5330      2.05598e+8 
           5350      2.02826e+8 
           5370      2.00378e+8 
           5390      1.97804e+8 
           5410      1.95263e+8 
           5430      1.92652e+8 
           5450      1.90302e+8 
           5470      1.87881e+8 
           5490      1.85589e+8 
           5510      1.83227e+8 
           5530      1.80955e+8 
           5550      1.78712e+8 
           5570      1.76484e+8 
           5590      1.74307e+8 
           5610       1.7212e+8 
           5630      1.70068e+8 
           5650      1.67757e+8 
           5670      1.65767e+8 
           5690      1.63835e+8 
           5710      1.61904e+8 
           5730       1.5995e+8 
           5750      1.58018e+8 
           5770      1.56133e+8 
           5790      1.54247e+8 
           5810      1.52394e+8 
           5830      1.50586e+8 
           5850      1.48798e+8 
           5870      1.42746e+8 
           5890      1.44971e+8 
           5910      1.43581e+8 
           5930      1.41907e+8 
           5950      1.40167e+8 
           5970      1.38596e+8 
           5990      1.36947e+8 
           6010      1.35412e+8 
           6030      1.33841e+8 
           6050      1.32299e+8 
           6070      1.30774e+8 
           6090      1.29277e+8 
           6110      1.27806e+8 
           6130      1.26352e+8 
           6150      1.24864e+8 
           6170      1.23502e+8 
           6190      1.22115e+8 
           6210      1.20734e+8 
           6230      1.19368e+8 
           6250      1.17998e+8 
           6270      1.16729e+8 
           6290      1.15426e+8 
           6310      1.14127e+8 
           6330      1.12881e+8 
           6350      1.11367e+8 
           6370      1.10261e+8 
           6390      1.09193e+8 
           6410      1.07981e+8 
           6430      1.06837e+8 
           6450      1.05659e+8 
           6470      1.04503e+8 
           6490      1.03252e+8 
           6510      1.01827e+8 
           6530      9.99054e+7 
           6550      9.25875e+7 
           6570      8.07022e+7 
           6590      9.53706e+7 
           6610      9.63032e+7 
           6630      9.56374e+7 
           6650      9.48841e+7 
           6670      9.30373e+7 
           6690       9.2103e+7 
           6710      9.19564e+7 
           6730      9.09948e+7 
           6750      9.00513e+7 
           6770       8.9109e+7 
           6790      8.81681e+7 
           6810      8.72692e+7 
           6830      8.63631e+7 
           6850      8.54822e+7 
           6870      8.46021e+7 
           6890      8.37386e+7 
           6910      8.28838e+7 
           6930      8.20217e+7 
           6950      8.12071e+7 
           6970       8.0385e+7 
           6990      7.95633e+7 
           7010       7.8765e+7 
           7030      7.79744e+7 
           7050      7.71764e+7 
           7070      7.54365e+7 
           7090       7.5656e+7 
           7110      7.49031e+7 
           7130      7.41648e+7 
           7150       7.3424e+7 
           7170      7.27028e+7 
           7190      7.19884e+7 
           7210      7.12809e+7 
           7230      7.04402e+7 
           7250      6.98887e+7 
           7270      6.92111e+7 
           7290      6.81541e+7 
           7310      6.78684e+7 
           7330       6.7216e+7 
           7350      6.65676e+7 
           7370      6.59266e+7 
           7390      6.52936e+7 
           7410      6.46678e+7 
           7430      6.40431e+7 
           7450      6.34418e+7 
           7470      6.28331e+7 
           7490      6.22388e+7 
           7510      6.16412e+7 
           7530      6.10711e+7 
           7550      6.04968e+7 
           7570      5.99284e+7 
           7590      5.93658e+7 
           7610      5.88122e+7 
           7630      5.82635e+7 
           7650      5.77211e+7 
           7670      5.71854e+7 
           7690      5.66558e+7 
           7710      5.61322e+7 
           7730      5.56145e+7 
           7750      5.51033e+7 
           7770      5.44793e+7 
           7790      5.40981e+7 
           7810      5.35923e+7 
           7830      5.31167e+7 
           7850      5.26348e+7 
           7870      5.21566e+7 
           7890      5.16589e+7 
           7910      5.12415e+7 
           7930      5.07802e+7 
           7950      5.03051e+7 
           7970      4.98637e+7 
           7990      4.93914e+7 
           8010      4.89847e+7 
           8030      4.85488e+7 
           8050      4.81172e+7 
           8070      4.76904e+7 
           8090      4.72482e+7 
           8110      4.68339e+7 
           8130      4.64356e+7 
           8150       4.6001e+7 
           8170      4.56282e+7 
           8190      4.52051e+7 
           8210      4.47342e+7 
           8230      4.43997e+7 
           8250      4.40518e+7 
           8270      4.35851e+7 
           8290      4.32988e+7 
           8310      4.29472e+7 
           8330      4.25761e+7 
           8350       4.2119e+7 
           8370      4.18271e+7 
           8390      4.15091e+7 
           8410      4.11345e+7 
           8430      4.07514e+7 
           8450      4.02453e+7 
           8470      3.99631e+7 
           8490       3.9637e+7 
           8510      3.91242e+7 
           8530      3.90042e+7 
           8550      3.79726e+7 
           8570      3.86979e+7 
           8590      3.71955e+7 
