# Kurucz ODFNEW /NOVER (2003)
# teff = 35000 K (value for the effective temperature for the model. Temperatures are given in K)
# logg = 5 log(cm/s2) (value for Log(G) for the model.)
# meta = 0.2  (value for the Metallicity for the model.)
# lh = 1.25  (l/Hp where l is the  mixing length of the convective element and Hp is the pressure scale height)
# vtur = 2 km/s (Microturbulence velocity)
# alpha = 0.4  (Alpha)
#
# column 1: WAVELENGTH (ANGSTROM), Wavelength in Angstrom
# column 2: FLUX (ERG/CM2/S/A), Flux in erg/cm2/s/A
          147.2     0.000157453 
            151     0.000390608 
          155.2      0.00101018 
          158.8      0.00219457 
            162      0.00424488 
            166      0.00938583 
          170.3       0.0209927 
          173.4       0.0369017 
          176.8       0.0673523 
          180.2        0.118917 
          181.7        0.153956 
          186.1        0.308274 
            191        0.644997 
          193.9        0.979068 
          198.4         1.84227 
          201.8         2.89518 
            205         4.37087 
          210.5         8.63301 
          216.2          16.665 
          219.8         25.2276 
            223         35.7775 
          226.8          56.225 
            230           12462 
            234           26944 
            240         40678.3 
          246.5         64195.4 
          252.4          102861 
          256.8          138692 
            260          211269 
            264          308130 
          268.5          455432 
          273.5          606023 
          278.5          728277 
            284      1.48112e+6 
            290      2.05763e+6 
            296      2.60493e+6 
            301      3.86023e+6 
            308       8.2487e+6 
            318      1.60499e+7 
            328       2.2077e+7 
            338      3.71242e+7 
            348      5.42709e+7 
            357      1.05077e+8 
            366      2.16336e+8 
            375      2.47247e+8 
            385      3.51275e+8 
            395      7.03888e+8 
            405      8.38853e+8 
            414      1.13909e+9 
            422      1.22872e+9 
            430      1.32224e+9 
            441      1.54918e+9 
            451      1.70894e+9 
            460      1.69064e+9 
            470      1.93703e+9 
            480      2.20119e+9 
            490       2.2097e+9 
            500      2.67403e+9 
            506      3.17938e+9 
            512     2.11988e+10 
            520     1.93938e+10 
            530     1.77045e+10 
            540     1.64903e+10 
            550     1.82175e+10 
            560     2.34591e+10 
            570     2.48869e+10 
            580     2.29991e+10 
            590     2.41871e+10 
            600      1.7746e+10 
            610     2.22342e+10 
            620     2.67121e+10 
            630     2.57266e+10 
            640     2.55746e+10 
            650     2.47375e+10 
            658     1.89059e+10 
            665      2.3474e+10 
            675     2.65218e+10 
            685     2.07351e+10 
            695     2.68603e+10 
            705      2.0162e+10 
            716     2.82332e+10 
            726     2.73472e+10 
            735     2.73189e+10 
            745     2.51298e+10 
            755     2.51049e+10 
            765     2.59219e+10 
            775     2.65845e+10 
            785     2.65858e+10 
            795     2.68034e+10 
            805     2.52661e+10 
            815     2.50798e+10 
            825     2.65395e+10 
            835     2.09231e+10 
            845     2.51572e+10 
            855     2.46778e+10 
            865     2.53682e+10 
            875     2.52803e+10 
            885     2.54457e+10 
            895     2.54268e+10 
            905     2.44899e+10 
            915     2.33608e+10 
            925      5.1189e+10 
            935     7.96401e+10 
            945     1.12248e+11 
            955     1.27804e+11 
            965      1.5212e+11 
            975     6.62093e+10 
            985     1.27111e+11 
            995     1.10543e+11 
           1005     1.14105e+11 
           1015     1.20246e+11 
           1025     8.62125e+10 
           1035     1.15717e+11 
           1045     1.33967e+11 
           1055      1.2685e+11 
           1065     1.05002e+11 
           1075     1.11468e+11 
           1085     1.01025e+11 
           1095     1.10066e+11 
           1105     1.03773e+11 
           1115     1.01792e+11 
           1125     7.84341e+10 
           1135     9.64586e+10 
           1145     9.15656e+10 
           1155     8.52257e+10 
           1165     8.39215e+10 
           1175     5.81483e+10 
           1185     7.69864e+10 
           1195     7.32947e+10 
           1205     6.92241e+10 
           1215     5.10396e+10 
           1225     6.73663e+10 
           1235     7.21855e+10 
           1245     6.97084e+10 
           1255     6.93769e+10 
           1265     7.04409e+10 
           1275      7.2098e+10 
           1285     7.18289e+10 
           1295     6.56335e+10 
           1305     6.58813e+10 
           1315     6.94931e+10 
           1325     6.66069e+10 
           1335     6.48075e+10 
           1345     6.31122e+10 
           1355     6.25699e+10 
           1365     5.93838e+10 
           1375     5.75727e+10 
           1385     5.52714e+10 
           1395     4.14145e+10 
           1405     4.32107e+10 
           1415     5.27174e+10 
           1425     4.72288e+10 
           1435     5.02556e+10 
           1442     4.97417e+10 
           1447     4.94309e+10 
           1455     4.69527e+10 
           1465     4.57136e+10 
           1475     4.57106e+10 
           1485     4.55651e+10 
           1495     4.40794e+10 
           1505     4.23429e+10 
           1512     4.17359e+10 
           1517     4.18345e+10 
           1525     4.04248e+10 
           1535     3.52646e+10 
           1545     3.01254e+10 
           1555     3.01941e+10 
           1565     3.33257e+10 
           1575     3.46959e+10 
           1585     3.43435e+10 
           1595     3.46368e+10 
           1605     3.28377e+10 
           1615     3.11873e+10 
           1625      3.1769e+10 
           1635     3.17804e+10 
           1645     3.15665e+10 
           1655     3.17872e+10 
           1665      3.0882e+10 
           1672      2.8864e+10 
           1677     3.32078e+10 
           1685     3.17388e+10 
           1695       3.058e+10 
           1705     2.99981e+10 
           1715     2.88398e+10 
           1725     2.73366e+10 
           1735     2.83452e+10 
           1745     2.81227e+10 
           1755     2.75915e+10 
           1765     2.70198e+10 
           1775     2.60669e+10 
           1785     2.63692e+10 
           1795     2.57348e+10 
           1805     2.56054e+10 
           1815     2.48814e+10 
           1825     2.44342e+10 
           1835      2.4304e+10 
           1845     2.30374e+10 
           1855     2.32222e+10 
           1865     2.32153e+10 
           1875     2.25419e+10 
           1885     2.15294e+10 
           1895     2.11076e+10 
           1905     2.15364e+10 
           1915     2.08221e+10 
           1925     1.95449e+10 
           1935     2.06062e+10 
           1945     2.07523e+10 
           1955     1.89773e+10 
           1967     1.96549e+10 
           1976      2.0033e+10 
           1984     1.92946e+10 
           1995     1.88203e+10 
           2005     1.90416e+10 
           2015     1.89199e+10 
           2025     1.87619e+10 
           2035     1.80549e+10 
           2045     1.77869e+10 
           2055     1.44366e+10 
           2065     1.38898e+10 
           2074     1.41505e+10 
           2078     1.39818e+10 
           2085      1.4441e+10 
           2095     1.50433e+10 
           2105     1.60842e+10 
           2115     1.63283e+10 
           2125     1.58763e+10 
           2135     1.58032e+10 
           2145     1.55194e+10 
           2155     1.54496e+10 
           2165     1.47341e+10 
           2175     1.50306e+10 
           2185     1.45169e+10 
           2195     1.47751e+10 
           2205     1.45469e+10 
           2215     1.38798e+10 
           2225     1.40727e+10 
           2235     1.38656e+10 
           2245     1.36339e+10 
           2255     1.30784e+10 
           2265     1.32635e+10 
           2275      1.3113e+10 
           2285     1.26333e+10 
           2295     1.16094e+10 
           2305     1.20712e+10 
           2315     1.20873e+10 
           2325     1.20498e+10 
           2335     1.18894e+10 
           2345     1.17417e+10 
           2355     1.14975e+10 
           2365     1.13028e+10 
           2375     1.10382e+10 
           2385       1.051e+10 
           2395     1.06188e+10 
           2405     1.06342e+10 
           2415     1.04346e+10 
           2425     1.03775e+10 
           2435     1.01737e+10 
           2445     1.00686e+10 
           2455      9.90919e+9 
           2465      9.80787e+9 
           2475      9.65989e+9 
           2485      9.35109e+9 
           2495      7.00563e+9 
           2505      8.86616e+9 
           2513      8.53838e+9 
           2518      8.67443e+9 
           2525      8.99039e+9 
           2535      8.93367e+9 
           2545      8.69958e+9 
           2555      8.62642e+9 
           2565      8.48829e+9 
           2575      8.43442e+9 
           2585      8.33885e+9 
           2595      8.16281e+9 
           2605      8.13413e+9 
           2615      7.96406e+9 
           2625      7.91005e+9 
           2635      7.81269e+9 
           2645      7.68642e+9 
           2655       7.6019e+9 
           2665      7.41712e+9 
           2675      7.23384e+9 
           2685      7.27412e+9 
           2695      7.11753e+9 
           2705      7.05625e+9 
           2715      6.96041e+9 
           2725      6.85717e+9 
           2735      6.67466e+9 
           2745      6.74111e+9 
           2755       6.6461e+9 
           2765      6.53652e+9 
           2775      6.52521e+9 
           2785      6.39537e+9 
           2795       6.1568e+9 
           2805      6.21592e+9 
           2815      6.19275e+9 
           2825      6.09801e+9 
           2835      5.97397e+9 
           2845      5.97999e+9 
           2855      5.87393e+9 
           2865      5.78435e+9 
           2875      5.71273e+9 
           2885      5.65283e+9 
           2895      5.56664e+9 
           2910      5.41687e+9 
           2930      5.36423e+9 
           2950      5.20516e+9 
           2970      5.09216e+9 
           2990      4.93156e+9 
           3010      4.76562e+9 
           3030      4.64218e+9 
           3050      4.59365e+9 
           3070       4.5224e+9 
           3090      4.36304e+9 
           3110      4.32541e+9 
           3130      4.19571e+9 
           3150      4.12665e+9 
           3170      4.02151e+9 
           3190        3.942e+9 
           3210      3.82722e+9 
           3230      3.76264e+9 
           3250      3.70399e+9 
           3270      3.58342e+9 
           3290      3.52989e+9 
           3310      3.44782e+9 
           3330      3.36196e+9 
           3350       3.2798e+9 
           3370      3.21578e+9 
           3390      3.17526e+9 
           3410      3.10397e+9 
           3430      3.05526e+9 
           3450      2.96493e+9 
           3470      2.91812e+9 
           3490      2.85959e+9 
           3510      2.80316e+9 
           3530      2.75764e+9 
           3550      2.69544e+9 
           3570      2.64582e+9 
           3590      2.57997e+9 
           3610       2.5353e+9 
           3630      2.47994e+9 
           3640      2.45194e+9 
           3650      2.34453e+9 
           3670      2.30822e+9 
           3690      2.26371e+9 
           3710      2.17756e+9 
           3730      2.15249e+9 
           3750      2.12179e+9 
           3770       2.0564e+9 
           3790      2.10428e+9 
           3810      2.14713e+9 
           3830      1.94245e+9 
           3850      2.14145e+9 
           3870      2.08391e+9 
           3890      1.80862e+9 
           3910      2.10238e+9 
           3930      2.05243e+9 
           3950      1.97621e+9 
           3970      1.66196e+9 
           3990      1.94057e+9 
           4010      1.91918e+9 
           4030      1.83263e+9 
           4050      1.86457e+9 
           4070      1.77311e+9 
           4090      1.64811e+9 
           4110      1.50934e+9 
           4130      1.69809e+9 
           4150      1.68049e+9 
           4170      1.67888e+9 
           4190      1.64231e+9 
           4210      1.61017e+9 
           4230      1.59397e+9 
           4250       1.5425e+9 
           4270      1.51067e+9 
           4290      1.47833e+9 
           4310      1.43431e+9 
           4330      1.33278e+9 
           4350      1.24127e+9 
           4370      1.37341e+9 
           4390      1.34668e+9 
           4410      1.33627e+9 
           4430      1.32842e+9 
           4450      1.30185e+9 
           4470      1.24864e+9 
           4490      1.26321e+9 
           4510      1.23976e+9 
           4530      1.22753e+9 
           4550      1.19762e+9 
           4570       1.1908e+9 
           4590      1.16671e+9 
           4610       1.1405e+9 
           4630      1.11327e+9 
           4650      1.05969e+9 
           4670      1.08314e+9 
           4690        1.059e+9 
           4710      1.04033e+9 
           4730      1.05329e+9 
           4750      1.03407e+9 
           4770      1.02439e+9 
           4790       1.0076e+9 
           4810      9.86663e+8 
           4830      9.63507e+8 
           4850      9.00643e+8 
           4870      8.18922e+8 
           4890      9.17935e+8 
           4910      9.08785e+8 
           4930      8.82346e+8 
           4950      8.80227e+8 
           4970      8.76741e+8 
           4990        8.631e+8 
           5010      8.31638e+8 
           5030      8.30592e+8 
           5050      8.18782e+8 
           5070      8.12789e+8 
           5090      7.99115e+8 
           5110      7.86942e+8 
           5130       7.7472e+8 
           5150      7.63757e+8 
           5170      7.51672e+8 
           5190      7.42141e+8 
           5210      7.31888e+8 
           5230      7.21729e+8 
           5250      7.09529e+8 
           5270      6.98403e+8 
           5290       6.9118e+8 
           5310      6.80919e+8 
           5330      6.71535e+8 
           5350      6.62036e+8 
           5370      6.52672e+8 
           5390      6.42624e+8 
           5410      6.26838e+8 
           5430      6.25678e+8 
           5450      6.16732e+8 
           5470       6.0805e+8 
           5490      5.99753e+8 
           5510      5.91337e+8 
           5530      5.83334e+8 
           5550      5.75811e+8 
           5570      5.67773e+8 
           5590      5.58534e+8 
           5610      5.52715e+8 
           5630      5.45325e+8 
           5650      5.37635e+8 
           5670      5.29525e+8 
           5690      5.16489e+8 
           5710      5.05309e+8 
           5730      4.99447e+8 
           5750      4.91705e+8 
           5770      4.86933e+8 
           5790      4.80372e+8 
           5810      4.73433e+8 
           5830      4.66754e+8 
           5850      4.62302e+8 
           5870      4.45753e+8 
           5890      4.49496e+8 
           5910      4.45445e+8 
           5930      4.40592e+8 
           5950      4.35698e+8 
           5970      4.31854e+8 
           5990      4.26507e+8 
           6010      4.22422e+8 
           6030      4.17376e+8 
           6050      4.13252e+8 
           6070       4.0854e+8 
           6090      4.03585e+8 
           6110      3.98314e+8 
           6130      3.93563e+8 
           6150      3.87681e+8 
           6170      3.83133e+8 
           6190      3.79118e+8 
           6210      3.74667e+8 
           6230      3.70014e+8 
           6250      3.64997e+8 
           6270      3.60909e+8 
           6290      3.56589e+8 
           6310      3.51816e+8 
           6330      3.48092e+8 
           6350      3.43464e+8 
           6370      3.39872e+8 
           6390      3.35782e+8 
           6410      3.31618e+8 
           6430      3.27863e+8 
           6450      3.23796e+8 
           6470      3.19133e+8 
           6490      3.15336e+8 
           6510      3.10965e+8 
           6530      3.06183e+8 
           6550      2.94245e+8 
           6570      2.64972e+8 
           6590      2.94414e+8 
           6610      2.93764e+8 
           6630      2.91232e+8 
           6650      2.87702e+8 
           6670      2.80907e+8 
           6690      2.77715e+8 
           6710      2.77258e+8 
           6730      2.73974e+8 
           6750      2.71601e+8 
           6770      2.68897e+8 
           6790      2.65166e+8 
           6810      2.62831e+8 
           6830      2.59679e+8 
           6850      2.56944e+8 
           6870      2.53942e+8 
           6890      2.50192e+8 
           6910      2.47373e+8 
           6930      2.45877e+8 
           6950      2.43153e+8 
           6970       2.4048e+8 
           6990      2.37757e+8 
           7010      2.34846e+8 
           7030      2.32117e+8 
           7050      2.29642e+8 
           7070      2.24342e+8 
           7090      2.25124e+8 
           7110      2.22481e+8 
           7130       2.2013e+8 
           7150      2.17972e+8 
           7170      2.15226e+8 
           7190      2.13083e+8 
           7210      2.11055e+8 
           7230      2.07417e+8 
           7250      2.06188e+8 
           7270      2.04406e+8 
           7290      2.00926e+8 
           7310      2.00011e+8 
           7330      1.97982e+8 
           7350      1.95901e+8 
           7370      1.93869e+8 
           7390      1.91889e+8 
           7410      1.89853e+8 
           7430      1.87925e+8 
           7450      1.85858e+8 
           7470      1.83359e+8 
           7490      1.81555e+8 
           7510      1.80209e+8 
           7530      1.78296e+8 
           7550      1.76632e+8 
           7570      1.74799e+8 
           7590      1.72323e+8 
           7610      1.70833e+8 
           7630       1.6944e+8 
           7650       1.6768e+8 
           7670      1.66153e+8 
           7690      1.63972e+8 
           7710       1.6264e+8 
           7730      1.60463e+8 
           7750      1.59561e+8 
           7770      1.58029e+8 
           7790      1.56499e+8 
           7810      1.54926e+8 
           7830      1.53429e+8 
           7850      1.51872e+8 
           7870       1.5003e+8 
           7890      1.48581e+8 
           7910      1.47481e+8 
           7930      1.46025e+8 
           7950      1.44725e+8 
           7970      1.43163e+8 
           7990      1.41852e+8 
           8010      1.40522e+8 
           8030      1.39098e+8 
           8050      1.37856e+8 
           8070      1.36525e+8 
           8090      1.35149e+8 
           8110      1.33085e+8 
           8130      1.32659e+8 
           8150      1.31317e+8 
           8170      1.30122e+8 
           8190      1.28156e+8 
           8210      1.26314e+8 
           8230      1.24789e+8 
           8250      1.24107e+8 
           8270      1.22235e+8 
           8290      1.21838e+8 
           8310      1.20919e+8 
           8330      1.19552e+8 
           8350      1.18121e+8 
           8370      1.17331e+8 
           8390      1.16558e+8 
           8410      1.15381e+8 
           8430      1.14442e+8 
           8450      1.12983e+8 
           8470      1.12403e+8 
           8490      1.11263e+8 
           8510      1.09986e+8 
           8530      1.09227e+8 
           8550      1.08253e+8 
           8570      1.07513e+8 
