# Kurucz ODFNEW /NOVER (2003)
# teff = 10000 K (value for the effective temperature for the model. Temperatures are given in K)
# logg = 2 log(cm/s2) (value for Log(G) for the model.)
# meta = -1  (value for the Metallicity for the model.)
# lh = 1.25  (l/Hp where l is the  mixing length of the convective element and Hp is the pressure scale height)
# vtur = 2 km/s (Microturbulence velocity)
# alpha = 0  (Alpha)
#
# column 1: WAVELENGTH (ANGSTROM), Wavelength in Angstrom
# column 2: FLUX (ERG/CM2/S/A), Flux in erg/cm2/s/A
          268.5     5.20836e-23 
          273.5       2.502e-22 
          278.5     1.04015e-21 
            284     4.65041e-21 
            290      2.2245e-20 
            296     9.97119e-20 
            301     3.33082e-19 
            308     1.68639e-18 
            318      1.5085e-17 
            328     1.17966e-16 
            338     8.14965e-16 
            348     5.02704e-15 
            357     2.36595e-14 
            366     1.03095e-13 
            375      4.1749e-13 
            385     1.82536e-12 
            395     7.38561e-12 
            405     2.78577e-11 
            414     8.69355e-11 
            422     2.29147e-10 
            430     5.81577e-10 
            441      1.97797e-9 
            451      5.70222e-9 
            460      1.41938e-8 
            470      3.74615e-8 
            480      9.47481e-8 
            490      2.30368e-7 
            500      5.39567e-7 
            506      1.51318e-6 
            512       2.8837e-6 
            520      5.23673e-6 
            530      1.08619e-5 
            540      2.14927e-5 
            550       4.2388e-5 
            560      8.05956e-5 
            570     0.000149706 
            580     0.000268112 
            590     0.000483114 
            600     0.000842566 
            610      0.00144212 
            620      0.00242228 
            630      0.00399937 
            640      0.00648975 
            650       0.0103835 
            658       0.0149521 
            665       0.0204114 
            675       0.0314638 
            685       0.0478675 
            695       0.0719243 
            705        0.106707 
            716        0.162492 
            726        0.235347 
            735        0.325359 
            745        0.461795 
            755        0.648971 
            765        0.903288 
            775         1.24612 
            785         1.70377 
            795         2.30893 
            805         3.10546 
            815         4.14262 
            825         5.48385 
            835         7.19607 
            845         9.40419 
            855         12.1869 
            865          15.694 
            875         20.0763 
            885         25.5391 
            895           32.29 
            905         40.5181 
            915         1061.85 
            925         6824.61 
            935         11610.5 
            945         49939.5 
            955      1.20637e+6 
            965      1.76405e+6 
            975          179439 
            985       6.5625e+6 
            995      8.42863e+6 
           1005      8.49821e+6 
           1015      3.24304e+6 
           1025         59957.6 
           1035      1.96748e+6 
           1045      1.21893e+7 
           1055      1.78338e+7 
           1065      1.68418e+7 
           1075      2.06349e+7 
           1085       2.0791e+7 
           1095      2.21524e+7 
           1105      3.22389e+7 
           1115      5.04841e+7 
           1125      5.54546e+7 
           1135      6.06054e+7 
           1145      5.66664e+7 
           1155      5.78441e+7 
           1165      5.95006e+7 
           1175      5.03716e+7 
           1185      3.83537e+7 
           1195          631169 
           1205          249156 
           1215         67099.2 
           1225          252530 
           1235      1.69293e+6 
           1245      3.77015e+7 
           1255      6.20051e+7 
           1265       5.1341e+7 
           1275      8.69088e+7 
           1285      1.05479e+8 
           1295      9.48459e+7 
           1305      6.82461e+7 
           1315      1.07603e+8 
           1325      1.16747e+8 
           1335      1.04353e+8 
           1345      1.30898e+8 
           1355      1.25577e+8 
           1365      1.10458e+8 
           1375       1.2264e+8 
           1385      1.28338e+8 
           1395      1.31472e+8 
           1405      1.33522e+8 
           1415      1.22801e+8 
           1425      1.27268e+8 
           1435       1.2018e+8 
           1442      1.31147e+8 
           1447      1.38926e+8 
           1455      1.38981e+8 
           1465      1.31129e+8 
           1475      1.26037e+8 
           1485      1.31408e+8 
           1495       1.3594e+8 
           1505      1.37268e+8 
           1512       1.3234e+8 
           1517      1.38628e+8 
           1525      1.31138e+8 
           1535      1.25797e+8 
           1545      1.37673e+8 
           1555      1.27076e+8 
           1565      1.20832e+8 
           1575      1.22739e+8 
           1585      1.32715e+8 
           1595       1.3794e+8 
           1605       1.3006e+8 
           1615      1.30699e+8 
           1625      1.21795e+8 
           1635       1.2538e+8 
           1645      1.27715e+8 
           1655      1.14539e+8 
           1665      1.27587e+8 
           1672      1.02574e+8 
           1677      1.21328e+8 
           1685      1.30059e+8 
           1695       1.2427e+8 
           1705      1.19597e+8 
           1715      1.17756e+8 
           1725      1.16838e+8 
           1735      1.21732e+8 
           1745       1.1966e+8 
           1755      1.27683e+8 
           1765      1.15664e+8 
           1775      1.24691e+8 
           1785      1.23179e+8 
           1795      1.30077e+8 
           1805      1.26015e+8 
           1815      1.24825e+8 
           1825      1.21232e+8 
           1835      1.18281e+8 
           1845      1.13737e+8 
           1855      1.13708e+8 
           1865      1.13651e+8 
           1875      1.20639e+8 
           1885      1.19034e+8 
           1895      1.15767e+8 
           1905      1.15395e+8 
           1915      1.15066e+8 
           1925       1.1543e+8 
           1935      1.15688e+8 
           1945      1.19192e+8 
           1955      1.16507e+8 
           1967      1.19676e+8 
           1976      1.18917e+8 
           1984      1.16734e+8 
           1995      1.12725e+8 
           2005      1.13674e+8 
           2015      1.08095e+8 
           2025      1.11081e+8 
           2035      1.10274e+8 
           2045      1.12496e+8 
           2055      1.07746e+8 
           2065      1.07049e+8 
           2074      1.10326e+8 
           2078       1.1135e+8 
           2085       1.1206e+8 
           2095      1.08452e+8 
           2105      1.07925e+8 
           2115      1.07261e+8 
           2125      1.07639e+8 
           2135      9.69547e+7 
           2145      1.04355e+8 
           2155      1.05579e+8 
           2165      1.01432e+8 
           2175      9.98082e+7 
           2185      9.89125e+7 
           2195      1.04245e+8 
           2205      1.00706e+8 
           2215      9.46618e+7 
           2225      9.17506e+7 
           2235      9.97854e+7 
           2245      9.18572e+7 
           2255      9.08369e+7 
           2265      9.15273e+7 
           2275      9.61181e+7 
           2285      9.77896e+7 
           2295       9.3084e+7 
           2305      9.12641e+7 
           2315      8.90222e+7 
           2325      8.95404e+7 
           2335      8.58523e+7 
           2345      8.04837e+7 
           2355      8.75386e+7 
           2365      8.07918e+7 
           2375      8.43941e+7 
           2385      7.60383e+7 
           2395      8.20644e+7 
           2405      7.85436e+7 
           2415      8.01359e+7 
           2425      8.34482e+7 
           2435      8.01528e+7 
           2445      8.46976e+7 
           2455      8.18775e+7 
           2465      8.15432e+7 
           2475      7.87392e+7 
           2485      8.33716e+7 
           2495      8.09072e+7 
           2505      8.57559e+7 
           2513      8.04443e+7 
           2518      8.25138e+7 
           2525      7.73357e+7 
           2535      7.67913e+7 
           2545      7.63402e+7 
           2555      7.96276e+7 
           2565      7.87217e+7 
           2575      8.30147e+7 
           2585      8.23849e+7 
           2595       8.1796e+7 
           2605      7.86987e+7 
           2615      7.82688e+7 
           2625       8.0276e+7 
           2635      8.07476e+7 
           2645      8.62447e+7 
           2655      8.49709e+7 
           2665      8.07434e+7 
           2675      8.29048e+7 
           2685      8.27744e+7 
           2695      8.00657e+7 
           2705      8.11276e+7 
           2715       7.8405e+7 
           2725      7.87691e+7 
           2735      8.25355e+7 
           2745      7.41107e+7 
           2755      7.41246e+7 
           2765      7.62651e+7 
           2775      7.95666e+7 
           2785      7.93023e+7 
           2795      7.01471e+7 
           2805      7.45173e+7 
           2815      8.01882e+7 
           2825      7.97159e+7 
           2835      7.72843e+7 
           2845      7.51595e+7 
           2855      7.43982e+7 
           2865      7.64499e+7 
           2875      7.49163e+7 
           2885      7.65569e+7 
           2895      7.49366e+7 
           2910      7.87884e+7 
           2930      7.62815e+7 
           2950      7.59346e+7 
           2970      7.59575e+7 
           2990      7.57369e+7 
           3010      7.65551e+7 
           3030      7.60032e+7 
           3050      7.50138e+7 
           3070      7.40796e+7 
           3090      7.42995e+7 
           3110      7.30081e+7 
           3130      7.22127e+7 
           3150      7.23313e+7 
           3170      7.16089e+7 
           3190      6.98438e+7 
           3210      7.04496e+7 
           3230      6.95402e+7 
           3250      6.93753e+7 
           3270       6.9248e+7 
           3290      6.89864e+7 
           3310      6.87638e+7 
           3330      6.77874e+7 
           3350      6.67891e+7 
           3370      6.65759e+7 
           3390      6.58615e+7 
           3410      6.60761e+7 
           3430       6.5564e+7 
           3450      6.52618e+7 
           3470      6.45085e+7 
           3490      6.40713e+7 
           3510       6.3967e+7 
           3530      6.36977e+7 
           3550       6.3269e+7 
           3570       6.2701e+7 
           3590      6.22411e+7 
           3610      6.17962e+7 
           3630      6.12915e+7 
           3640      6.11145e+7 
           3650       6.1979e+7 
           3670      6.07152e+7 
           3690      6.21422e+7 
           3710      7.80769e+7 
           3730      1.00247e+8 
           3750      1.31125e+8 
           3770      1.30567e+8 
           3790      1.39827e+8 
           3810      1.50561e+8 
           3830      1.29251e+8 
           3850      1.52636e+8 
           3870      1.54257e+8 
           3890      1.22747e+8 
           3910      1.50757e+8 
           3930      1.48156e+8 
           3950      1.47797e+8 
           3970      1.15656e+8 
           3990      1.43769e+8 
           4010      1.42648e+8 
           4030      1.40178e+8 
           4050      1.39392e+8 
           4070      1.37218e+8 
           4090      1.30787e+8 
           4110      1.10074e+8 
           4130      1.31133e+8 
           4150      1.30742e+8 
           4170      1.28889e+8 
           4190      1.27563e+8 
           4210      1.26103e+8 
           4230      1.24345e+8 
           4250      1.22754e+8 
           4270      1.21224e+8 
           4290      1.19835e+8 
           4310        1.178e+8 
           4330      1.09716e+8 
           4350      9.67362e+7 
           4370      1.13923e+8 
           4390      1.12088e+8 
           4410       1.1129e+8 
           4430      1.10013e+8 
           4450      1.08734e+8 
           4470      1.06928e+8 
           4490      1.05052e+8 
           4510       1.0443e+8 
           4530       1.0317e+8 
           4550      1.01313e+8 
           4570      1.01042e+8 
           4590      9.93121e+7 
           4610      9.89008e+7 
           4630      9.70904e+7 
           4650      9.65724e+7 
           4670      9.53514e+7 
           4690      9.43001e+7 
           4710      9.28455e+7 
           4730      9.20822e+7 
           4750      9.10061e+7 
           4770      9.00293e+7 
           4790      8.89835e+7 
           4810      8.79048e+7 
           4830      8.66422e+7 
           4850      8.14126e+7 
           4870      6.96548e+7 
           4890      8.35979e+7 
           4910      8.29745e+7 
           4930      8.16532e+7 
           4950      8.11162e+7 
           4970      8.02282e+7 
           4990      7.92747e+7 
           5010      7.78401e+7 
           5030      7.74189e+7 
           5050      7.61776e+7 
           5070      7.57521e+7 
           5090      7.49137e+7 
           5110      7.40298e+7 
           5130      7.32705e+7 
           5150        7.239e+7 
           5170      7.12856e+7 
           5190      7.07106e+7 
           5210      7.00133e+7 
           5230       6.9063e+7 
           5250      6.85214e+7 
           5270      6.75153e+7 
           5290      6.70677e+7 
           5310      6.60904e+7 
           5330      6.56046e+7 
           5350      6.49453e+7 
           5370      6.42299e+7 
           5390      6.35505e+7 
           5410      6.28408e+7 
           5430      6.21564e+7 
           5450      6.15425e+7 
           5470      6.08692e+7 
           5490      6.02415e+7 
           5510      5.95816e+7 
           5530      5.89703e+7 
           5550      5.83749e+7 
           5570      5.77609e+7 
           5590      5.71566e+7 
           5610      5.65739e+7 
           5630      5.59849e+7 
           5650       5.5365e+7 
           5670      5.48099e+7 
           5690      5.42623e+7 
           5710      5.37049e+7 
           5730      5.31517e+7 
           5750      5.26048e+7 
           5770      5.20688e+7 
           5790      5.15209e+7 
           5810      5.10039e+7 
           5830      5.04838e+7 
           5850      4.99785e+7 
           5870      4.92722e+7 
           5890      4.89447e+7 
           5910      4.84792e+7 
           5930      4.79974e+7 
           5950      4.74688e+7 
           5970      4.70297e+7 
           5990      4.65188e+7 
           6010      4.61085e+7 
           6030       4.5653e+7 
           6050      4.51972e+7 
           6070      4.47516e+7 
           6090      4.43109e+7 
           6110       4.3877e+7 
           6130      4.34488e+7 
           6150      4.29425e+7 
           6170      4.26022e+7 
           6190      4.21907e+7 
           6210      4.17836e+7 
           6230      4.13711e+7 
           6250      4.08936e+7 
           6270      4.05862e+7 
           6290      4.01924e+7 
           6310      3.97894e+7 
           6330      3.94256e+7 
           6350      3.88665e+7 
           6370      3.85532e+7 
           6390      3.83058e+7 
           6410      3.79342e+7 
           6430      3.75856e+7 
           6450      3.71862e+7 
           6470      3.68865e+7 
           6490      3.65182e+7 
           6510      3.61617e+7 
           6530      3.56922e+7 
           6550      3.40345e+7 
           6570      2.85788e+7 
           6590      3.45378e+7 
           6610        3.448e+7 
           6630      3.42183e+7 
           6650      3.39114e+7 
           6670      3.35728e+7 
           6690      3.32706e+7 
           6710      3.29872e+7 
           6730      3.26824e+7 
           6750       3.2389e+7 
           6770      3.20952e+7 
           6790      3.18026e+7 
           6810      3.15145e+7 
           6830      3.12261e+7 
           6850       3.0946e+7 
           6870      3.06687e+7 
           6890      3.03957e+7 
           6910      3.01222e+7 
           6930      2.98497e+7 
           6950      2.95877e+7 
           6970      2.93259e+7 
           6990      2.90673e+7 
           7010      2.88051e+7 
           7030      2.85561e+7 
           7050      2.82919e+7 
           7070      2.80311e+7 
           7090       2.7811e+7 
           7110      2.75608e+7 
           7130      2.73242e+7 
           7150      2.70868e+7 
           7170      2.68531e+7 
           7190      2.66194e+7 
           7210      2.63907e+7 
           7230      2.61548e+7 
           7250      2.59348e+7 
           7270      2.57131e+7 
           7290      2.54858e+7 
           7310      2.52682e+7 
           7330      2.50569e+7 
           7350      2.48461e+7 
           7370      2.46352e+7 
           7390      2.44261e+7 
           7410      2.42176e+7 
           7430      2.40075e+7 
           7450      2.38062e+7 
           7470      2.35985e+7 
           7490      2.34089e+7 
           7510      2.32082e+7 
           7530      2.30227e+7 
           7550      2.28314e+7 
           7570      2.26413e+7 
           7590      2.24521e+7 
           7610      2.22673e+7 
           7630      2.20821e+7 
           7650      2.18973e+7 
           7670      2.17192e+7 
           7690      2.15407e+7 
           7710      2.13588e+7 
           7730      2.11891e+7 
           7750      2.10159e+7 
           7770      2.06583e+7 
           7790      2.06753e+7 
           7810      2.05084e+7 
           7830      2.03417e+7 
           7850      2.01703e+7 
           7870       1.9987e+7 
           7890      1.98017e+7 
           7910      1.96932e+7 
           7930      1.95365e+7 
           7950       1.9371e+7 
           7970      1.92259e+7 
           7990      1.90383e+7 
           8010       1.8921e+7 
           8030      1.87708e+7 
           8050      1.86224e+7 
           8070      1.84741e+7 
           8090      1.83282e+7 
           8110      1.81835e+7 
           8130      1.80423e+7 
           8150      1.79005e+7 
           8170       1.7761e+7 
           8190       1.7616e+7 
           8210      1.75387e+7 
           8230      1.74051e+7 
           8250      1.73009e+7 
           8270      1.71815e+7 
           8290      1.70329e+7 
           8310      1.68796e+7 
           8330      1.66879e+7 
           8350      1.65616e+7 
           8370      1.62384e+7 
           8390      1.61846e+7 
           8410       1.6022e+7 
           8430      1.62789e+7 
           8450      1.61249e+7 
           8470      1.54828e+7 
           8490      1.67213e+7 
           8510      1.52788e+7 
           8530      1.68579e+7 
           8550      1.48986e+7 
           8570      1.69979e+7 
           8590      1.60294e+7 
           8610      1.55713e+7 
           8630      1.71827e+7 
           8650       1.6919e+7 
           8670      1.43166e+7 
           8690      1.69193e+7 
           8710      1.69296e+7 
           8730      1.66776e+7 
           8750      1.39478e+7 
           8770      1.62187e+7 
           8790      1.64326e+7 
           8810      1.63416e+7 
           8830      1.61614e+7 
           8850      1.55704e+7 
           8870      1.34657e+7 
           8890      1.57357e+7 
           8910      1.57168e+7 
           8930      1.55978e+7 
           8950      1.55019e+7 
           8970      1.53776e+7 
           8990      1.51736e+7 
           9010      1.31034e+7 
           9030      1.42231e+7 
           9050      1.48769e+7 
           9070      1.47802e+7 
           9090      1.46606e+7 
           9110      1.45881e+7 
           9130      1.44772e+7 
           9150      1.43834e+7 
           9170      1.42692e+7 
           9190      1.41331e+7 
