# Kurucz ODFNEW /NOVER (2003)
# teff = 26000 K (value for the effective temperature for the model. Temperatures are given in K)
# logg = 3.5 log(cm/s2) (value for Log(G) for the model.)
# meta = 0.2  (value for the Metallicity for the model.)
# lh = 1.25  (l/Hp where l is the  mixing length of the convective element and Hp is the pressure scale height)
# vtur = 2 km/s (Microturbulence velocity)
# alpha = 0  (Alpha)
#
# column 1: WAVELENGTH (ANGSTROM), Wavelength in Angstrom
# column 2: FLUX (ERG/CM2/S/A), Flux in erg/cm2/s/A
          147.2      3.2871e-13 
            151     1.31841e-12 
          155.2     5.68464e-12 
          158.8     1.87921e-11 
            162     5.22546e-11 
            166     1.78275e-10 
          170.3     6.25754e-10 
          173.4      1.49739e-9 
          176.8      3.76389e-9 
          180.2      9.15637e-9 
          181.7      1.34146e-8 
          186.1      3.98385e-8 
            191      1.26699e-7 
          193.9      2.44682e-7 
          198.4      6.55166e-7 
          201.8      1.34093e-6 
            205      2.57664e-6 
          210.5      7.57893e-6 
          216.2       2.1907e-5 
          219.8      4.16623e-5 
            223      7.25277e-5 
          226.8     0.000138671 
            230       0.0112713 
            234       0.0253004 
            240       0.0553433 
          246.5        0.127225 
          252.4        0.262492 
          256.8        0.417831 
            260        0.694219 
            264         1.08523 
          268.5         1.78435 
          273.5         2.98161 
          278.5          4.8342 
            284         9.32996 
            290         15.9879 
            296         26.7911 
            301         40.0102 
            308         75.2792 
            318          176.35 
            328         347.115 
            338         709.641 
            348          1342.9 
            357         7837.63 
            366         18099.1 
            375         25908.5 
            385         43077.7 
            395         98803.2 
            405          141659 
            414          213446 
            422          285925 
            430          403196 
            441          581712 
            451          738638 
            460          932298 
            470      1.29466e+6 
            480      1.71883e+6 
            490      2.25018e+6 
            500      2.83948e+6 
            506      1.14922e+7 
            512      9.89205e+7 
            520      1.01647e+8 
            530      1.04114e+8 
            540      1.04886e+8 
            550       1.5992e+8 
            560      1.94467e+8 
            570      2.17202e+8 
            580      1.99172e+8 
            590      2.50832e+8 
            600      2.50441e+8 
            610      3.05585e+8 
            620      3.46074e+8 
            630      3.52563e+8 
            640      3.12283e+8 
            650      2.22988e+8 
            658      3.28104e+8 
            665       4.1265e+8 
            675      4.39458e+8 
            685      4.01149e+8 
            695       5.7465e+8 
            705      5.22763e+8 
            716       6.4062e+8 
            726      6.32042e+8 
            735      6.56359e+8 
            745      7.34012e+8 
            755      7.61489e+8 
            765      8.03574e+8 
            775        8.583e+8 
            785       9.1293e+8 
            795      9.29388e+8 
            805      9.35044e+8 
            815      9.39179e+8 
            825      1.03256e+9 
            835      8.06708e+8 
            845      1.01629e+9 
            855      1.01245e+9 
            865      1.07411e+9 
            875       1.1333e+9 
            885      1.21558e+9 
            895      1.25859e+9 
            905      1.22707e+9 
            915      1.89574e+9 
            925     1.30368e+10 
            935     2.27341e+10 
            945     3.00358e+10 
            955     3.23173e+10 
            965     3.32384e+10 
            975      7.05012e+9 
            985     2.26032e+10 
            995     2.49324e+10 
           1005      2.9815e+10 
           1015     3.15287e+10 
           1025      2.4414e+10 
           1035      2.6695e+10 
           1045     3.69511e+10 
           1055     3.37983e+10 
           1065     2.74802e+10 
           1075       3.097e+10 
           1085     2.80919e+10 
           1095     3.10448e+10 
           1105     2.86808e+10 
           1115      2.7806e+10 
           1125      2.0784e+10 
           1135      2.8272e+10 
           1145     2.65631e+10 
           1155     2.63677e+10 
           1165     2.56347e+10 
           1175     1.33406e+10 
           1185     2.34568e+10 
           1195     2.28078e+10 
           1205      1.7383e+10 
           1215     1.68344e+10 
           1225     2.18784e+10 
           1235     2.40036e+10 
           1245     2.26792e+10 
           1255     2.27103e+10 
           1265     2.34109e+10 
           1275     2.43494e+10 
           1285     2.42479e+10 
           1295     1.84938e+10 
           1305     2.00677e+10 
           1315     2.38731e+10 
           1325     2.24198e+10 
           1335     2.16434e+10 
           1345     2.18787e+10 
           1355     2.14811e+10 
           1365     2.00575e+10 
           1375     1.92337e+10 
           1385     1.82629e+10 
           1395     1.15522e+10 
           1405     1.31218e+10 
           1415     1.64472e+10 
           1425     1.57643e+10 
           1435      1.6723e+10 
           1442     1.69747e+10 
           1447     1.67291e+10 
           1455     1.59819e+10 
           1465     1.47185e+10 
           1475     1.53248e+10 
           1485     1.52122e+10 
           1495     1.47965e+10 
           1505     1.34693e+10 
           1512     1.21362e+10 
           1517     1.25464e+10 
           1525     1.27339e+10 
           1535     1.04983e+10 
           1545      9.67444e+9 
           1555      9.50149e+9 
           1565      1.0726e+10 
           1575     1.16134e+10 
           1585      1.1731e+10 
           1595     1.15309e+10 
           1605     1.15551e+10 
           1615      1.1129e+10 
           1625     1.11233e+10 
           1635     1.18067e+10 
           1645     1.19088e+10 
           1655     1.17511e+10 
           1665     1.18492e+10 
           1672     1.10218e+10 
           1677     1.27971e+10 
           1685     1.20823e+10 
           1695     1.13495e+10 
           1705     1.12176e+10 
           1715     1.04628e+10 
           1725     1.02779e+10 
           1735     1.07068e+10 
           1745     1.05246e+10 
           1755     1.05326e+10 
           1765     1.05437e+10 
           1775       9.7495e+9 
           1785     1.00252e+10 
           1795     1.01734e+10 
           1805     1.02736e+10 
           1815      9.18361e+9 
           1825      9.51827e+9 
           1835      9.31087e+9 
           1845      8.44735e+9 
           1855      8.73434e+9 
           1865       8.8321e+9 
           1875      9.05061e+9 
           1885      8.06784e+9 
           1895      7.52625e+9 
           1905      8.18709e+9 
           1915      7.71164e+9 
           1925      7.21592e+9 
           1935      7.80228e+9 
           1945       7.9997e+9 
           1955      7.05648e+9 
           1967      7.76177e+9 
           1976      8.11991e+9 
           1984      7.54195e+9 
           1995      7.40808e+9 
           2005      7.73949e+9 
           2015      7.67353e+9 
           2025      7.85765e+9 
           2035      7.11308e+9 
           2045      7.25421e+9 
           2055      6.65718e+9 
           2065      6.58597e+9 
           2074      7.07737e+9 
           2078      6.38281e+9 
           2085      6.89673e+9 
           2095      6.58007e+9 
           2105       6.8503e+9 
           2115      6.90644e+9 
           2125      6.94162e+9 
           2135      6.83658e+9 
           2145      6.44883e+9 
           2155       6.7471e+9 
           2165      6.68452e+9 
           2175       6.6247e+9 
           2185      6.39313e+9 
           2195      6.50602e+9 
           2205      6.49712e+9 
           2215      6.37523e+9 
           2225      6.21327e+9 
           2235      6.08162e+9 
           2245      6.13423e+9 
           2255      5.94941e+9 
           2265       6.0006e+9 
           2275       5.9171e+9 
           2285      5.87914e+9 
           2295       5.0973e+9 
           2305      5.64418e+9 
           2315      5.50463e+9 
           2325      5.45557e+9 
           2335      5.32112e+9 
           2345      5.38058e+9 
           2355      5.31121e+9 
           2365      5.26497e+9 
           2375       5.1311e+9 
           2385      5.07631e+9 
           2395      5.00977e+9 
           2405      4.94859e+9 
           2415      4.89264e+9 
           2425      4.87127e+9 
           2435      4.73718e+9 
           2445      4.74036e+9 
           2455      4.72876e+9 
           2465      4.64558e+9 
           2475      4.55879e+9 
           2485      4.40529e+9 
           2495      3.29402e+9 
           2505       4.1918e+9 
           2513       4.1145e+9 
           2518      4.26283e+9 
           2525      4.27078e+9 
           2535      4.24401e+9 
           2545      4.07747e+9 
           2555      4.11175e+9 
           2565      4.05902e+9 
           2575      4.05204e+9 
           2585      3.99104e+9 
           2595      3.95402e+9 
           2605      3.92256e+9 
           2615       3.8481e+9 
           2625      3.82709e+9 
           2635       3.7924e+9 
           2645      3.72867e+9 
           2655       3.7078e+9 
           2665      3.54985e+9 
           2675      3.55227e+9 
           2685      3.55967e+9 
           2695      3.42359e+9 
           2705      3.34226e+9 
           2715      3.35305e+9 
           2725      3.36101e+9 
           2735       3.3199e+9 
           2745      3.26966e+9 
           2755      3.25078e+9 
           2765      3.20381e+9 
           2775      3.22273e+9 
           2785      3.16364e+9 
           2795      3.04744e+9 
           2805      3.07483e+9 
           2815       3.0785e+9 
           2825      3.03966e+9 
           2835      2.93069e+9 
           2845      2.96202e+9 
           2855      2.90041e+9 
           2865      2.89497e+9 
           2875      2.86311e+9 
           2885      2.83207e+9 
           2895      2.78561e+9 
           2910        2.722e+9 
           2930      2.69787e+9 
           2950      2.61392e+9 
           2970      2.57162e+9 
           2990      2.50973e+9 
           3010      2.40788e+9 
           3030      2.39692e+9 
           3050      2.36437e+9 
           3070      2.33071e+9 
           3090       2.2278e+9 
           3110      2.22799e+9 
           3130        2.166e+9 
           3150      2.13349e+9 
           3170      2.07629e+9 
           3190      2.03889e+9 
           3210      2.00563e+9 
           3230      1.95267e+9 
           3250       1.9285e+9 
           3270      1.87842e+9 
           3290      1.84277e+9 
           3310      1.80788e+9 
           3330       1.7652e+9 
           3350      1.73472e+9 
           3370      1.69803e+9 
           3390       1.6754e+9 
           3410      1.64379e+9 
           3430      1.60969e+9 
           3450      1.57294e+9 
           3470      1.54407e+9 
           3490      1.51235e+9 
           3510      1.48761e+9 
           3530      1.46899e+9 
           3550      1.43927e+9 
           3570       1.4155e+9 
           3590       1.3749e+9 
           3610       1.3508e+9 
           3630      1.33116e+9 
           3640      1.32718e+9 
           3650      1.29336e+9 
           3670      1.27816e+9 
           3690      1.24641e+9 
           3710      1.20471e+9 
           3730       1.1723e+9 
           3750      1.23323e+9 
           3770      1.21881e+9 
           3790      1.24883e+9 
           3810      1.27977e+9 
           3830      1.15367e+9 
           3850      1.26984e+9 
           3870      1.23172e+9 
           3890      1.09971e+9 
           3910      1.22882e+9 
           3930      1.18393e+9 
           3950       1.1698e+9 
           3970      1.01666e+9 
           3990      1.13766e+9 
           4010      1.12287e+9 
           4030      1.07893e+9 
           4050      1.08266e+9 
           4070      1.03327e+9 
           4090      9.88481e+8 
           4110      9.12468e+8 
           4130      9.89459e+8 
           4150      9.81192e+8 
           4170       9.7568e+8 
           4190      9.63041e+8 
           4210      9.53105e+8 
           4230      9.32765e+8 
           4250      9.06549e+8 
           4270      8.83489e+8 
           4290      8.69662e+8 
           4310       8.4356e+8 
           4330      8.03234e+8 
           4350      7.49895e+8 
           4370      8.04931e+8 
           4390      8.03771e+8 
           4410       7.9272e+8 
           4430      7.86865e+8 
           4450      7.72445e+8 
           4470       7.4873e+8 
           4490      7.51512e+8 
           4510      7.41694e+8 
           4530      7.31745e+8 
           4550      7.20922e+8 
           4570      7.09268e+8 
           4590       6.9661e+8 
           4610      6.80244e+8 
           4630      6.70145e+8 
           4650      6.43363e+8 
           4670       6.5018e+8 
           4690      6.44904e+8 
           4710      6.22711e+8 
           4730      6.25219e+8 
           4750      6.14589e+8 
           4770      6.14148e+8 
           4790      6.03447e+8 
           4810      5.91536e+8 
           4830      5.81302e+8 
           4850      5.59637e+8 
           4870      5.10478e+8 
           4890      5.57435e+8 
           4910      5.50387e+8 
           4930      5.34569e+8 
           4950       5.3135e+8 
           4970      5.29095e+8 
           4990      5.20429e+8 
           5010      4.99472e+8 
           5030      5.04115e+8 
           5050      4.94353e+8 
           5070      4.91443e+8 
           5090      4.83343e+8 
           5110       4.7557e+8 
           5130      4.65499e+8 
           5150       4.6064e+8 
           5170      4.56195e+8 
           5190      4.50742e+8 
           5210       4.4411e+8 
           5230      4.37869e+8 
           5250       4.3186e+8 
           5270       4.2479e+8 
           5290      4.20305e+8 
           5310      4.14139e+8 
           5330      4.09087e+8 
           5350      4.03244e+8 
           5370      3.98195e+8 
           5390      3.92211e+8 
           5410      3.87424e+8 
           5430      3.82289e+8 
           5450      3.76926e+8 
           5470      3.71934e+8 
           5490      3.66891e+8 
           5510      3.62855e+8 
           5530      3.57131e+8 
           5550      3.53559e+8 
           5570      3.48535e+8 
           5590      3.44201e+8 
           5610       3.3974e+8 
           5630       3.3556e+8 
           5650      3.30167e+8 
           5670       3.2428e+8 
           5690      3.18257e+8 
           5710      3.16679e+8 
           5730      3.13221e+8 
           5750      3.07992e+8 
           5770      3.06121e+8 
           5790      3.01841e+8 
           5810       2.9816e+8 
           5830      2.93524e+8 
           5850      2.90628e+8 
           5870      2.80823e+8 
           5890      2.81276e+8 
           5910      2.79073e+8 
           5930      2.75094e+8 
           5950      2.71662e+8 
           5970      2.70363e+8 
           5990      2.65411e+8 
           6010      2.63251e+8 
           6030      2.59321e+8 
           6050      2.56529e+8 
           6070      2.54034e+8 
           6090      2.51078e+8 
           6110      2.47984e+8 
           6130      2.45225e+8 
           6150      2.41063e+8 
           6170      2.38533e+8 
           6190      2.36276e+8 
           6210       2.3378e+8 
           6230      2.31155e+8 
           6250      2.27885e+8 
           6270      2.25417e+8 
           6290      2.23015e+8 
           6310      2.20194e+8 
           6330      2.17949e+8 
           6350      2.14934e+8 
           6370      2.12945e+8 
           6390      2.10341e+8 
           6410      2.07976e+8 
           6430      2.05737e+8 
           6450      2.03304e+8 
           6470       2.0024e+8 
           6490      1.98051e+8 
           6510       1.9624e+8 
           6530      1.93635e+8 
           6550      1.88942e+8 
           6570      1.70399e+8 
           6590      1.85831e+8 
           6610      1.85243e+8 
           6630      1.83476e+8 
           6650      1.81249e+8 
           6670      1.78123e+8 
           6690       1.7621e+8 
           6710      1.75562e+8 
           6730      1.73048e+8 
           6750      1.71809e+8 
           6770      1.69982e+8 
           6790      1.66768e+8 
           6810      1.66025e+8 
           6830      1.64174e+8 
           6850      1.62647e+8 
           6870      1.60847e+8 
           6890      1.58859e+8 
           6910      1.56907e+8 
           6930      1.55791e+8 
           6950      1.54147e+8 
           6970      1.52527e+8 
           6990      1.50846e+8 
           7010      1.49243e+8 
           7030      1.47587e+8 
           7050      1.46091e+8 
           7070      1.42477e+8 
           7090      1.43083e+8 
           7110      1.40357e+8 
           7130      1.39066e+8 
           7150      1.38628e+8 
           7170      1.37211e+8 
           7190       1.3583e+8 
           7210      1.34425e+8 
           7230      1.31153e+8 
           7250      1.31319e+8 
           7270      1.30305e+8 
           7290      1.28024e+8 
           7310      1.27621e+8 
           7330       1.2628e+8 
           7350      1.25071e+8 
           7370      1.23838e+8 
           7390      1.22589e+8 
           7410      1.21352e+8 
           7430      1.20106e+8 
           7450      1.18912e+8 
           7470      1.17088e+8 
           7490       1.1645e+8 
           7510      1.15336e+8 
           7530       1.1412e+8 
           7550      1.13139e+8 
           7570      1.12023e+8 
           7590      1.10878e+8 
           7610      1.09613e+8 
           7630      1.08709e+8 
           7650      1.07652e+8 
           7670      1.06636e+8 
           7690      1.05566e+8 
           7710      1.04512e+8 
           7730      1.03455e+8 
           7750      1.02558e+8 
           7770      1.01351e+8 
           7790      1.00614e+8 
           7810      9.95865e+7 
           7830      9.86974e+7 
           7850      9.77794e+7 
           7870      9.66809e+7 
           7890      9.55862e+7 
           7910      9.48686e+7 
           7930      9.38994e+7 
           7950      9.30699e+7 
           7970      9.21586e+7 
           7990      9.13261e+7 
           8010      9.04243e+7 
           8030      8.95888e+7 
           8050      8.88594e+7 
           8070      8.80608e+7 
           8090      8.71367e+7 
           8110       8.5854e+7 
           8130      8.56772e+7 
           8150      8.47638e+7 
           8170      8.41461e+7 
           8190      8.29269e+7 
           8210      8.20371e+7 
           8230      8.11382e+7 
           8250      8.08782e+7 
           8270      7.93252e+7 
           8290      7.92883e+7 
           8310      7.86561e+7 
           8330      7.79531e+7 
           8350      7.69155e+7 
           8370      7.63333e+7 
           8390        7.582e+7 
           8410      7.50443e+7 
           8430      7.43706e+7 
           8450      7.32486e+7 
           8470      7.28138e+7 
           8490      7.24241e+7 
           8510       7.1127e+7 
           8530      7.13737e+7 
           8550      6.91437e+7 
           8570      7.08834e+7 
