# Kurucz ODFNEW /NOVER (2003)
# teff = 8000 K (value for the effective temperature for the model. Temperatures are given in K)
# logg = 1.5 log(cm/s2) (value for Log(G) for the model.)
# meta = -4  (value for the Metallicity for the model.)
# lh = 1.25  (l/Hp where l is the  mixing length of the convective element and Hp is the pressure scale height)
# vtur = 2 km/s (Microturbulence velocity)
# alpha = 0.4  (Alpha)
#
# column 1: WAVELENGTH (ANGSTROM), Wavelength in Angstrom
# column 2: FLUX (ERG/CM2/S/A), Flux in erg/cm2/s/A
          147.2     1.73866e-35 
            151     1.65225e-35 
          155.2     1.56403e-35 
          158.8     1.49392e-35 
            162     1.43549e-35 
            166     1.36714e-35 
          170.3     1.29897e-35 
          173.4     1.25294e-35 
          176.8     1.20522e-35 
          180.2     1.16017e-35 
          181.7     1.14109e-35 
          186.1     1.08777e-35 
            191     1.03267e-35 
          193.9     1.00201e-35 
          198.4     9.57076e-36 
          201.8     9.25097e-36 
            205     8.96441e-36 
          210.5     8.50208e-36 
          216.2     8.05969e-36 
          219.8     7.79784e-36 
            223     7.57565e-36 
          226.8     7.32392e-36 
            230     7.12154e-36 
            234     6.88015e-36 
            240     6.54044e-36 
          246.5     6.20006e-36 
          252.4     5.91358e-36 
          256.8     5.71267e-36 
            260     5.57292e-36 
            264     5.40532e-36 
          268.5     5.22566e-36 
          273.5     5.03634e-36 
          278.5     4.85712e-36 
            284     4.67082e-36 
            290     1.33347e-23 
            296     1.00107e-22 
            301     3.85915e-22 
            308     2.29709e-21 
            318     2.51432e-20 
            328     2.36429e-19 
            338      1.9368e-18 
            348     1.40057e-17 
            357     7.52223e-17 
            366      3.7151e-16 
            375     1.69305e-15 
            385     8.37281e-15 
            395     3.80436e-14 
            405      1.6006e-13 
            414     5.48337e-13 
            422     1.56472e-12 
            430     4.28807e-12 
            441     1.61184e-11 
            451     5.06341e-11 
            460     1.35726e-10 
            470     3.87729e-10 
            480      1.05756e-9 
            490      2.76624e-9 
            500      6.94327e-9 
            506      2.02346e-8 
            512      4.05969e-8 
            520      7.98836e-8 
            530      1.82772e-7 
            540      3.95553e-7 
            550       8.4771e-7 
            560       1.7473e-6 
            570      3.50571e-6 
            580      6.75324e-6 
            590        1.308e-5 
            600      2.43985e-5 
            610       4.4517e-5 
            620      7.95581e-5 
            630     0.000139359 
            640     0.000239558 
            650     0.000404514 
            658     0.000607559 
            665     0.000859818 
            675      0.00139331 
            685      0.00222308 
            695      0.00349545 
            705      0.00542031 
            716      0.00864855 
            726       0.0130507 
            735       0.0187045 
            745        0.027595 
            755       0.0402541 
            765       0.0580925 
            775       0.0829636 
            785        0.117306 
            795        0.164288 
            805           0.228 
            815        0.313612 
            825        0.427749 
            835        0.578636 
            845        0.776647 
            855         1.03455 
            865         1.36825 
            875         1.79669 
            885         2.34323 
            895         3.03613 
            905         3.90899 
            915         7.50377 
            925         31.6411 
            935         50.6644 
            945          88.434 
            955         150.076 
            965         145.845 
            975         96.7717 
            985         540.695 
            995         2122.72 
           1005         397.682 
           1015         251.805 
           1025         255.418 
           1035          418.36 
           1045         1486.05 
           1055         90050.9 
           1065          633172 
           1075      1.27908e+6 
           1085      1.67521e+6 
           1095      1.45008e+6 
           1105      1.27441e+6 
           1115          931381 
           1125          561243 
           1135          337535 
           1145          142005 
           1155         30530.3 
           1165         2508.24 
           1175         1930.49 
           1185          364301 
           1195         2419.28 
           1205         1774.15 
           1215         1429.52 
           1225          2130.8 
           1235         3660.28 
           1245          1376.5 
           1255         2694.95 
           1265         7050.21 
           1275         9774.98 
           1285          110631 
           1295          244612 
           1305          582429 
           1315          933706 
           1325      1.42701e+6 
           1335      1.87502e+6 
           1345      2.61187e+6 
           1355      3.16153e+6 
           1365      3.86834e+6 
           1375      4.26739e+6 
           1385      4.52827e+6 
           1395      4.81805e+6 
           1405      6.07416e+6 
           1415      7.57307e+6 
           1425      8.23874e+6 
           1435      8.67554e+6 
           1442      9.44793e+6 
           1447      9.52381e+6 
           1455      1.01365e+7 
           1465      1.03267e+7 
           1475      1.10131e+7 
           1485      1.13551e+7 
           1495      1.18819e+7 
           1505      1.23907e+7 
           1512      1.27223e+7 
           1517      1.26916e+7 
           1525      1.29643e+7 
           1535      1.31118e+7 
           1545      1.35165e+7 
           1555      1.35023e+7 
           1565       1.2919e+7 
           1575      1.35974e+7 
           1585      1.37638e+7 
           1595      1.41561e+7 
           1605      1.39927e+7 
           1615      1.45551e+7 
           1625       1.4679e+7 
           1635      1.52286e+7 
           1645      1.58459e+7 
           1655      1.51901e+7 
           1665      1.64595e+7 
           1672      1.60215e+7 
           1677      1.63855e+7 
           1685       1.6708e+7 
           1695      1.66098e+7 
           1705      1.65684e+7 
           1715      1.69176e+7 
           1725      1.69031e+7 
           1735      1.72256e+7 
           1745      1.70387e+7 
           1755      1.72254e+7 
           1765      1.71953e+7 
           1775      1.73369e+7 
           1785      1.71869e+7 
           1795      1.74169e+7 
           1805      1.71643e+7 
           1815      1.71884e+7 
           1825      1.71815e+7 
           1835      1.73036e+7 
           1845      1.71597e+7 
           1855      1.73244e+7 
           1865      1.73514e+7 
           1875      1.73683e+7 
           1885      1.73806e+7 
           1895      1.73844e+7 
           1905      1.72657e+7 
           1915      1.73303e+7 
           1925      1.73693e+7 
           1935      1.71088e+7 
           1945      1.73615e+7 
           1955      1.73411e+7 
           1967      1.73278e+7 
           1976      1.72755e+7 
           1984      1.72656e+7 
           1995      1.72641e+7 
           2005       1.7187e+7 
           2015      1.70809e+7 
           2025      1.70651e+7 
           2035      1.71661e+7 
           2045      1.71338e+7 
           2055      1.68898e+7 
           2065      1.69307e+7 
           2074      1.71274e+7 
           2078      1.71244e+7 
           2085      1.71066e+7 
           2095      1.70871e+7 
           2105      1.70807e+7 
           2115      1.70509e+7 
           2125      1.70093e+7 
           2135      1.69784e+7 
           2145      1.70227e+7 
           2155      1.69868e+7 
           2165      1.67965e+7 
           2175      1.68471e+7 
           2185      1.69236e+7 
           2195      1.69918e+7 
           2205      1.68745e+7 
           2215      1.66963e+7 
           2225      1.67095e+7 
           2235      1.69328e+7 
           2245      1.68713e+7 
           2255      1.66916e+7 
           2265      1.65812e+7 
           2275      1.68012e+7 
           2285      1.68002e+7 
           2295      1.67321e+7 
           2305      1.68084e+7 
           2315      1.67767e+7 
           2325      1.67672e+7 
           2335      1.65949e+7 
           2345      1.61659e+7 
           2355      1.66328e+7 
           2365      1.62089e+7 
           2375      1.65569e+7 
           2385      1.60236e+7 
           2395      1.64733e+7 
           2405      1.64884e+7 
           2415      1.64813e+7 
           2425      1.68184e+7 
           2435      1.67422e+7 
           2445      1.67442e+7 
           2455      1.68212e+7 
           2465      1.67278e+7 
           2475      1.67405e+7 
           2485       1.6739e+7 
           2495      1.66341e+7 
           2505      1.68378e+7 
           2513      1.66914e+7 
           2518      1.67654e+7 
           2525      1.66548e+7 
           2535      1.65172e+7 
           2545      1.67029e+7 
           2555      1.68731e+7 
           2565      1.66983e+7 
           2575      1.67836e+7 
           2585       1.6795e+7 
           2595      1.67603e+7 
           2605       1.6709e+7 
           2615      1.66658e+7 
           2625      1.66812e+7 
           2635      1.67719e+7 
           2645      1.70863e+7 
           2655      1.70872e+7 
           2665      1.70149e+7 
           2675      1.70458e+7 
           2685      1.71151e+7 
           2695      1.70998e+7 
           2705      1.71219e+7 
           2715      1.70129e+7 
           2725      1.69993e+7 
           2735      1.70425e+7 
           2745        1.666e+7 
           2755       1.6787e+7 
           2765      1.70181e+7 
           2775      1.71936e+7 
           2785      1.71952e+7 
           2795      1.65665e+7 
           2805      1.69216e+7 
           2815      1.72595e+7 
           2825      1.72645e+7 
           2835      1.72174e+7 
           2845      1.72493e+7 
           2855      1.71587e+7 
           2865      1.72273e+7 
           2875      1.72754e+7 
           2885      1.72844e+7 
           2895      1.73283e+7 
           2910      1.73544e+7 
           2930      1.73061e+7 
           2950      1.73155e+7 
           2970      1.73889e+7 
           2990      1.73938e+7 
           3010      1.74379e+7 
           3030      1.74559e+7 
           3050       1.7467e+7 
           3070      1.74489e+7 
           3090      1.74908e+7 
           3110      1.75018e+7 
           3130      1.75077e+7 
           3150      1.75131e+7 
           3170      1.75286e+7 
           3190       1.7508e+7 
           3210      1.75413e+7 
           3230      1.75006e+7 
           3250      1.75487e+7 
           3270      1.75729e+7 
           3290      1.75816e+7 
           3310       1.7586e+7 
           3330      1.75742e+7 
           3350      1.75536e+7 
           3370      1.75635e+7 
           3390       1.7568e+7 
           3410      1.75867e+7 
           3430      1.75833e+7 
           3450      1.75804e+7 
           3470      1.75742e+7 
           3490      1.75697e+7 
           3510      1.75633e+7 
           3530      1.75563e+7 
           3550       1.7547e+7 
           3570      1.75354e+7 
           3590      1.75242e+7 
           3610      1.75123e+7 
           3630      1.74986e+7 
           3640      1.74904e+7 
           3650      1.75802e+7 
           3670      1.74031e+7 
           3690      1.87293e+7 
           3710      2.49375e+7 
           3730      3.55666e+7 
           3750      5.58645e+7 
           3770      5.74282e+7 
           3790       6.5998e+7 
           3810      7.35235e+7 
           3830      5.99165e+7 
           3850      7.78443e+7 
           3870      8.13205e+7 
           3890      5.41439e+7 
           3910      7.95345e+7 
           3930      7.87832e+7 
           3950       7.7828e+7 
           3970      5.13623e+7 
           3990       7.5388e+7 
           4010      7.61303e+7 
           4030      7.53417e+7 
           4050      7.44777e+7 
           4070      7.32495e+7 
           4090      6.56953e+7 
           4110      5.16673e+7 
           4130      7.03746e+7 
           4150      7.00698e+7 
           4170      6.93278e+7 
           4190       6.8513e+7 
           4210         6.77e+7 
           4230       6.6895e+7 
           4250      6.61083e+7 
           4270      6.53293e+7 
           4290      6.44883e+7 
           4310      6.33618e+7 
           4330      5.46239e+7 
           4350      4.67346e+7 
           4370       6.1046e+7 
           4390      6.07745e+7 
           4410      6.01838e+7 
           4430      5.94957e+7 
           4450      5.88118e+7 
           4470       5.8085e+7 
           4490      5.74603e+7 
           4510      5.68166e+7 
           4530       5.6171e+7 
           4550       5.5529e+7 
           4570       5.4907e+7 
           4590        5.429e+7 
           4610      5.36835e+7 
           4630      5.30784e+7 
           4650      5.24886e+7 
           4670      5.19035e+7 
           4690      5.13265e+7 
           4710      5.07472e+7 
           4730      5.01977e+7 
           4750       4.9644e+7 
           4770      4.90977e+7 
           4790      4.85605e+7 
           4810      4.79263e+7 
           4830      4.71007e+7 
           4850      4.15143e+7 
           4870      3.38497e+7 
           4890      4.53532e+7 
           4910      4.53408e+7 
           4930      4.49768e+7 
           4950      4.45156e+7 
           4970      4.40407e+7 
           4990      4.35718e+7 
           5010      4.30986e+7 
           5030      4.26523e+7 
           5050      4.21999e+7 
           5070      4.17592e+7 
           5090      4.13211e+7 
           5110      4.08887e+7 
           5130      4.04617e+7 
           5150      4.00415e+7 
           5170      3.96195e+7 
           5190      3.92127e+7 
           5210      3.88136e+7 
           5230      3.84127e+7 
           5250      3.80208e+7 
           5270       3.7631e+7 
           5290      3.72487e+7 
           5310      3.68698e+7 
           5330      3.64968e+7 
           5350      3.61284e+7 
           5370      3.57644e+7 
           5390      3.54048e+7 
           5410      3.50509e+7 
           5430      3.47011e+7 
           5450      3.43556e+7 
           5470      3.40142e+7 
           5490      3.36768e+7 
           5510      3.33447e+7 
           5530      3.30164e+7 
           5550      3.26921e+7 
           5570      3.23715e+7 
           5590      3.20559e+7 
           5610      3.17439e+7 
           5630      3.14356e+7 
           5650      3.11308e+7 
           5670      3.08308e+7 
           5690       3.0533e+7 
           5710      3.02397e+7 
           5730       2.9951e+7 
           5750      2.96643e+7 
           5770      2.93821e+7 
           5790      2.91031e+7 
           5810      2.88271e+7 
           5830      2.85554e+7 
           5850      2.82868e+7 
           5870       2.8008e+7 
           5890      2.77584e+7 
           5910      2.74985e+7 
           5930      2.72427e+7 
           5950      2.69896e+7 
           5970      2.67393e+7 
           5990      2.64928e+7 
           6010      2.62479e+7 
           6030      2.60067e+7 
           6050      2.57682e+7 
           6070      2.55332e+7 
           6090      2.53008e+7 
           6110      2.50708e+7 
           6130      2.48433e+7 
           6150      2.46193e+7 
           6170      2.43966e+7 
           6190      2.41772e+7 
           6210      2.39612e+7 
           6230      2.37464e+7 
           6250      2.35349e+7 
           6270      2.33256e+7 
           6290      2.31185e+7 
           6310      2.29135e+7 
           6330      2.27106e+7 
           6350      2.25108e+7 
           6370       2.2313e+7 
           6390      2.21173e+7 
           6410      2.19236e+7 
           6430      2.17327e+7 
           6450      2.15429e+7 
           6470      2.13559e+7 
           6490      2.11431e+7 
           6510      2.09041e+7 
           6530      2.05695e+7 
           6550      1.88626e+7 
           6570      1.50439e+7 
           6590      1.98037e+7 
           6610      1.99841e+7 
           6630      1.98808e+7 
           6650      1.97631e+7 
           6670      1.95948e+7 
           6690      1.94299e+7 
           6710      1.92665e+7 
           6730      1.91048e+7 
           6750      1.89446e+7 
           6770       1.8786e+7 
           6790      1.86297e+7 
           6810      1.84741e+7 
           6830      1.83209e+7 
           6850      1.81683e+7 
           6870      1.80179e+7 
           6890      1.78691e+7 
           6910      1.77224e+7 
           6930      1.75763e+7 
           6950      1.74324e+7 
           6970      1.72898e+7 
           6990      1.71486e+7 
           7010      1.70095e+7 
           7030      1.68717e+7 
           7050      1.67344e+7 
           7070      1.65992e+7 
           7090      1.64652e+7 
           7110      1.63332e+7 
           7130      1.62017e+7 
           7150      1.60721e+7 
           7170      1.59437e+7 
           7190      1.58165e+7 
           7210      1.56905e+7 
           7230      1.55656e+7 
           7250      1.54426e+7 
           7270      1.53207e+7 
           7290      1.51992e+7 
           7310      1.50794e+7 
           7330      1.49615e+7 
           7350      1.48439e+7 
           7370      1.47281e+7 
           7390      1.46126e+7 
           7410      1.44989e+7 
           7430      1.43861e+7 
           7450      1.42743e+7 
           7470      1.41643e+7 
           7490      1.40545e+7 
           7510      1.39463e+7 
           7530      1.38391e+7 
           7550      1.37328e+7 
           7570      1.36275e+7 
           7590      1.35237e+7 
           7610      1.34202e+7 
           7630      1.33182e+7 
           7650      1.32172e+7 
           7670      1.31169e+7 
           7690      1.30176e+7 
           7710      1.29191e+7 
           7730       1.2822e+7 
           7750      1.27258e+7 
           7770       1.2628e+7 
           7790      1.25359e+7 
           7810      1.24421e+7 
           7830      1.23492e+7 
           7850      1.22576e+7 
           7870      1.21662e+7 
           7890      1.20761e+7 
           7910      1.19868e+7 
           7930      1.18983e+7 
           7950      1.18105e+7 
           7970       1.1724e+7 
           7990      1.16376e+7 
           8010      1.15526e+7 
           8030      1.14682e+7 
           8050      1.13846e+7 
           8070      1.13016e+7 
           8090      1.12193e+7 
           8110      1.11383e+7 
           8130      1.10573e+7 
           8150      1.09776e+7 
           8170      1.08985e+7 
           8190      1.08201e+7 
           8210      1.07786e+7 
           8230       1.0709e+7 
           8250      1.06406e+7 
           8270      1.05682e+7 
           8290      1.04855e+7 
           8310      1.03827e+7 
           8330       1.0271e+7 
           8350      1.02122e+7 
           8370      9.96715e+6 
           8390         9.97e+6 
           8410      9.87097e+6 
           8430       1.0102e+7 
           8450      1.00822e+7 
           8470      9.54782e+6 
           8490       1.0533e+7 
           8510      9.48585e+6 
           8530       1.0725e+7 
           8550        9.236e+6 
           8570      1.09498e+7 
