# Kurucz ODFNEW /NOVER (2003)
# teff = 23000 K (value for the effective temperature for the model. Temperatures are given in K)
# logg = 3.5 log(cm/s2) (value for Log(G) for the model.)
# meta = 0.2  (value for the Metallicity for the model.)
# lh = 1.25  (l/Hp where l is the  mixing length of the convective element and Hp is the pressure scale height)
# vtur = 2 km/s (Microturbulence velocity)
# alpha = 0.4  (Alpha)
#
# column 1: WAVELENGTH (ANGSTROM), Wavelength in Angstrom
# column 2: FLUX (ERG/CM2/S/A), Flux in erg/cm2/s/A
          147.2     9.19263e-17 
            151     4.44026e-16 
          155.2     2.32587e-15 
          158.8     9.00896e-15 
            162     2.86581e-14 
            166     1.14817e-13 
          170.3     4.74827e-13 
          173.4     1.27788e-12 
          176.8     3.63252e-12 
          180.2     9.95735e-12 
          181.7     1.53419e-11 
          186.1     5.26948e-11 
            191     1.95929e-10 
          193.9     4.13652e-10 
          198.4      1.26679e-9 
          201.8      2.86012e-9 
            205      6.01467e-9 
          210.5       2.0547e-8 
          216.2      6.89377e-8 
          219.8      1.43589e-7 
            223      2.70489e-7 
          226.8       5.6151e-7 
            230      1.45992e-5 
            234      3.51039e-5 
            240      9.20305e-5 
          246.5     0.000248052 
          252.4     0.000591418 
          256.8      0.00105993 
            260      0.00175174 
            264      0.00292136 
          268.5      0.00521589 
          273.5      0.00960833 
          278.5       0.0174672 
            284       0.0353576 
            290       0.0677083 
            296         0.12723 
            301        0.210093 
            308        0.440055 
            318          1.1449 
            328         2.63407 
            338          6.1556 
            348         13.2339 
            357         72.9344 
            366         154.729 
            375          252.35 
            385         451.542 
            395         879.208 
            405         1427.06 
            414         2249.22 
            422         3241.94 
            430         4765.25 
            441         7580.46 
            451           11076 
            460         15269.8 
            470         22378.6 
            480         31523.3 
            490         44670.9 
            500         61352.6 
            506          347278 
            512       3.9302e+6 
            520       4.4862e+6 
            530      5.55545e+6 
            540       5.8198e+6 
            550       9.2871e+6 
            560      1.12816e+7 
            570      1.39236e+7 
            580      1.31105e+7 
            590       1.8514e+7 
            600      2.12067e+7 
            610      2.58952e+7 
            620      2.84223e+7 
            630      3.06452e+7 
            640      2.82584e+7 
            650      2.03309e+7 
            658      3.37719e+7 
            665      4.18826e+7 
            675      4.37953e+7 
            685      4.49426e+7 
            695      6.09506e+7 
            705      6.18707e+7 
            716      7.11923e+7 
            726      7.27691e+7 
            735      7.85851e+7 
            745      9.13137e+7 
            755      9.83948e+7 
            765       1.0713e+8 
            775      1.15887e+8 
            785      1.24966e+8 
            795      1.29537e+8 
            805      1.36001e+8 
            815      1.41282e+8 
            825       1.5579e+8 
            835      1.28484e+8 
            845      1.61872e+8 
            855      1.66616e+8 
            865      1.79285e+8 
            875      1.91946e+8 
            885      2.10913e+8 
            895      2.22583e+8 
            905      2.17218e+8 
            915      3.68605e+8 
            925      3.59785e+9 
            935      7.93945e+9 
            945      1.3302e+10 
            955     1.62613e+10 
            965     1.66449e+10 
            975      2.57981e+9 
            985     1.15633e+10 
            995     1.30497e+10 
           1005     1.68953e+10 
           1015     1.74918e+10 
           1025     1.07992e+10 
           1035     1.30358e+10 
           1045      2.1806e+10 
           1055      1.9732e+10 
           1065     1.43903e+10 
           1075     1.78946e+10 
           1085     1.59899e+10 
           1095     1.86033e+10 
           1105     1.53719e+10 
           1115     1.33241e+10 
           1125     1.02884e+10 
           1135     1.66875e+10 
           1145     1.48433e+10 
           1155     1.55693e+10 
           1165     1.56024e+10 
           1175      8.31486e+9 
           1185     1.47961e+10 
           1195     1.21464e+10 
           1205      4.76274e+9 
           1215      7.28819e+9 
           1225     1.26187e+10 
           1235     1.51443e+10 
           1245     1.46754e+10 
           1255     1.44597e+10 
           1265     1.45906e+10 
           1275     1.51811e+10 
           1285      1.5003e+10 
           1295      7.51718e+9 
           1305      8.58789e+9 
           1315     1.44977e+10 
           1325     1.34585e+10 
           1335     1.28313e+10 
           1345     1.33359e+10 
           1355     1.31566e+10 
           1365     1.15589e+10 
           1375     1.11762e+10 
           1385     1.03567e+10 
           1395      5.92228e+9 
           1405      7.16674e+9 
           1415      9.21021e+9 
           1425       9.5248e+9 
           1435      9.99934e+9 
           1442     1.03772e+10 
           1447      1.0173e+10 
           1455      9.76905e+9 
           1465       8.8136e+9 
           1475      9.17813e+9 
           1485      9.03016e+9 
           1495      8.82295e+9 
           1505      7.80412e+9 
           1512      6.90594e+9 
           1517      7.21851e+9 
           1525      7.56107e+9 
           1535      6.24422e+9 
           1545      6.02871e+9 
           1555      5.91169e+9 
           1565      6.47041e+9 
           1575       6.9808e+9 
           1585       7.0479e+9 
           1595      6.96439e+9 
           1605      7.18645e+9 
           1615      7.07722e+9 
           1625      6.85186e+9 
           1635      7.42107e+9 
           1645      7.44431e+9 
           1655      7.24898e+9 
           1665      7.48478e+9 
           1672      7.08898e+9 
           1677      7.83122e+9 
           1685      7.62687e+9 
           1695      7.09538e+9 
           1705      6.90976e+9 
           1715      6.42671e+9 
           1725      6.37546e+9 
           1735      6.73257e+9 
           1745      6.54749e+9 
           1755      6.59014e+9 
           1765      6.51955e+9 
           1775      6.00483e+9 
           1785      6.15305e+9 
           1795      6.48409e+9 
           1805      6.58208e+9 
           1815      5.65193e+9 
           1825      6.01602e+9 
           1835      5.76636e+9 
           1845      5.20998e+9 
           1855      5.23148e+9 
           1865      5.31005e+9 
           1875      5.69484e+9 
           1885      4.98591e+9 
           1895      4.61241e+9 
           1905      5.14161e+9 
           1915      4.70148e+9 
           1925      4.45899e+9 
           1935      4.82515e+9 
           1945      4.87704e+9 
           1955      4.36213e+9 
           1967      4.88384e+9 
           1976      5.09339e+9 
           1984      4.70584e+9 
           1995      4.61358e+9 
           2005       4.8818e+9 
           2015       4.7649e+9 
           2025      4.93955e+9 
           2035      4.44227e+9 
           2045      4.60378e+9 
           2055      4.39878e+9 
           2065      4.36379e+9 
           2074      4.65381e+9 
           2078      4.09884e+9 
           2085      4.45145e+9 
           2095       4.1755e+9 
           2105       4.3245e+9 
           2115      4.38283e+9 
           2125      4.40274e+9 
           2135      4.33498e+9 
           2145      4.07023e+9 
           2155      4.30276e+9 
           2165      4.30972e+9 
           2175       4.2572e+9 
           2185      4.06034e+9 
           2195      4.15612e+9 
           2205      4.16004e+9 
           2215      4.06751e+9 
           2225      3.94481e+9 
           2235      3.90816e+9 
           2245      3.96558e+9 
           2255      3.80091e+9 
           2265      3.89387e+9 
           2275      3.83089e+9 
           2285      3.83791e+9 
           2295       3.4291e+9 
           2305      3.69396e+9 
           2315      3.56384e+9 
           2325      3.52545e+9 
           2335      3.37405e+9 
           2345      3.42631e+9 
           2355      3.42682e+9 
           2365      3.39319e+9 
           2375      3.33175e+9 
           2385      3.30652e+9 
           2395      3.28533e+9 
           2405      3.20375e+9 
           2415      3.18819e+9 
           2425      3.19276e+9 
           2435      3.08171e+9 
           2445      3.11049e+9 
           2455      3.12046e+9 
           2465      3.05037e+9 
           2475      2.99477e+9 
           2485      2.91593e+9 
           2495      2.34993e+9 
           2505      2.80039e+9 
           2513      2.72216e+9 
           2518      2.84113e+9 
           2525      2.79792e+9 
           2535      2.77068e+9 
           2545      2.61901e+9 
           2555      2.71708e+9 
           2565      2.66513e+9 
           2575      2.70913e+9 
           2585      2.66368e+9 
           2595      2.64566e+9 
           2605      2.62988e+9 
           2615       2.5854e+9 
           2625      2.57055e+9 
           2635      2.54983e+9 
           2645      2.53301e+9 
           2655      2.52502e+9 
           2665      2.40114e+9 
           2675      2.43544e+9 
           2685      2.42465e+9 
           2695      2.33247e+9 
           2705      2.28019e+9 
           2715      2.29174e+9 
           2725      2.28814e+9 
           2735      2.27683e+9 
           2745      2.20582e+9 
           2755      2.20374e+9 
           2765      2.18846e+9 
           2775       2.2123e+9 
           2785      2.17026e+9 
           2795      2.07798e+9 
           2805      2.11519e+9 
           2815      2.11888e+9 
           2825      2.09663e+9 
           2835      2.00542e+9 
           2845      2.03137e+9 
           2855      1.99406e+9 
           2865        2.006e+9 
           2875      1.98136e+9 
           2885      1.96281e+9 
           2895      1.92522e+9 
           2910      1.88518e+9 
           2930      1.86717e+9 
           2950      1.81315e+9 
           2970      1.78984e+9 
           2990      1.74908e+9 
           3010       1.6768e+9 
           3030      1.68047e+9 
           3050        1.657e+9 
           3070      1.63624e+9 
           3090      1.56127e+9 
           3110       1.5633e+9 
           3130       1.5232e+9 
           3150      1.50286e+9 
           3170      1.46202e+9 
           3190      1.43423e+9 
           3210      1.41682e+9 
           3230      1.38174e+9 
           3250      1.36496e+9 
           3270       1.3338e+9 
           3290      1.30779e+9 
           3310      1.28553e+9 
           3330      1.25777e+9 
           3350      1.23753e+9 
           3370      1.21154e+9 
           3390      1.19584e+9 
           3410      1.17495e+9 
           3430      1.14963e+9 
           3450       1.1247e+9 
           3470      1.10489e+9 
           3490      1.08276e+9 
           3510      1.06746e+9 
           3530      1.05507e+9 
           3550      1.03511e+9 
           3570      1.01997e+9 
           3590      9.89199e+8 
           3610      9.72748e+8 
           3630      9.60657e+8 
           3640      9.60135e+8 
           3650      9.44559e+8 
           3670      9.35048e+8 
           3690      9.10524e+8 
           3710      8.81739e+8 
           3730      8.59988e+8 
           3750      9.25234e+8 
           3770      9.18518e+8 
           3790      9.48059e+8 
           3810      9.79189e+8 
           3830      8.69753e+8 
           3850      9.73765e+8 
           3870       9.5369e+8 
           3890      8.29935e+8 
           3910      9.55839e+8 
           3930      9.16206e+8 
           3950      9.12046e+8 
           3970      7.70172e+8 
           3990      8.83061e+8 
           4010      8.76921e+8 
           4030      8.35347e+8 
           4050      8.44917e+8 
           4070      8.02838e+8 
           4090      7.65525e+8 
           4110      6.96004e+8 
           4130      7.68195e+8 
           4150      7.63237e+8 
           4170      7.61956e+8 
           4190      7.54806e+8 
           4210      7.49522e+8 
           4230      7.31271e+8 
           4250      7.09951e+8 
           4270      6.88419e+8 
           4290      6.79866e+8 
           4310      6.59922e+8 
           4330      6.23418e+8 
           4350      5.76149e+8 
           4370      6.29753e+8 
           4390      6.29717e+8 
           4410      6.22429e+8 
           4430      6.17264e+8 
           4450       6.0777e+8 
           4470       5.8611e+8 
           4490      5.89702e+8 
           4510       5.8715e+8 
           4530      5.76892e+8 
           4550      5.69775e+8 
           4570      5.59658e+8 
           4590      5.50214e+8 
           4610      5.36357e+8 
           4630      5.30204e+8 
           4650      5.12568e+8 
           4670      5.14112e+8 
           4690      5.11364e+8 
           4710      4.88995e+8 
           4730      4.92968e+8 
           4750      4.85019e+8 
           4770      4.86805e+8 
           4790      4.77576e+8 
           4810      4.66302e+8 
           4830      4.58734e+8 
           4850      4.39071e+8 
           4870      3.96841e+8 
           4890      4.41401e+8 
           4910      4.36109e+8 
           4930      4.22177e+8 
           4950      4.21525e+8 
           4970      4.20488e+8 
           4990      4.13145e+8 
           5010      3.94244e+8 
           5030      4.00138e+8 
           5050      3.89781e+8 
           5070      3.90522e+8 
           5090      3.83722e+8 
           5110      3.77219e+8 
           5130        3.688e+8 
           5150      3.65643e+8 
           5170      3.63101e+8 
           5190      3.58588e+8 
           5210      3.50872e+8 
           5230      3.48868e+8 
           5250      3.44561e+8 
           5270      3.38587e+8 
           5290      3.35439e+8 
           5310      3.30352e+8 
           5330      3.25835e+8 
           5350      3.20692e+8 
           5370      3.18007e+8 
           5390      3.13318e+8 
           5410      3.09602e+8 
           5430      3.04451e+8 
           5450      3.00369e+8 
           5470        2.963e+8 
           5490      2.93246e+8 
           5510      2.90103e+8 
           5530      2.85421e+8 
           5550      2.82781e+8 
           5570       2.7869e+8 
           5590      2.75734e+8 
           5610       2.7151e+8 
           5630      2.68871e+8 
           5650      2.62675e+8 
           5670      2.58493e+8 
           5690      2.55225e+8 
           5710      2.53925e+8 
           5730       2.5149e+8 
           5750      2.47317e+8 
           5770      2.45899e+8 
           5790      2.42585e+8 
           5810      2.39545e+8 
           5830      2.35998e+8 
           5850       2.3354e+8 
           5870      2.24997e+8 
           5890      2.25579e+8 
           5910      2.24087e+8 
           5930      2.21132e+8 
           5950      2.17817e+8 
           5970      2.17386e+8 
           5990      2.13322e+8 
           6010      2.11925e+8 
           6030      2.08823e+8 
           6050       2.0659e+8 
           6070      2.04536e+8 
           6090      2.02036e+8 
           6110      1.99747e+8 
           6130      1.97594e+8 
           6150      1.93631e+8 
           6170      1.92111e+8 
           6190      1.90527e+8 
           6210      1.88481e+8 
           6230      1.86419e+8 
           6250      1.83531e+8 
           6270        1.817e+8 
           6290      1.79823e+8 
           6310       1.7737e+8 
           6330      1.75846e+8 
           6350       1.7275e+8 
           6370      1.71407e+8 
           6390      1.69635e+8 
           6410      1.67762e+8 
           6430      1.66228e+8 
           6450      1.64184e+8 
           6470       1.6165e+8 
           6490      1.60011e+8 
           6510      1.58496e+8 
           6530      1.56131e+8 
           6550      1.51816e+8 
           6570      1.35419e+8 
           6590      1.49744e+8 
           6610      1.49788e+8 
           6630      1.48414e+8 
           6650      1.46603e+8 
           6670       1.4404e+8 
           6690      1.42582e+8 
           6710      1.42169e+8 
           6730      1.40169e+8 
           6750      1.39257e+8 
           6770      1.37761e+8 
           6790      1.34851e+8 
           6810       1.3449e+8 
           6830      1.32904e+8 
           6850      1.31864e+8 
           6870      1.30435e+8 
           6890       1.2887e+8 
           6910       1.2728e+8 
           6930       1.2628e+8 
           6950      1.25102e+8 
           6970      1.23803e+8 
           6990      1.22433e+8 
           7010      1.21122e+8 
           7030      1.19854e+8 
           7050      1.18645e+8 
           7070      1.15487e+8 
           7090      1.16223e+8 
           7110      1.13782e+8 
           7130      1.12759e+8 
           7150      1.12556e+8 
           7170      1.11512e+8 
           7190       1.1044e+8 
           7210      1.09314e+8 
           7230      1.06346e+8 
           7250      1.06756e+8 
           7270      1.05999e+8 
           7290      1.04092e+8 
           7310      1.03848e+8 
           7330      1.02777e+8 
           7350      1.01821e+8 
           7370      1.00832e+8 
           7390       9.9825e+7 
           7410      9.88409e+7 
           7430      9.77021e+7 
           7450      9.68321e+7 
           7470      9.51665e+7 
           7490      9.48403e+7 
           7510      9.39684e+7 
           7530      9.29583e+7 
           7550       9.2222e+7 
           7570      9.13409e+7 
           7590      9.03893e+7 
           7610      8.93814e+7 
           7630       8.8674e+7 
           7650      8.78182e+7 
           7670      8.70022e+7 
           7690      8.61617e+7 
           7710       8.5316e+7 
           7730      8.44337e+7 
           7750      8.37288e+7 
           7770      8.21502e+7 
           7790      8.21572e+7 
           7810      8.13232e+7 
           7830      8.06133e+7 
           7850       7.9714e+7 
           7870      7.88897e+7 
           7890       7.7879e+7 
           7910      7.75218e+7 
           7930      7.67359e+7 
           7950      7.57721e+7 
           7970       7.5244e+7 
           7990      7.42954e+7 
           8010      7.39013e+7 
           8030      7.32298e+7 
           8050      7.26164e+7 
           8070       7.2014e+7 
           8090      7.12439e+7 
           8110      7.02286e+7 
           8130      7.00658e+7 
           8150      6.93537e+7 
           8170      6.88678e+7 
           8190       6.7813e+7 
           8210      6.71812e+7 
           8230      6.64324e+7 
           8250      6.63321e+7 
           8270      6.49375e+7 
           8290      6.50357e+7 
           8310      6.44993e+7 
           8330      6.39891e+7 
           8350      6.30886e+7 
           8370      6.25885e+7 
           8390      6.22208e+7 
           8410       6.1595e+7 
           8430      6.10168e+7 
           8450      5.98208e+7 
           8470      5.97172e+7 
           8490      5.94362e+7 
           8510        5.833e+7 
           8530       5.8673e+7 
           8550       5.6492e+7 
           8570      5.84651e+7 
