# Kurucz ODFNEW /NOVER (2003)
# teff = 19000 K (value for the effective temperature for the model. Temperatures are given in K)
# logg = 4.5 log(cm/s2) (value for Log(G) for the model.)
# meta = -0.5  (value for the Metallicity for the model.)
# lh = 1.25  (l/Hp where l is the  mixing length of the convective element and Hp is the pressure scale height)
# vtur = 2 km/s (Microturbulence velocity)
# alpha = 0  (Alpha)
#
# column 1: WAVELENGTH (ANGSTROM), Wavelength in Angstrom
# column 2: FLUX (ERG/CM2/S/A), Flux in erg/cm2/s/A
          147.2     5.73183e-21 
            151      3.7863e-20 
          155.2     2.73549e-19 
          158.8     1.36866e-18 
            162     5.39715e-18 
            166     2.78637e-17 
          170.3     1.49356e-16 
          173.4     4.76131e-16 
          176.8      1.6209e-15 
          180.2     5.27237e-15 
          181.7     8.74759e-15 
          186.1     3.69156e-14 
            191     1.69782e-13 
          193.9     4.03191e-13 
          198.4     1.46997e-12 
          201.8     3.77069e-12 
            205     8.91233e-12 
          210.5     3.66559e-11 
          216.2     1.47363e-10 
          219.8     3.42169e-10 
            223      7.0621e-10 
          226.8      1.62833e-9 
            230      5.17102e-9 
            234      1.31652e-8 
            240      4.33101e-8 
          246.5      1.45931e-7 
          252.4      4.17168e-7 
          256.8      8.72954e-7 
            260      1.50129e-6 
            264      2.85882e-6 
          268.5      5.75449e-6 
          273.5      1.21764e-5 
          278.5      2.51269e-5 
            284       5.4074e-5 
            290     0.000120473 
            296     0.000259229 
            301     0.000480138 
            308      0.00108951 
            318      0.00335832 
            328       0.0095464 
            338       0.0255233 
            348       0.0642596 
            357        0.140974 
            366         0.29732 
            375        0.601722 
            385         1.26615 
            395           2.557 
            405          4.9808 
            414         8.81708 
            422         14.3113 
            430         22.7484 
            441         41.9983 
            451         71.1893 
            460         111.972 
            470         181.287 
            480         286.995 
            490          445.47 
            500         677.827 
            506         5979.89 
            512         18386.4 
            520         23952.4 
            530         34541.4 
            540         41773.6 
            550         61840.9 
            560         79185.3 
            570          103678 
            580          113904 
            590          158549 
            600          204198 
            610          257352 
            620          311664 
            630          382007 
            640          447890 
            650          531362 
            658          636987 
            665          710574 
            675          824832 
            685          969392 
            695      1.16078e+6 
            705        1.341e+6 
            716      1.57274e+6 
            726      1.79753e+6 
            735        2.033e+6 
            745       2.3475e+6 
            755      2.67935e+6 
            765      3.02928e+6 
            775      3.43822e+6 
            785      3.87572e+6 
            795       4.3107e+6 
            805      4.81044e+6 
            815      5.31621e+6 
            825      5.94354e+6 
            835      6.45204e+6 
            845      7.16077e+6 
            855      7.85333e+6 
            865      8.66972e+6 
            875      9.52962e+6 
            885      1.04872e+7 
            895      1.14092e+7 
            905      1.20987e+7 
            915      1.92058e+7 
            925      6.61723e+7 
            935        1.702e+8 
            945      8.29667e+8 
            955      2.49229e+9 
            965      3.61763e+9 
            975      7.58987e+8 
            985      6.29769e+9 
            995      6.63141e+9 
           1005      7.42735e+9 
           1015      5.33998e+9 
           1025      5.47582e+8 
           1035      3.48424e+9 
           1045       8.2675e+9 
           1055      8.34608e+9 
           1065      7.09233e+9 
           1075      8.23499e+9 
           1085      7.44834e+9 
           1095       8.1556e+9 
           1105      7.36351e+9 
           1115      7.18565e+9 
           1125      6.74444e+9 
           1135      7.64674e+9 
           1145      6.82755e+9 
           1155      7.14784e+9 
           1165      7.40427e+9 
           1175      6.03395e+9 
           1185      7.19239e+9 
           1195      5.17545e+9 
           1205      3.03921e+9 
           1215      5.32164e+8 
           1225      2.92396e+9 
           1235      5.95046e+9 
           1245      6.57176e+9 
           1255      6.45836e+9 
           1265      5.96302e+9 
           1275        6.398e+9 
           1285      6.47859e+9 
           1295      5.07735e+9 
           1305      4.70385e+9 
           1315      6.12318e+9 
           1325      5.83776e+9 
           1335      5.33823e+9 
           1345      5.79789e+9 
           1355      5.63753e+9 
           1365      5.27337e+9 
           1375      5.26609e+9 
           1385      5.31798e+9 
           1395      4.91658e+9 
           1405      5.06135e+9 
           1415      4.93833e+9 
           1425      4.94866e+9 
           1435       4.9125e+9 
           1442      5.01366e+9 
           1447      4.94615e+9 
           1455      4.83603e+9 
           1465      4.62981e+9 
           1475      4.55997e+9 
           1485       4.4289e+9 
           1495      4.41738e+9 
           1505      4.20718e+9 
           1512      3.93283e+9 
           1517      4.06247e+9 
           1525      4.05867e+9 
           1535      3.77525e+9 
           1545      3.87694e+9 
           1555      3.66645e+9 
           1565      3.65851e+9 
           1575      3.78077e+9 
           1585      3.76081e+9 
           1595      3.79184e+9 
           1605      3.65874e+9 
           1615      3.62629e+9 
           1625      3.50975e+9 
           1635      3.56757e+9 
           1645      3.52474e+9 
           1655      3.33277e+9 
           1665      3.52034e+9 
           1672      3.36924e+9 
           1677      3.42272e+9 
           1685      3.44005e+9 
           1695      3.31304e+9 
           1705      3.17425e+9 
           1715      3.05088e+9 
           1725      3.00434e+9 
           1735      3.08182e+9 
           1745      2.98115e+9 
           1755      3.04745e+9 
           1765      2.82545e+9 
           1775      2.89271e+9 
           1785       2.8767e+9 
           1795      2.92168e+9 
           1805      2.89032e+9 
           1815       2.7434e+9 
           1825       2.7797e+9 
           1835      2.68951e+9 
           1845       2.5304e+9 
           1855      2.46509e+9 
           1865      2.48313e+9 
           1875      2.58649e+9 
           1885       2.4022e+9 
           1895       2.2933e+9 
           1905      2.40985e+9 
           1915      2.30277e+9 
           1925      2.25207e+9 
           1935      2.29113e+9 
           1945       2.3235e+9 
           1955      2.18062e+9 
           1967       2.2797e+9 
           1976      2.32864e+9 
           1984      2.20529e+9 
           1995      2.14006e+9 
           2005       2.1719e+9 
           2015      2.13091e+9 
           2025      2.18984e+9 
           2035      2.08268e+9 
           2045      2.07767e+9 
           2055      2.00202e+9 
           2065      2.02746e+9 
           2074      2.06316e+9 
           2078      1.98673e+9 
           2085      2.01111e+9 
           2095      1.93059e+9 
           2105      1.95395e+9 
           2115      1.93661e+9 
           2125      1.95722e+9 
           2135      1.90405e+9 
           2145      1.86276e+9 
           2155      1.88331e+9 
           2165      1.84136e+9 
           2175      1.81913e+9 
           2185        1.791e+9 
           2195      1.80201e+9 
           2205      1.75827e+9 
           2215      1.72346e+9 
           2225      1.67566e+9 
           2235      1.70392e+9 
           2245      1.67599e+9 
           2255      1.63212e+9 
           2265       1.6419e+9 
           2275      1.62939e+9 
           2285      1.62764e+9 
           2295      1.57879e+9 
           2305      1.56392e+9 
           2315      1.53307e+9 
           2325      1.52068e+9 
           2335      1.47348e+9 
           2345      1.43402e+9 
           2355      1.45175e+9 
           2365      1.40913e+9 
           2375      1.41411e+9 
           2385      1.37142e+9 
           2395      1.39454e+9 
           2405      1.35737e+9 
           2415      1.35132e+9 
           2425       1.3573e+9 
           2435      1.31371e+9 
           2445      1.32138e+9 
           2455      1.31527e+9 
           2465       1.2862e+9 
           2475      1.26993e+9 
           2485      1.28028e+9 
           2495      1.24372e+9 
           2505      1.25968e+9 
           2513      1.21928e+9 
           2518      1.23809e+9 
           2525      1.20217e+9 
           2535      1.18479e+9 
           2545       1.1702e+9 
           2555      1.18887e+9 
           2565         1.17e+9 
           2575      1.17786e+9 
           2585      1.17266e+9 
           2595      1.16073e+9 
           2605      1.14379e+9 
           2615      1.13406e+9 
           2625      1.12243e+9 
           2635      1.11382e+9 
           2645      1.12857e+9 
           2655      1.11607e+9 
           2665      1.09016e+9 
           2675      1.09155e+9 
           2685       1.0827e+9 
           2695      1.06218e+9 
           2705      1.05831e+9 
           2715      1.04051e+9 
           2725      1.02421e+9 
           2735      1.02968e+9 
           2745      9.91293e+8 
           2755      9.85847e+8 
           2765      9.85134e+8 
           2775      9.92283e+8 
           2785      9.79973e+8 
           2795      9.43798e+8 
           2805      9.57478e+8 
           2815      9.59149e+8 
           2825      9.41655e+8 
           2835      9.18525e+8 
           2845      9.16873e+8 
           2855      9.14852e+8 
           2865      9.14902e+8 
           2875      9.01621e+8 
           2885      8.95834e+8 
           2895      8.89117e+8 
           2910       8.7904e+8 
           2930      8.57601e+8 
           2950      8.38653e+8 
           2970      8.30258e+8 
           2990      8.12909e+8 
           3010      8.02059e+8 
           3030      7.89577e+8 
           3050      7.74761e+8 
           3070      7.60782e+8 
           3090      7.47611e+8 
           3110      7.33898e+8 
           3130      7.22242e+8 
           3150      7.09417e+8 
           3170      6.96895e+8 
           3190      6.78928e+8 
           3210      6.72761e+8 
           3230      6.61783e+8 
           3250      6.50739e+8 
           3270      6.40548e+8 
           3290      6.29408e+8 
           3310      6.19762e+8 
           3330       6.0935e+8 
           3350       5.9837e+8 
           3370      5.89265e+8 
           3390       5.7971e+8 
           3410      5.70435e+8 
           3430      5.60056e+8 
           3450      5.49973e+8 
           3470      5.41962e+8 
           3490      5.33355e+8 
           3510      5.25705e+8 
           3530      5.17799e+8 
           3550       5.0959e+8 
           3570      5.03098e+8 
           3590      4.93065e+8 
           3610      4.86345e+8 
           3630      4.78142e+8 
           3640      4.76456e+8 
           3650      4.71446e+8 
           3670      4.65958e+8 
           3690      4.57157e+8 
           3710      4.42443e+8 
           3730       4.2317e+8 
           3750      4.49289e+8 
           3770      4.54236e+8 
           3790      4.95719e+8 
           3810      5.29873e+8 
           3830      4.50055e+8 
           3850      5.56205e+8 
           3870      5.79121e+8 
           3890      4.18478e+8 
           3910      5.73912e+8 
           3930      5.72891e+8 
           3950       5.5805e+8 
           3970      3.92484e+8 
           3990      5.31985e+8 
           4010      5.43232e+8 
           4030      5.07652e+8 
           4050       5.3391e+8 
           4070      5.18987e+8 
           4090      4.52915e+8 
           4110      3.82102e+8 
           4130      4.83432e+8 
           4150      4.86221e+8 
           4170      4.83843e+8 
           4190      4.79106e+8 
           4210      4.72036e+8 
           4230      4.64151e+8 
           4250      4.56455e+8 
           4270      4.45102e+8 
           4290      4.40286e+8 
           4310      4.27996e+8 
           4330      3.64896e+8 
           4350      3.27683e+8 
           4370      4.05711e+8 
           4390      3.93695e+8 
           4410        4.016e+8 
           4430      3.94488e+8 
           4450      3.90703e+8 
           4470        3.644e+8 
           4490      3.75905e+8 
           4510       3.7382e+8 
           4530      3.67662e+8 
           4550      3.62235e+8 
           4570      3.57142e+8 
           4590      3.51908e+8 
           4610       3.4661e+8 
           4630      3.41109e+8 
           4650       3.3609e+8 
           4670      3.31646e+8 
           4690      3.27059e+8 
           4710      3.17121e+8 
           4730      3.16348e+8 
           4750      3.11485e+8 
           4770      3.08763e+8 
           4790      3.03546e+8 
           4810      2.97722e+8 
           4830      2.90061e+8 
           4850      2.54442e+8 
           4870      2.22716e+8 
           4890      2.75819e+8 
           4910      2.76905e+8 
           4930       2.6699e+8 
           4950      2.71525e+8 
           4970      2.68124e+8 
           4990      2.64284e+8 
           5010       2.5622e+8 
           5030      2.56703e+8 
           5050      2.50345e+8 
           5070      2.50192e+8 
           5090      2.46775e+8 
           5110      2.43231e+8 
           5130      2.39936e+8 
           5150      2.36556e+8 
           5170      2.33813e+8 
           5190      2.30728e+8 
           5210      2.26711e+8 
           5230      2.24636e+8 
           5250      2.21753e+8 
           5270      2.18757e+8 
           5290      2.16123e+8 
           5310      2.13229e+8 
           5330      2.10412e+8 
           5350      2.07433e+8 
           5370      2.05172e+8 
           5390      2.02524e+8 
           5410      1.99858e+8 
           5430      1.96996e+8 
           5450      1.94691e+8 
           5470      1.92199e+8 
           5490      1.89976e+8 
           5510      1.87508e+8 
           5530      1.85205e+8 
           5550      1.82944e+8 
           5570      1.80636e+8 
           5590      1.78418e+8 
           5610      1.76107e+8 
           5630      1.74121e+8 
           5650       1.7138e+8 
           5670      1.69434e+8 
           5690      1.67582e+8 
           5710      1.65717e+8 
           5730      1.63725e+8 
           5750      1.61733e+8 
           5770      1.59822e+8 
           5790      1.57877e+8 
           5810      1.55966e+8 
           5830       1.5411e+8 
           5850      1.52288e+8 
           5870      1.45938e+8 
           5890      1.48174e+8 
           5910      1.46936e+8 
           5930      1.45228e+8 
           5950      1.43317e+8 
           5970      1.41841e+8 
           5990      1.40076e+8 
           6010      1.38593e+8 
           6030       1.3697e+8 
           6050      1.35407e+8 
           6070      1.33832e+8 
           6090      1.32284e+8 
           6110      1.30803e+8 
           6130       1.2931e+8 
           6150      1.27663e+8 
           6170      1.26372e+8 
           6190      1.24957e+8 
           6210      1.23547e+8 
           6230      1.22134e+8 
           6250       1.2066e+8 
           6270      1.19431e+8 
           6290      1.18092e+8 
           6310      1.16729e+8 
           6330      1.15495e+8 
           6350      1.13741e+8 
           6370      1.12665e+8 
           6390      1.11694e+8 
           6410      1.10438e+8 
           6430      1.09306e+8 
           6450      1.08068e+8 
           6470      1.06888e+8 
           6490      1.05622e+8 
           6510      1.04147e+8 
           6530      1.02229e+8 
           6550      9.49233e+7 
           6570      8.27943e+7 
           6590      9.75133e+7 
           6610      9.85192e+7 
           6630        9.784e+7 
           6650       9.7065e+7 
           6670      9.51373e+7 
           6690      9.41737e+7 
           6710      9.40566e+7 
           6730      9.30742e+7 
           6750      9.21101e+7 
           6770      9.11557e+7 
           6790      9.01292e+7 
           6810      8.92513e+7 
           6830      8.83175e+7 
           6850      8.74332e+7 
           6870      8.65337e+7 
           6890      8.56432e+7 
           6910      8.47695e+7 
           6930      8.38651e+7 
           6950      8.30556e+7 
           6970      8.22151e+7 
           6990      8.13752e+7 
           7010      8.05512e+7 
           7030      7.97429e+7 
           7050       7.8897e+7 
           7070      7.71021e+7 
           7090      7.73797e+7 
           7110      7.65947e+7 
           7130      7.58396e+7 
           7150      7.50843e+7 
           7170      7.43435e+7 
           7190      7.36172e+7 
           7210      7.28977e+7 
           7230      7.18557e+7 
           7250      7.14576e+7 
           7270      7.07756e+7 
           7290      6.96711e+7 
           7310      6.94004e+7 
           7330      6.87326e+7 
           7350      6.80704e+7 
           7370      6.74136e+7 
           7390      6.67657e+7 
           7410      6.61251e+7 
           7430      6.54694e+7 
           7450      6.48638e+7 
           7470      6.42273e+7 
           7490      6.36269e+7 
           7510      6.30199e+7 
           7530      6.24384e+7 
           7550      6.18516e+7 
           7570      6.12728e+7 
           7590      6.06933e+7 
           7610      6.01308e+7 
           7630      5.95687e+7 
           7650      5.90118e+7 
           7670      5.84643e+7 
           7690      5.79223e+7 
           7710      5.73864e+7 
           7730      5.68541e+7 
           7750      5.63314e+7 
           7770      5.55613e+7 
           7790      5.53031e+7 
           7810      5.47849e+7 
           7830      5.43002e+7 
           7850      5.37689e+7 
           7870      5.32837e+7 
           7890       5.2747e+7 
           7910        5.238e+7 
           7930      5.19119e+7 
           7950      5.13911e+7 
           7970      5.09704e+7 
           7990      5.04418e+7 
           8010      5.00722e+7 
           8030       4.9625e+7 
           8050      4.91782e+7 
           8070      4.87473e+7 
           8090      4.82838e+7 
           8110      4.78603e+7 
           8130      4.74508e+7 
           8150       4.7014e+7 
           8170      4.66362e+7 
           8190      4.61914e+7 
           8210      4.56966e+7 
           8230      4.53396e+7 
           8250      4.50177e+7 
           8270      4.45303e+7 
           8290      4.42389e+7 
           8310      4.38811e+7 
           8330      4.35018e+7 
           8350      4.30241e+7 
           8370      4.27273e+7 
           8390       4.2413e+7 
           8410      4.20315e+7 
           8430      4.16367e+7 
           8450      4.10531e+7 
           8470      4.08405e+7 
           8490      4.04905e+7 
           8510      3.99847e+7 
           8530      3.98481e+7 
           8550      3.88173e+7 
           8570      3.95309e+7 
