# Kurucz ODFNEW /NOVER (2003)
# teff = 21000 K (value for the effective temperature for the model. Temperatures are given in K)
# logg = 3.5 log(cm/s2) (value for Log(G) for the model.)
# meta = 0.5  (value for the Metallicity for the model.)
# lh = 1.25  (l/Hp where l is the  mixing length of the convective element and Hp is the pressure scale height)
# vtur = 2 km/s (Microturbulence velocity)
# alpha = 0  (Alpha)
#
# column 1: WAVELENGTH (ANGSTROM), Wavelength in Angstrom
# column 2: FLUX (ERG/CM2/S/A), Flux in erg/cm2/s/A
          147.2      3.2805e-19 
            151     1.81896e-18 
          155.2     1.10086e-17 
          158.8     4.79475e-17 
            162     1.68526e-16 
            166     7.60404e-16 
          170.3     3.55217e-15 
          173.4     1.03826e-14 
          176.8     3.21949e-14 
          180.2     9.58946e-14 
          181.7     1.53374e-13 
          186.1     5.83828e-13 
            191     2.41811e-12 
          193.9     5.42551e-12 
          198.4     1.81959e-11 
          201.8     4.38912e-11 
            205     9.80438e-11 
          210.5     3.69807e-10 
          216.2      1.36781e-9 
          219.8      3.02236e-9 
            223      5.99014e-9 
          226.8      1.31779e-8 
            230      2.67385e-7 
            234      6.79188e-7 
            240      1.96298e-6 
          246.5      5.83097e-6 
          252.4      1.50897e-5 
          256.8      2.88616e-5 
            260      4.93276e-5 
            264      8.76365e-5 
          268.5     0.000164101 
          273.5     0.000320044 
          278.5     0.000616612 
            284      0.00127766 
            290      0.00261466 
            296      0.00521176 
            301      0.00903018 
            308        0.019514 
            318        0.054786 
            328        0.137551 
            338        0.343147 
            348        0.789706 
            357         2.27695 
            366         4.57398 
            375         8.26568 
            385         15.8703 
            395         30.2035 
            405          53.809 
            414         89.5621 
            422         137.211 
            430         211.205 
            441         363.052 
            451         572.259 
            460          846.68 
            470         1312.62 
            480         1968.67 
            490         2935.54 
            500         4267.29 
            506         21733.9 
            512          461714 
            520          564537 
            530          744835 
            540          847796 
            550      1.35784e+6 
            560      1.65131e+6 
            570      2.15358e+6 
            580       2.0943e+6 
            590      2.98624e+6 
            600      3.69069e+6 
            610      4.64812e+6 
            620      5.21806e+6 
            630      5.79009e+6 
            640      5.46175e+6 
            650      3.82409e+6 
            658      6.74193e+6 
            665      8.54792e+6 
            675      9.45245e+6 
            685      9.94281e+6 
            695      1.34001e+7 
            705      1.41096e+7 
            716       1.6269e+7 
            726      1.73421e+7 
            735      1.85078e+7 
            745      2.17964e+7 
            755      2.40766e+7 
            765      2.66738e+7 
            775      2.93317e+7 
            785       3.1995e+7 
            795      3.39013e+7 
            805      3.59582e+7 
            815      3.81253e+7 
            825      4.25136e+7 
            835      3.81325e+7 
            845      4.54977e+7 
            855      4.74199e+7 
            865      5.19207e+7 
            875      5.65617e+7 
            885      6.29482e+7 
            895      6.71837e+7 
            905       6.4755e+7 
            915      1.21722e+8 
            925      1.24939e+9 
            935      2.99393e+9 
            945        5.601e+9 
            955      7.80164e+9 
            965      7.28437e+9 
            975       9.6411e+8 
            985      4.59659e+9 
            995      6.39282e+9 
           1005       9.3572e+9 
           1015      9.67252e+9 
           1025      5.62965e+9 
           1035      6.13859e+9 
           1045     1.29351e+10 
           1055     1.19021e+10 
           1065      8.29537e+9 
           1075     1.09483e+10 
           1085       8.9809e+9 
           1095     1.13437e+10 
           1105      9.38225e+9 
           1115      8.08413e+9 
           1125      6.39499e+9 
           1135     1.03843e+10 
           1145      9.12064e+9 
           1155      9.73491e+9 
           1165      9.59044e+9 
           1175      4.85816e+9 
           1185      9.39956e+9 
           1195      7.24479e+9 
           1205      2.79299e+9 
           1215      4.05254e+9 
           1225      7.99313e+9 
           1235     1.02648e+10 
           1245      9.91098e+9 
           1255      9.74578e+9 
           1265      9.64409e+9 
           1275     1.01024e+10 
           1285     1.02842e+10 
           1295      5.06971e+9 
           1305      5.50243e+9 
           1315      9.75665e+9 
           1325      8.90954e+9 
           1335      7.91983e+9 
           1345      9.27525e+9 
           1355      8.88626e+9 
           1365      7.51245e+9 
           1375      7.41912e+9 
           1385      7.17293e+9 
           1395      4.81998e+9 
           1405      5.42796e+9 
           1415      6.02887e+9 
           1425        6.331e+9 
           1435      6.60128e+9 
           1442      6.88122e+9 
           1447      6.72597e+9 
           1455      6.47373e+9 
           1465      5.72969e+9 
           1475      6.06213e+9 
           1485      6.01681e+9 
           1495      5.87186e+9 
           1505      5.14193e+9 
           1512      4.42753e+9 
           1517      4.69502e+9 
           1525      4.97668e+9 
           1535       4.0664e+9 
           1545       3.9759e+9 
           1555      3.93474e+9 
           1565      4.26439e+9 
           1575      4.60284e+9 
           1585      4.79057e+9 
           1595      4.66213e+9 
           1605      4.89144e+9 
           1615      4.88955e+9 
           1625      4.65607e+9 
           1635      5.15793e+9 
           1645      5.13146e+9 
           1655      4.92701e+9 
           1665      5.29661e+9 
           1672      4.99173e+9 
           1677      5.38759e+9 
           1685      5.41683e+9 
           1695       4.9731e+9 
           1705      4.84936e+9 
           1715      4.44714e+9 
           1725       4.4403e+9 
           1735      4.79374e+9 
           1745      4.57144e+9 
           1755      4.71165e+9 
           1765       4.5382e+9 
           1775      4.24245e+9 
           1785      4.43105e+9 
           1795      4.74428e+9 
           1805       4.8668e+9 
           1815      4.02206e+9 
           1825      4.36245e+9 
           1835      4.14129e+9 
           1845      3.68725e+9 
           1855      3.54787e+9 
           1865       3.6673e+9 
           1875      4.20362e+9 
           1885      3.57155e+9 
           1895      3.27168e+9 
           1905      3.77246e+9 
           1915      3.31239e+9 
           1925       3.1827e+9 
           1935      3.51019e+9 
           1945      3.55994e+9 
           1955      3.14402e+9 
           1967      3.61259e+9 
           1976      3.75043e+9 
           1984      3.45265e+9 
           1995      3.35543e+9 
           2005      3.65285e+9 
           2015      3.49671e+9 
           2025      3.70755e+9 
           2035      3.27894e+9 
           2045      3.45495e+9 
           2055      3.29777e+9 
           2065      3.23922e+9 
           2074      3.55335e+9 
           2078      3.02747e+9 
           2085      3.34446e+9 
           2095      3.11416e+9 
           2105      3.24678e+9 
           2115      3.29759e+9 
           2125      3.31601e+9 
           2135      3.22742e+9 
           2145      3.06385e+9 
           2155       3.2455e+9 
           2165      3.25939e+9 
           2175      3.23379e+9 
           2185      3.04076e+9 
           2195      3.16145e+9 
           2205      3.15089e+9 
           2215      3.04472e+9 
           2225      2.94367e+9 
           2235      2.97018e+9 
           2245      3.00119e+9 
           2255       2.8409e+9 
           2265       2.9562e+9 
           2275      2.92372e+9 
           2285      2.95685e+9 
           2295      2.63888e+9 
           2305      2.81883e+9 
           2315       2.6803e+9 
           2325      2.63708e+9 
           2335      2.50143e+9 
           2345      2.53556e+9 
           2355       2.5585e+9 
           2365      2.51246e+9 
           2375      2.48934e+9 
           2385      2.44553e+9 
           2395      2.48262e+9 
           2405      2.37109e+9 
           2415      2.41609e+9 
           2425      2.42452e+9 
           2435      2.31258e+9 
           2445      2.37777e+9 
           2455      2.38613e+9 
           2465      2.32118e+9 
           2475      2.26728e+9 
           2485      2.27006e+9 
           2495      1.98749e+9 
           2505      2.21366e+9 
           2513      2.07628e+9 
           2518      2.20524e+9 
           2525       2.1275e+9 
           2535      2.10788e+9 
           2545      2.00084e+9 
           2555      2.08995e+9 
           2565      2.05943e+9 
           2575      2.10914e+9 
           2585      2.07938e+9 
           2595      2.06294e+9 
           2605      2.04325e+9 
           2615      2.01454e+9 
           2625      2.00551e+9 
           2635       2.0016e+9 
           2645      2.00001e+9 
           2655      2.00779e+9 
           2665      1.88879e+9 
           2675      1.93418e+9 
           2685      1.91541e+9 
           2695      1.83955e+9 
           2705       1.7939e+9 
           2715      1.79982e+9 
           2725      1.80622e+9 
           2735      1.81172e+9 
           2745       1.7285e+9 
           2755      1.72948e+9 
           2765      1.72793e+9 
           2775      1.76094e+9 
           2785        1.732e+9 
           2795      1.65699e+9 
           2805       1.6892e+9 
           2815      1.69528e+9 
           2825      1.67934e+9 
           2835      1.57962e+9 
           2845      1.59698e+9 
           2855      1.58054e+9 
           2865      1.60849e+9 
           2875      1.58711e+9 
           2885      1.57088e+9 
           2895      1.54081e+9 
           2910       1.5251e+9 
           2930      1.50443e+9 
           2950      1.45597e+9 
           2970      1.44112e+9 
           2990      1.41247e+9 
           3010      1.36187e+9 
           3030      1.37189e+9 
           3050      1.34715e+9 
           3070      1.32734e+9 
           3090      1.27632e+9 
           3110      1.27047e+9 
           3130      1.24418e+9 
           3150       1.2263e+9 
           3170      1.18925e+9 
           3190      1.16627e+9 
           3210      1.15434e+9 
           3230      1.13038e+9 
           3250       1.1154e+9 
           3270      1.09162e+9 
           3290      1.07077e+9 
           3310      1.05353e+9 
           3330      1.03117e+9 
           3350      1.01392e+9 
           3370      9.94293e+8 
           3390      9.80825e+8 
           3410      9.64138e+8 
           3430      9.41399e+8 
           3450      9.22192e+8 
           3470      9.07306e+8 
           3490      8.89915e+8 
           3510      8.76623e+8 
           3530      8.67171e+8 
           3550      8.52106e+8 
           3570      8.40487e+8 
           3590      8.13172e+8 
           3610       7.9907e+8 
           3630      7.92347e+8 
           3640       7.9252e+8 
           3650      7.79785e+8 
           3670       7.7226e+8 
           3690      7.50244e+8 
           3710      7.29012e+8 
           3730      7.14364e+8 
           3750      7.84213e+8 
           3770      7.84423e+8 
           3790      8.14746e+8 
           3810      8.47402e+8 
           3830      7.43345e+8 
           3850      8.48413e+8 
           3870      8.33906e+8 
           3890       7.0879e+8 
           3910      8.36645e+8 
           3930      8.00662e+8 
           3950      7.99577e+8 
           3970      6.57446e+8 
           3990      7.71439e+8 
           4010      7.66246e+8 
           4030      7.25419e+8 
           4050      7.39219e+8 
           4070      7.03407e+8 
           4090      6.71456e+8 
           4110      6.02558e+8 
           4130      6.72405e+8 
           4150      6.67777e+8 
           4170      6.65807e+8 
           4190      6.62084e+8 
           4210      6.56871e+8 
           4230      6.41452e+8 
           4250       6.2377e+8 
           4270      6.03684e+8 
           4290      6.00606e+8 
           4310      5.81275e+8 
           4330      5.42181e+8 
           4350      4.99897e+8 
           4370      5.51318e+8 
           4390      5.52111e+8 
           4410       5.4818e+8 
           4430      5.41245e+8 
           4450      5.36505e+8 
           4470      5.14463e+8 
           4490      5.19084e+8 
           4510      5.17324e+8 
           4530      5.06855e+8 
           4550      5.01918e+8 
           4570      4.93584e+8 
           4590      4.85751e+8 
           4610      4.72576e+8 
           4630      4.65479e+8 
           4650      4.53661e+8 
           4670      4.54102e+8 
           4690      4.51796e+8 
           4710      4.31936e+8 
           4730      4.32046e+8 
           4750      4.26128e+8 
           4770      4.28788e+8 
           4790      4.19681e+8 
           4810       4.0962e+8 
           4830      4.04248e+8 
           4850      3.84185e+8 
           4870       3.4331e+8 
           4890      3.88749e+8 
           4910      3.84229e+8 
           4930      3.71027e+8 
           4950      3.72509e+8 
           4970      3.70402e+8 
           4990      3.63459e+8 
           5010      3.44428e+8 
           5030      3.51507e+8 
           5050      3.41653e+8 
           5070      3.43198e+8 
           5090      3.37685e+8 
           5110      3.31008e+8 
           5130      3.21288e+8 
           5150      3.19536e+8 
           5170      3.19648e+8 
           5190      3.15581e+8 
           5210      3.07847e+8 
           5230       3.0642e+8 
           5250      3.02942e+8 
           5270      2.97527e+8 
           5290      2.95362e+8 
           5310      2.90616e+8 
           5330      2.86569e+8 
           5350      2.81864e+8 
           5370      2.80056e+8 
           5390      2.76114e+8 
           5410      2.72764e+8 
           5430      2.68024e+8 
           5450      2.64716e+8 
           5470      2.60945e+8 
           5490      2.58248e+8 
           5510      2.55694e+8 
           5530      2.51458e+8 
           5550      2.49502e+8 
           5570      2.45819e+8 
           5590       2.4334e+8 
           5610      2.39633e+8 
           5630       2.3747e+8 
           5650      2.30965e+8 
           5670      2.27358e+8 
           5690      2.24936e+8 
           5710      2.24184e+8 
           5730      2.21876e+8 
           5750      2.18477e+8 
           5770      2.17135e+8 
           5790      2.14154e+8 
           5810      2.11566e+8 
           5830        2.083e+8 
           5850      2.06228e+8 
           5870      1.98233e+8 
           5890      1.98398e+8 
           5910      1.97748e+8 
           5930      1.95088e+8 
           5950      1.91959e+8 
           5970       1.9206e+8 
           5990      1.88312e+8 
           6010        1.873e+8 
           6030      1.84444e+8 
           6050      1.82485e+8 
           6070      1.80804e+8 
           6090      1.78521e+8 
           6110      1.76557e+8 
           6130      1.74776e+8 
           6150      1.70812e+8 
           6170      1.69815e+8 
           6190      1.68464e+8 
           6210      1.66726e+8 
           6230      1.64861e+8 
           6250      1.61937e+8 
           6270      1.60599e+8 
           6290      1.58998e+8 
           6310      1.56885e+8 
           6330      1.55604e+8 
           6350      1.52654e+8 
           6370      1.51567e+8 
           6390      1.50038e+8 
           6410      1.48452e+8 
           6430      1.47166e+8 
           6450      1.45268e+8 
           6470      1.43084e+8 
           6490      1.41604e+8 
           6510      1.40255e+8 
           6530      1.38276e+8 
           6550      1.33604e+8 
           6570      1.17728e+8 
           6590      1.31874e+8 
           6610      1.32552e+8 
           6630      1.31428e+8 
           6650      1.29999e+8 
           6670      1.27519e+8 
           6690      1.26244e+8 
           6710      1.25986e+8 
           6730       1.2424e+8 
           6750      1.23389e+8 
           6770      1.22086e+8 
           6790      1.18941e+8 
           6810      1.19031e+8 
           6830      1.17859e+8 
           6850      1.16875e+8 
           6870      1.15652e+8 
           6890      1.14307e+8 
           6910      1.13031e+8 
           6930       1.1187e+8 
           6950      1.10892e+8 
           6970      1.09768e+8 
           6990      1.08554e+8 
           7010      1.07399e+8 
           7030      1.06293e+8 
           7050       1.0507e+8 
           7070      1.02215e+8 
           7090      1.02891e+8 
           7110      9.99726e+7 
           7130      9.91532e+7 
           7150       9.9653e+7 
           7170      9.88927e+7 
           7190      9.79789e+7 
           7210      9.69795e+7 
           7230      9.39357e+7 
           7250      9.47871e+7 
           7270      9.40453e+7 
           7290       9.2332e+7 
           7310      9.21518e+7 
           7330      9.12008e+7 
           7350      9.03914e+7 
           7370      8.94992e+7 
           7390      8.86084e+7 
           7410      8.77396e+7 
           7430      8.67083e+7 
           7450      8.59583e+7 
           7470      8.46615e+7 
           7490      8.42167e+7 
           7510      8.33679e+7 
           7530      8.25004e+7 
           7550      8.18723e+7 
           7570      8.11049e+7 
           7590      8.02595e+7 
           7610      7.94739e+7 
           7630      7.87472e+7 
           7650      7.80077e+7 
           7670      7.72748e+7 
           7690      7.65167e+7 
           7710      7.57843e+7 
           7730       7.5027e+7 
           7750      7.43768e+7 
           7770      7.28899e+7 
           7790      7.29879e+7 
           7810      7.22502e+7 
           7830      7.16296e+7 
           7850       7.0776e+7 
           7870      7.01126e+7 
           7890      6.91706e+7 
           7910      6.88333e+7 
           7930       6.8175e+7 
           7950        6.729e+7 
           7970      6.68756e+7 
           7990      6.59689e+7 
           8010      6.56633e+7 
           8030      6.50679e+7 
           8050      6.45008e+7 
           8070      6.39848e+7 
           8090      6.32832e+7 
           8110      6.25648e+7 
           8130      6.22801e+7 
           8150      6.16345e+7 
           8170      6.12315e+7 
           8190      6.04105e+7 
           8210      5.97253e+7 
           8230      5.90572e+7 
           8250       5.8976e+7 
           8270      5.78813e+7 
           8290      5.78326e+7 
           8310      5.73418e+7 
           8330      5.68985e+7 
           8350      5.60805e+7 
           8370      5.56623e+7 
           8390       5.5349e+7 
           8410      5.47932e+7 
           8430      5.42419e+7 
           8450      5.31043e+7 
           8470      5.30429e+7 
           8490      5.28612e+7 
           8510      5.17682e+7 
           8530      5.22579e+7 
           8550      5.00121e+7 
           8570      5.22123e+7 
