# Kurucz ODFNEW /NOVER (2003)
# teff = 9750 K (value for the effective temperature for the model. Temperatures are given in K)
# logg = 3.5 log(cm/s2) (value for Log(G) for the model.)
# meta = -1  (value for the Metallicity for the model.)
# lh = 1.25  (l/Hp where l is the  mixing length of the convective element and Hp is the pressure scale height)
# vtur = 2 km/s (Microturbulence velocity)
# alpha = 0.4  (Alpha)
#
# column 1: WAVELENGTH (ANGSTROM), Wavelength in Angstrom
# column 2: FLUX (ERG/CM2/S/A), Flux in erg/cm2/s/A
            264     9.90039e-24 
          268.5      8.7791e-23 
          273.5     3.94919e-22 
          278.5     1.61616e-21 
            284     7.14542e-21 
            290     3.38434e-20 
            296     1.50217e-19 
            301     4.97519e-19 
            308      2.4893e-18 
            318     2.19271e-17 
            328     1.68906e-16 
            338     1.15013e-15 
            348     7.00239e-15 
            357     3.25772e-14 
            366     1.40299e-13 
            375     5.61993e-13 
            385     2.42949e-12 
            395     9.72941e-12 
            405     3.63144e-11 
            414      1.1232e-10 
            422     2.93816e-10 
            430     7.40378e-10 
            441      2.49499e-9 
            451      7.13338e-9 
            460      1.76297e-8 
            470      4.61847e-8 
            480      1.16024e-7 
            490      2.80248e-7 
            500      6.52194e-7 
            506       1.2305e-6 
            512      2.09789e-6 
            520      3.87011e-6 
            530      8.12979e-6 
            540      1.64554e-5 
            550      3.26877e-5 
            560      6.30193e-5 
            570     0.000118585 
            580     0.000217146 
            590     0.000392346 
            600     0.000691435 
            610      0.00119488 
            620      0.00202644 
            630      0.00337604 
            640      0.00552898 
            650      0.00891132 
            658       0.0129091 
            665       0.0177126 
            675       0.0274991 
            685       0.0421084 
            695       0.0636375 
            705       0.0949507 
            716         0.14545 
            726        0.211739 
            735        0.294089 
            745        0.419413 
            755        0.592067 
            765        0.827649 
            775         1.14614 
            785         1.57288 
            795         2.13917 
            805         2.88675 
            815         3.86346 
            825         5.13049 
            835         6.76003 
            845         8.85072 
            855          11.503 
            865         14.8507 
            875         19.0469 
            885         24.2827 
            895         30.7686 
            905         38.7481 
            915         269.044 
            925         1800.82 
            935         3133.59 
            945          5813.2 
            955         9420.04 
            965         12711.4 
            975         8858.42 
            985         25721.2 
            995         74369.8 
           1005         59044.3 
           1015         27841.9 
           1025         14957.7 
           1035         34761.2 
           1045         96377.7 
           1055          347646 
           1065          538012 
           1075          818381 
           1085      1.01848e+6 
           1095      1.06682e+6 
           1105      6.68041e+6 
           1115       3.4151e+7 
           1125      4.07709e+7 
           1135      4.44744e+7 
           1145      3.88044e+7 
           1155      3.33289e+7 
           1165      2.72474e+7 
           1175      1.43993e+7 
           1185      1.00936e+7 
           1195          155749 
           1205          113375 
           1215         32866.9 
           1225          120616 
           1235          257349 
           1245      2.39258e+6 
           1255        1.524e+7 
           1265      2.28254e+7 
           1275      4.90371e+7 
           1285      7.25043e+7 
           1295       7.5502e+7 
           1305      4.89896e+7 
           1315      8.79894e+7 
           1325      9.97387e+7 
           1335      1.00884e+8 
           1345      1.14446e+8 
           1355       1.0789e+8 
           1365      9.93875e+7 
           1375      1.05804e+8 
           1385      1.05574e+8 
           1395      1.07421e+8 
           1405      1.14103e+8 
           1415       1.1272e+8 
           1425      1.17212e+8 
           1435      1.08389e+8 
           1442      1.18842e+8 
           1447      1.24931e+8 
           1455       1.2609e+8 
           1465       1.1931e+8 
           1475      1.14458e+8 
           1485      1.16516e+8 
           1495      1.21868e+8 
           1505      1.22733e+8 
           1512      1.18669e+8 
           1517      1.23634e+8 
           1525      1.16457e+8 
           1535      1.14137e+8 
           1545      1.24379e+8 
           1555      1.12298e+8 
           1565      1.00691e+8 
           1575      1.12099e+8 
           1585      1.19157e+8 
           1595      1.24402e+8 
           1605      1.18177e+8 
           1615      1.18132e+8 
           1625      1.09239e+8 
           1635      1.12038e+8 
           1645      1.15805e+8 
           1655      1.01953e+8 
           1665      1.14317e+8 
           1672      9.75734e+7 
           1677      1.08487e+8 
           1685      1.15242e+8 
           1695      1.08283e+8 
           1705      1.05612e+8 
           1715      1.07285e+8 
           1725      1.05647e+8 
           1735      1.09389e+8 
           1745      1.06624e+8 
           1755      1.11602e+8 
           1765      1.01393e+8 
           1775      1.09067e+8 
           1785       1.0762e+8 
           1795      1.12528e+8 
           1805      1.07722e+8 
           1815      1.06881e+8 
           1825      1.03392e+8 
           1835      1.02423e+8 
           1845      9.71001e+7 
           1855      1.00075e+8 
           1865       1.0003e+8 
           1875      1.02507e+8 
           1885      1.02725e+8 
           1895      1.00485e+8 
           1905      9.67095e+7 
           1915        9.871e+7 
           1925      9.95821e+7 
           1935      9.80031e+7 
           1945      1.01008e+8 
           1955       9.9879e+7 
           1967      1.00368e+8 
           1976      9.82883e+7 
           1984      9.68082e+7 
           1995      9.56584e+7 
           2005      9.44348e+7 
           2015      9.06884e+7 
           2025      9.13439e+7 
           2035      9.27354e+7 
           2045      9.31819e+7 
           2055      8.92798e+7 
           2065       8.9495e+7 
           2074      9.09533e+7 
           2078      9.27148e+7 
           2085      9.24573e+7 
           2095      9.00146e+7 
           2105      8.93909e+7 
           2115      8.86318e+7 
           2125      8.85087e+7 
           2135      8.15052e+7 
           2145      8.70788e+7 
           2155       8.6232e+7 
           2165      8.33796e+7 
           2175       8.2766e+7 
           2185      8.24363e+7 
           2195      8.56981e+7 
           2205      8.26367e+7 
           2215      7.79685e+7 
           2225      7.74823e+7 
           2235      8.27938e+7 
           2245      7.78197e+7 
           2255      7.63309e+7 
           2265      7.59741e+7 
           2275      7.96459e+7 
           2285      8.05665e+7 
           2295      7.70192e+7 
           2305      7.65084e+7 
           2315      7.52865e+7 
           2325       7.5609e+7 
           2335      7.36637e+7 
           2345      6.90633e+7 
           2355      7.37153e+7 
           2365      6.94965e+7 
           2375       7.1958e+7 
           2385      6.59045e+7 
           2395      7.01701e+7 
           2405      6.80116e+7 
           2415      6.88835e+7 
           2425      7.06741e+7 
           2435      6.79028e+7 
           2445      7.08019e+7 
           2455      6.89949e+7 
           2465       6.8399e+7 
           2475      6.62546e+7 
           2485       6.9212e+7 
           2495      6.74055e+7 
           2505      7.06988e+7 
           2513      6.74456e+7 
           2518      6.73563e+7 
           2525      6.40111e+7 
           2535      6.35306e+7 
           2545      6.39804e+7 
           2555      6.64756e+7 
           2565      6.61072e+7 
           2575      6.85151e+7 
           2585      6.87077e+7 
           2595      6.83694e+7 
           2605      6.62522e+7 
           2615      6.59172e+7 
           2625      6.68101e+7 
           2635      6.71504e+7 
           2645      7.09085e+7 
           2655      7.01669e+7 
           2665      6.73657e+7 
           2675      6.86004e+7 
           2685      6.89317e+7 
           2695      6.69531e+7 
           2705      6.72468e+7 
           2715      6.54235e+7 
           2725      6.54617e+7 
           2735      6.77992e+7 
           2745      6.24164e+7 
           2755      6.24108e+7 
           2765      6.40002e+7 
           2775       6.6025e+7 
           2785      6.51389e+7 
           2795      5.46478e+7 
           2805      5.91283e+7 
           2815      6.62396e+7 
           2825        6.588e+7 
           2835      6.44083e+7 
           2845      6.30301e+7 
           2855      6.18452e+7 
           2865       6.3374e+7 
           2875      6.25419e+7 
           2885      6.34579e+7 
           2895      6.30113e+7 
           2910      6.51973e+7 
           2930      6.32439e+7 
           2950      6.30473e+7 
           2970      6.30851e+7 
           2990      6.28676e+7 
           3010      6.32241e+7 
           3030      6.28765e+7 
           3050      6.21396e+7 
           3070      6.11727e+7 
           3090      6.14408e+7 
           3110      6.06492e+7 
           3130      6.01996e+7 
           3150      6.00869e+7 
           3170      5.96797e+7 
           3190      5.83525e+7 
           3210      5.87135e+7 
           3230      5.77287e+7 
           3250      5.78621e+7 
           3270      5.78857e+7 
           3290      5.78628e+7 
           3310      5.76849e+7 
           3330       5.6746e+7 
           3350      5.59564e+7 
           3370      5.59742e+7 
           3390      5.54763e+7 
           3410        5.578e+7 
           3430      5.54388e+7 
           3450      5.51081e+7 
           3470      5.46217e+7 
           3490      5.43439e+7 
           3510      5.41819e+7 
           3530       5.3996e+7 
           3550      5.37032e+7 
           3570      5.32125e+7 
           3590      5.28785e+7 
           3610      5.25891e+7 
           3630      5.22313e+7 
           3640      5.20215e+7 
           3650      5.25541e+7 
           3670      5.21199e+7 
           3690      4.99738e+7 
           3710      5.36515e+7 
           3730      5.78976e+7 
           3750      7.88366e+7 
           3770      8.51722e+7 
           3790      1.05756e+8 
           3810      1.22499e+8 
           3830      9.66035e+7 
           3850      1.32946e+8 
           3870      1.47704e+8 
           3890      8.32847e+7 
           3910      1.44779e+8 
           3930      1.48146e+8 
           3950      1.43144e+8 
           3970       7.9068e+7 
           3990      1.36459e+8 
           4010      1.44913e+8 
           4030      1.43309e+8 
           4050       1.4181e+8 
           4070      1.37386e+8 
           4090      1.11039e+8 
           4110      8.45094e+7 
           4130      1.29737e+8 
           4150      1.32372e+8 
           4170      1.30748e+8 
           4190      1.29537e+8 
           4210      1.27982e+8 
           4230       1.2581e+8 
           4250      1.24214e+8 
           4270      1.22303e+8 
           4290      1.20123e+8 
           4310      1.15553e+8 
           4330      8.98537e+7 
           4350      7.60686e+7 
           4370      1.11108e+8 
           4390      1.11613e+8 
           4410      1.11205e+8 
           4430      1.10209e+8 
           4450      1.08914e+8 
           4470      1.07299e+8 
           4490      1.05048e+8 
           4510      1.04561e+8 
           4530      1.03163e+8 
           4550       1.0133e+8 
           4570       1.0067e+8 
           4590      9.92871e+7 
           4610      9.85746e+7 
           4630      9.69129e+7 
           4650      9.60932e+7 
           4670       9.4847e+7 
           4690      9.35756e+7 
           4710      9.18197e+7 
           4730       9.1348e+7 
           4750      9.02247e+7 
           4770      8.89962e+7 
           4790      8.77143e+7 
           4810       8.6169e+7 
           4830      8.33785e+7 
           4850      6.69056e+7 
           4870       5.3934e+7 
           4890      7.91409e+7 
           4910      8.09118e+7 
           4930      8.01822e+7 
           4950      7.97001e+7 
           4970      7.89349e+7 
           4990       7.7963e+7 
           5010      7.66649e+7 
           5030      7.60713e+7 
           5050      7.48673e+7 
           5070      7.43657e+7 
           5090      7.35062e+7 
           5110      7.26347e+7 
           5130      7.17946e+7 
           5150      7.09398e+7 
           5170      6.95731e+7 
           5190      6.89386e+7 
           5210      6.85144e+7 
           5230      6.75631e+7 
           5250      6.69878e+7 
           5270      6.60028e+7 
           5290      6.54845e+7 
           5310      6.46033e+7 
           5330      6.38993e+7 
           5350      6.33184e+7 
           5370      6.25877e+7 
           5390      6.18894e+7 
           5410       6.1161e+7 
           5430      6.04992e+7 
           5450      5.98772e+7 
           5470      5.92034e+7 
           5490      5.85654e+7 
           5510      5.79251e+7 
           5530      5.72691e+7 
           5550      5.66834e+7 
           5570      5.60658e+7 
           5590      5.54591e+7 
           5610      5.48705e+7 
           5630      5.42841e+7 
           5650      5.36892e+7 
           5670      5.31142e+7 
           5690      5.25623e+7 
           5710      5.20041e+7 
           5730      5.14592e+7 
           5750      5.09093e+7 
           5770      5.03771e+7 
           5790      4.98442e+7 
           5810      4.93253e+7 
           5830      4.88113e+7 
           5850      4.83041e+7 
           5870      4.77383e+7 
           5890      4.72431e+7 
           5910      4.68192e+7 
           5930      4.63411e+7 
           5950      4.58396e+7 
           5970      4.53924e+7 
           5990      4.49008e+7 
           6010      4.44721e+7 
           6030      4.40232e+7 
           6050      4.35731e+7 
           6070      4.31412e+7 
           6090       4.2707e+7 
           6110      4.22785e+7 
           6130      4.18517e+7 
           6150       4.1312e+7 
           6170      4.10189e+7 
           6190      4.06215e+7 
           6210      4.02186e+7 
           6230      3.98201e+7 
           6250      3.93862e+7 
           6270      3.90453e+7 
           6290      3.86641e+7 
           6310      3.82803e+7 
           6330      3.79128e+7 
           6350      3.73679e+7 
           6370      3.70798e+7 
           6390      3.68213e+7 
           6410      3.64589e+7 
           6430      3.61167e+7 
           6450       3.5702e+7 
           6470      3.53664e+7 
           6490      3.49476e+7 
           6510      3.44745e+7 
           6530      3.36204e+7 
           6550      2.96018e+7 
           6570      2.38196e+7 
           6590      3.19119e+7 
           6610      3.27503e+7 
           6630      3.26765e+7 
           6650      3.24504e+7 
           6670       3.2218e+7 
           6690       3.1928e+7 
           6710        3.164e+7 
           6730       3.1335e+7 
           6750      3.10545e+7 
           6770      3.07759e+7 
           6790      3.04919e+7 
           6810      3.02156e+7 
           6830      2.99364e+7 
           6850      2.96655e+7 
           6870      2.93972e+7 
           6890      2.91308e+7 
           6910      2.88677e+7 
           6930      2.86064e+7 
           6950      2.83507e+7 
           6970      2.80975e+7 
           6990      2.78468e+7 
           7010      2.75792e+7 
           7030      2.73501e+7 
           7050      2.71065e+7 
           7070      2.68659e+7 
           7090      2.66321e+7 
           7110      2.63782e+7 
           7130      2.61622e+7 
           7150      2.59269e+7 
           7170      2.57077e+7 
           7190      2.54825e+7 
           7210      2.52609e+7 
           7230      2.50399e+7 
           7250      2.48181e+7 
           7270      2.46097e+7 
           7290      2.43948e+7 
           7310      2.41853e+7 
           7330      2.39792e+7 
           7350       2.3775e+7 
           7370      2.35726e+7 
           7390      2.33707e+7 
           7410      2.31692e+7 
           7430        2.296e+7 
           7450      2.27738e+7 
           7470      2.25744e+7 
           7490      2.23915e+7 
           7510       2.2205e+7 
           7530       2.2022e+7 
           7550      2.18394e+7 
           7570      2.16552e+7 
           7590      2.14758e+7 
           7610      2.12974e+7 
           7630      2.11205e+7 
           7650      2.09439e+7 
           7670      2.07708e+7 
           7690      2.05998e+7 
           7710      2.04291e+7 
           7730      2.02642e+7 
           7750      2.00983e+7 
           7770      1.96593e+7 
           7790      1.97714e+7 
           7810      1.96109e+7 
           7830      1.94507e+7 
           7850      1.92881e+7 
           7870      1.91026e+7 
           7890      1.89224e+7 
           7910      1.88286e+7 
           7930      1.86762e+7 
           7950      1.85043e+7 
           7970      1.83813e+7 
           7990       1.8159e+7 
           8010      1.80884e+7 
           8030      1.79452e+7 
           8050      1.78033e+7 
           8070      1.76613e+7 
           8090      1.75223e+7 
           8110      1.73833e+7 
           8130      1.72477e+7 
           8150      1.71127e+7 
           8170      1.69788e+7 
           8190      1.68308e+7 
           8210      1.67757e+7 
           8230      1.66426e+7 
           8250      1.65332e+7 
           8270      1.64484e+7 
           8290      1.63285e+7 
           8310      1.62124e+7 
           8330      1.60749e+7 
           8350       1.5958e+7 
           8370      1.58114e+7 
           8390      1.56526e+7 
           8410      1.54675e+7 
           8430      1.53528e+7 
           8450      1.51536e+7 
           8470      1.47418e+7 
           8490      1.52254e+7 
           8510      1.42441e+7 
           8530      1.52751e+7 
           8550      1.34567e+7 
           8570      1.54698e+7 
           8590      1.41419e+7 
           8610      1.37226e+7 
           8630      1.56859e+7 
           8650      1.49483e+7 
           8670       1.2148e+7 
           8690      1.53952e+7 
           8710      1.59771e+7 
           8730      1.52851e+7 
           8750      1.16956e+7 
           8770      1.44162e+7 
           8790      1.57773e+7 
           8810      1.58451e+7 
           8830      1.54719e+7 
           8850      1.36382e+7 
           8870      1.13291e+7 
           8890      1.46307e+7 
           8910      1.52223e+7 
           8930      1.52355e+7 
           8950      1.51816e+7 
           8970      1.49468e+7 
           8990      1.42516e+7 
           9010      1.11446e+7 
           9030      1.22715e+7 
           9050      1.41929e+7 
           9070      1.44006e+7 
           9090      1.43341e+7 
           9110      1.43343e+7 
           9130      1.42531e+7 
           9150      1.41355e+7 
