# Kurucz ODFNEW /NOVER (2003)
# teff = 24000 K (value for the effective temperature for the model. Temperatures are given in K)
# logg = 3.5 log(cm/s2) (value for Log(G) for the model.)
# meta = -1.5  (value for the Metallicity for the model.)
# lh = 1.25  (l/Hp where l is the  mixing length of the convective element and Hp is the pressure scale height)
# vtur = 2 km/s (Microturbulence velocity)
# alpha = 0  (Alpha)
#
# column 1: WAVELENGTH (ANGSTROM), Wavelength in Angstrom
# column 2: FLUX (ERG/CM2/S/A), Flux in erg/cm2/s/A
          147.2     5.68002e-15 
            151     2.85757e-14 
          155.2     1.55412e-13 
          158.8     6.17543e-13 
            162     1.99892e-12 
            166     8.13845e-12 
          170.3     3.41669e-11 
          173.4     9.19009e-11 
          176.8     2.61026e-10 
          180.2      7.1204e-10 
          181.7      1.09511e-9 
          186.1      3.71713e-9 
            191      1.35445e-8 
          193.9      2.81997e-8 
          198.4      8.41805e-8 
          201.8      1.86037e-7 
            205      3.82834e-7 
          210.5      1.25491e-6 
          216.2      4.02122e-6 
          219.8      8.12067e-6 
            223      1.48695e-5 
          226.8      2.97966e-5 
            230     0.000854229 
            234       0.0020293 
            240      0.00495968 
          246.5       0.0124609 
          252.4       0.0278453 
          256.8       0.0458145 
            260       0.0728715 
            264         0.11762 
          268.5        0.198512 
          273.5         0.34718 
          278.5        0.595969 
            284         1.05771 
            290         1.91657 
            296         3.38234 
            301          5.2912 
            308         9.27765 
            318          22.579 
            328         48.5304 
            338         100.896 
            348         199.053 
            357         358.849 
            366         625.408 
            375         1038.77 
            385         1798.49 
            395         3002.73 
            405         4878.82 
            414         7420.25 
            422         10499.2 
            430         14691.6 
            441         22968.2 
            451         33751.8 
            460         46717.3 
            470         66404.3 
            480         92414.8 
            490          127060 
            500          172195 
            506      1.24015e+6 
            512      3.73605e+6 
            520        4.438e+6 
            530      5.70512e+6 
            540      6.15092e+6 
            550      8.35679e+6 
            560      9.65489e+6 
            570      1.15573e+7 
            580      1.15796e+7 
            590      1.48127e+7 
            600      1.73923e+7 
            610      2.01992e+7 
            620      2.26518e+7 
            630      2.57446e+7 
            640      2.78151e+7 
            650      3.07153e+7 
            658      3.50405e+7 
            665      3.77611e+7 
            675      4.05359e+7 
            685       4.4224e+7 
            695      5.10508e+7 
            705      5.47981e+7 
            716       6.1293e+7 
            726      6.59832e+7 
            735      7.11862e+7 
            745      7.85191e+7 
            755      8.49983e+7 
            765      9.16356e+7 
            775      9.92715e+7 
            785        1.072e+8 
            795      1.13908e+8 
            805      1.21694e+8 
            815      1.28572e+8 
            825      1.38426e+8 
            835      1.41868e+8 
            845      1.53652e+8 
            855      1.62153e+8 
            865      1.72564e+8 
            875      1.84048e+8 
            885      1.95122e+8 
            895      2.05196e+8 
            905      2.12567e+8 
            915      3.65685e+8 
            925      3.74385e+9 
            935      9.22922e+9 
            945     1.81563e+10 
            955     2.10579e+10 
            965     2.49884e+10 
            975     1.02367e+10 
            985     2.44402e+10 
            995     2.31633e+10 
           1005     2.42567e+10 
           1015     2.33188e+10 
           1025      1.2505e+10 
           1035     2.07569e+10 
           1045     2.50088e+10 
           1055     2.39761e+10 
           1065     2.16709e+10 
           1075     2.29387e+10 
           1085     2.12141e+10 
           1095     2.27192e+10 
           1105     2.15777e+10 
           1115     2.14388e+10 
           1125     1.97901e+10 
           1135     2.10265e+10 
           1145     1.97243e+10 
           1155     2.02108e+10 
           1165     2.00294e+10 
           1175     1.64335e+10 
           1185     1.91186e+10 
           1195     1.80666e+10 
           1205     1.56579e+10 
           1215      8.90436e+9 
           1225     1.66862e+10 
           1235      1.7573e+10 
           1245     1.72632e+10 
           1255      1.6997e+10 
           1265     1.67077e+10 
           1275     1.67542e+10 
           1285     1.64203e+10 
           1295     1.47634e+10 
           1305     1.50026e+10 
           1315     1.55785e+10 
           1325     1.50235e+10 
           1335     1.44443e+10 
           1345     1.45371e+10 
           1355     1.45355e+10 
           1365     1.40176e+10 
           1375     1.37748e+10 
           1385     1.36111e+10 
           1395      1.2446e+10 
           1405     1.25825e+10 
           1415     1.27948e+10 
           1425     1.25058e+10 
           1435     1.24655e+10 
           1442     1.24623e+10 
           1447     1.22902e+10 
           1455     1.20828e+10 
           1465     1.17648e+10 
           1475     1.16017e+10 
           1485      1.1402e+10 
           1495     1.11908e+10 
           1505     1.07773e+10 
           1512     1.04154e+10 
           1517       1.048e+10 
           1525     1.03693e+10 
           1535      9.71632e+9 
           1545      9.70459e+9 
           1555      9.34647e+9 
           1565      9.55519e+9 
           1575      9.59886e+9 
           1585      9.46373e+9 
           1595      9.36468e+9 
           1605      9.02314e+9 
           1615      8.85859e+9 
           1625      8.82765e+9 
           1635      8.84049e+9 
           1645       8.5884e+9 
           1655      8.57433e+9 
           1665      8.49434e+9 
           1672      8.31259e+9 
           1677      8.47529e+9 
           1685      8.31234e+9 
           1695      8.09548e+9 
           1705      7.89324e+9 
           1715      7.66043e+9 
           1725      7.57681e+9 
           1735      7.54729e+9 
           1745      7.41081e+9 
           1755      7.38408e+9 
           1765      7.13606e+9 
           1775      7.01857e+9 
           1785      6.99832e+9 
           1795      6.95857e+9 
           1805      6.91371e+9 
           1815      6.65407e+9 
           1825       6.6327e+9 
           1835      6.52257e+9 
           1845      6.15191e+9 
           1855      6.06058e+9 
           1865      6.10039e+9 
           1875      6.13697e+9 
           1885      5.74272e+9 
           1895       5.4841e+9 
           1905      5.68973e+9 
           1915      5.47811e+9 
           1925      5.32924e+9 
           1935      5.44092e+9 
           1945      5.47115e+9 
           1955      5.13135e+9 
           1967      5.27555e+9 
           1976       5.3731e+9 
           1984      5.12667e+9 
           1995      4.98179e+9 
           2005      5.03324e+9 
           2015      5.03713e+9 
           2025      5.04529e+9 
           2035      4.83154e+9 
           2045      4.78251e+9 
           2055      4.62626e+9 
           2065       4.6048e+9 
           2074       4.7153e+9 
           2078      4.53209e+9 
           2085      4.55536e+9 
           2095      4.42064e+9 
           2105      4.46869e+9 
           2115       4.4326e+9 
           2125      4.43828e+9 
           2135      4.35986e+9 
           2145      4.24144e+9 
           2155      4.25059e+9 
           2165      4.20644e+9 
           2175      4.14005e+9 
           2185      4.09088e+9 
           2195      4.05658e+9 
           2205      4.00221e+9 
           2215       3.9541e+9 
           2225      3.88888e+9 
           2235      3.83153e+9 
           2245      3.80525e+9 
           2255      3.74223e+9 
           2265      3.71037e+9 
           2275      3.66399e+9 
           2285      3.62485e+9 
           2295      3.51508e+9 
           2305      3.52974e+9 
           2315      3.47351e+9 
           2325      3.43289e+9 
           2335      3.37702e+9 
           2345      3.34883e+9 
           2355      3.31596e+9 
           2365      3.27404e+9 
           2375       3.2299e+9 
           2385      3.18962e+9 
           2395       3.1503e+9 
           2405      3.11335e+9 
           2415       3.0705e+9 
           2425      3.04491e+9 
           2435      3.00095e+9 
           2445      2.96921e+9 
           2455      2.93856e+9 
           2465      2.90175e+9 
           2475      2.86648e+9 
           2485      2.83101e+9 
           2495      2.71873e+9 
           2505      2.76197e+9 
           2513       2.7023e+9 
           2518      2.71897e+9 
           2525      2.69889e+9 
           2535      2.66715e+9 
           2545      2.61732e+9 
           2555      2.60247e+9 
           2565      2.57414e+9 
           2575      2.54936e+9 
           2585      2.51947e+9 
           2595      2.49075e+9 
           2605      2.47738e+9 
           2615       2.4496e+9 
           2625      2.42178e+9 
           2635      2.38933e+9 
           2645      2.36462e+9 
           2655      2.33669e+9 
           2665      2.30449e+9 
           2675      2.27929e+9 
           2685      2.26731e+9 
           2695      2.22193e+9 
           2705      2.21367e+9 
           2715      2.19029e+9 
           2725      2.15136e+9 
           2735      2.14256e+9 
           2745      2.11323e+9 
           2755      2.09305e+9 
           2765       2.0567e+9 
           2775      2.05203e+9 
           2785      2.02848e+9 
           2795      1.98342e+9 
           2805      1.97643e+9 
           2815       1.9646e+9 
           2825       1.9266e+9 
           2835       1.9022e+9 
           2845      1.90165e+9 
           2855       1.8805e+9 
           2865      1.86175e+9 
           2875      1.84203e+9 
           2885      1.82294e+9 
           2895      1.80327e+9 
           2910       1.7741e+9 
           2930      1.73732e+9 
           2950      1.69081e+9 
           2970      1.66688e+9 
           2990      1.63197e+9 
           3010      1.59734e+9 
           3030      1.56766e+9 
           3050      1.53636e+9 
           3070      1.50573e+9 
           3090      1.47202e+9 
           3110      1.44622e+9 
           3130      1.41868e+9 
           3150      1.39093e+9 
           3170      1.36297e+9 
           3190      1.32694e+9 
           3210      1.31094e+9 
           3230      1.28543e+9 
           3250      1.26092e+9 
           3270      1.23818e+9 
           3290      1.21305e+9 
           3310      1.19217e+9 
           3330      1.16978e+9 
           3350      1.14598e+9 
           3370      1.12675e+9 
           3390      1.10608e+9 
           3410      1.08586e+9 
           3430      1.06068e+9 
           3450      1.03772e+9 
           3470      1.02204e+9 
           3490      1.00386e+9 
           3510       9.9068e+8 
           3530      9.74195e+8 
           3550      9.57301e+8 
           3570      9.44536e+8 
           3590      9.22729e+8 
           3610      9.07618e+8 
           3630      8.90926e+8 
           3640      8.88653e+8 
           3650      8.71603e+8 
           3670      8.60059e+8 
           3690      8.36457e+8 
           3710      8.15639e+8 
           3730      7.97411e+8 
           3750      8.59707e+8 
           3770      8.61689e+8 
           3790      8.90176e+8 
           3810      9.20744e+8 
           3830      8.18568e+8 
           3850      9.31575e+8 
           3870      9.23354e+8 
           3890       7.8079e+8 
           3910      9.05224e+8 
           3930      8.85253e+8 
           3950       8.7491e+8 
           3970      7.24613e+8 
           3990      8.42714e+8 
           4010      8.30861e+8 
           4030      7.93338e+8 
           4050      8.09362e+8 
           4070      7.91807e+8 
           4090      7.50774e+8 
           4110      6.68506e+8 
           4130      7.46484e+8 
           4150      7.37578e+8 
           4170      7.29892e+8 
           4190      7.19679e+8 
           4210        7.085e+8 
           4230      6.96742e+8 
           4250       6.8486e+8 
           4270      6.71145e+8 
           4290      6.62794e+8 
           4310       6.5035e+8 
           4330      6.07966e+8 
           4350      5.58489e+8 
           4370      6.19041e+8 
           4390      6.00336e+8 
           4410      6.01644e+8 
           4430      5.90945e+8 
           4450      5.83914e+8 
           4470      5.57112e+8 
           4490      5.65577e+8 
           4510      5.57516e+8 
           4530      5.48859e+8 
           4550      5.40168e+8 
           4570      5.31717e+8 
           4590      5.23857e+8 
           4610      5.15971e+8 
           4630      5.08201e+8 
           4650      4.98821e+8 
           4670      4.92951e+8 
           4690      4.85742e+8 
           4710      4.72981e+8 
           4730      4.71213e+8 
           4750      4.63847e+8 
           4770      4.58177e+8 
           4790      4.51436e+8 
           4810      4.44661e+8 
           4830      4.36998e+8 
           4850      4.14006e+8 
           4870      3.74174e+8 
           4890      4.17801e+8 
           4910      4.13513e+8 
           4930      4.00353e+8 
           4950      4.01845e+8 
           4970      3.96375e+8 
           4990      3.90753e+8 
           5010      3.80705e+8 
           5030      3.79843e+8 
           5050      3.72349e+8 
           5070      3.69344e+8 
           5090      3.64223e+8 
           5110      3.59199e+8 
           5130      3.54084e+8 
           5150      3.49237e+8 
           5170       3.4461e+8 
           5190      3.39931e+8 
           5210      3.35244e+8 
           5230      3.30771e+8 
           5250      3.26314e+8 
           5270      3.21916e+8 
           5290      3.17615e+8 
           5310       3.1337e+8 
           5330      3.09206e+8 
           5350      3.05082e+8 
           5370      3.01089e+8 
           5390      2.97108e+8 
           5410      2.93204e+8 
           5430      2.89361e+8 
           5450      2.85593e+8 
           5470      2.81884e+8 
           5490      2.78234e+8 
           5510      2.74654e+8 
           5530      2.71107e+8 
           5550      2.67652e+8 
           5570      2.64203e+8 
           5590      2.60857e+8 
           5610      2.57528e+8 
           5630      2.54276e+8 
           5650      2.51003e+8 
           5670      2.47771e+8 
           5690      2.44555e+8 
           5710        2.417e+8 
           5730      2.38697e+8 
           5750      2.35672e+8 
           5770       2.3283e+8 
           5790      2.29954e+8 
           5810      2.27124e+8 
           5830      2.24316e+8 
           5850      2.21585e+8 
           5870      2.13364e+8 
           5890      2.15968e+8 
           5910      2.13592e+8 
           5930      2.10976e+8 
           5950      2.08421e+8 
           5970       2.0598e+8 
           5990      2.03473e+8 
           6010      2.01068e+8 
           6030      1.98659e+8 
           6050      1.96318e+8 
           6070      1.94004e+8 
           6090      1.91716e+8 
           6110      1.89454e+8 
           6130      1.87237e+8 
           6150      1.85006e+8 
           6170      1.82878e+8 
           6190      1.80764e+8 
           6210      1.78664e+8 
           6230      1.76606e+8 
           6250      1.74561e+8 
           6270      1.72558e+8 
           6290      1.70587e+8 
           6310      1.68627e+8 
           6330      1.66717e+8 
           6350      1.64781e+8 
           6370       1.6294e+8 
           6390       1.6111e+8 
           6410       1.5929e+8 
           6430      1.57508e+8 
           6450      1.55745e+8 
           6470      1.53973e+8 
           6490      1.52266e+8 
           6510      1.50594e+8 
           6530      1.48674e+8 
           6550      1.44001e+8 
           6570      1.29519e+8 
           6590      1.43065e+8 
           6610       1.4245e+8 
           6630      1.40932e+8 
           6650      1.39472e+8 
           6670      1.36833e+8 
           6690      1.35377e+8 
           6710      1.34998e+8 
           6730      1.33531e+8 
           6750      1.32113e+8 
           6770        1.307e+8 
           6790      1.29245e+8 
           6810      1.27918e+8 
           6830      1.26557e+8 
           6850      1.25217e+8 
           6870      1.23898e+8 
           6890      1.22584e+8 
           6910        1.213e+8 
           6930       1.2002e+8 
           6950      1.18769e+8 
           6970       1.1753e+8 
           6990      1.16296e+8 
           7010      1.15104e+8 
           7030      1.13909e+8 
           7050      1.12733e+8 
           7070       1.0988e+8 
           7090       1.1043e+8 
           7110      1.09295e+8 
           7130      1.08179e+8 
           7150      1.07074e+8 
           7170      1.05964e+8 
           7190      1.04916e+8 
           7210      1.03857e+8 
           7230       1.0249e+8 
           7250      1.01761e+8 
           7270      1.00746e+8 
           7290        9.896e+7 
           7310      9.87295e+7 
           7330      9.77637e+7 
           7350      9.67861e+7 
           7370      9.58315e+7 
           7390      9.48789e+7 
           7410      9.39489e+7 
           7430      9.30207e+7 
           7450      9.21215e+7 
           7470      9.12103e+7 
           7490      9.03276e+7 
           7510       8.9413e+7 
           7530      8.85798e+7 
           7550      8.77212e+7 
           7570      8.68705e+7 
           7590      8.60339e+7 
           7610      8.51985e+7 
           7630      8.43836e+7 
           7650       8.3576e+7 
           7670      8.27821e+7 
           7690       8.1989e+7 
           7710      8.12029e+7 
           7730      8.04365e+7 
           7750      7.96706e+7 
           7770      7.88991e+7 
           7790      7.81841e+7 
           7810      7.73889e+7 
           7830      7.67237e+7 
           7850      7.60826e+7 
           7870      7.53679e+7 
           7890       7.4605e+7 
           7910      7.39754e+7 
           7930      7.32013e+7 
           7950      7.24401e+7 
           7970       7.1727e+7 
           7990       7.1091e+7 
           8010      7.04135e+7 
           8030      6.98061e+7 
           8050      6.92097e+7 
           8070      6.86126e+7 
           8090      6.78593e+7 
           8110      6.73074e+7 
           8130      6.67999e+7 
           8150      6.60641e+7 
           8170      6.56169e+7 
           8190      6.49261e+7 
           8210      6.41239e+7 
           8230      6.37459e+7 
           8250      6.31992e+7 
           8270      6.22935e+7 
           8290      6.19933e+7 
           8310      6.14661e+7 
           8330      6.09053e+7 
           8350      6.00735e+7 
           8370        5.969e+7 
           8390      5.92452e+7 
           8410      5.86974e+7 
           8430      5.80959e+7 
           8450      5.72725e+7 
           8470      5.68553e+7 
           8490        5.664e+7 
           8510      5.56146e+7 
           8530      5.58615e+7 
           8550      5.38689e+7 
           8570      5.57055e+7 
