# Kurucz ODFNEW /NOVER (2003)
# teff = 22000 K (value for the effective temperature for the model. Temperatures are given in K)
# logg = 4.5 log(cm/s2) (value for Log(G) for the model.)
# meta = -0.5  (value for the Metallicity for the model.)
# lh = 1.25  (l/Hp where l is the  mixing length of the convective element and Hp is the pressure scale height)
# vtur = 2 km/s (Microturbulence velocity)
# alpha = 0.4  (Alpha)
#
# column 1: WAVELENGTH (ANGSTROM), Wavelength in Angstrom
# column 2: FLUX (ERG/CM2/S/A), Flux in erg/cm2/s/A
          147.2     3.56164e-17 
            151     1.81087e-16 
          155.2     9.97979e-16 
          158.8     4.01776e-15 
            162     1.31865e-14 
            166     5.47868e-14 
          170.3     2.35543e-13 
          173.4     6.46381e-13 
          176.8     1.87893e-12 
          180.2     5.25671e-12 
          181.7     8.17876e-12 
          186.1     2.88117e-11 
            191     1.09804e-10 
          193.9     2.35042e-10 
          198.4     7.34536e-10 
          201.8      1.68386e-9 
            205       3.5907e-9 
          210.5      1.25372e-8 
          216.2      4.29839e-8 
          219.8      9.07044e-8 
            223      1.72778e-7 
          226.8      3.63091e-7 
            230      4.59375e-6 
            234      1.11328e-5 
            240      3.05013e-5 
          246.5      8.54988e-5 
          252.4     0.000209867 
          256.8     0.000387936 
            260     0.000622439 
            264      0.00107334 
          268.5      0.00193992 
          273.5      0.00365099 
          278.5      0.00674946 
            284       0.0129979 
            290       0.0255665 
            296       0.0488197 
            301       0.0821602 
            308        0.163163 
            318        0.428535 
            328         1.02443 
            338         2.37796 
            348         5.18818 
            357         10.4932 
            366         19.9246 
            375         35.7642 
            385         67.0857 
            395         120.983 
            405         211.786 
            414          344.12 
            422          513.38 
            430         758.471 
            441          1271.2 
            451         1990.51 
            460         2904.52 
            470         4361.98 
            480         6411.59 
            490         9292.24 
            500         13256.4 
            506          109439 
            512          434883 
            520          546286 
            530          752037 
            540          846414 
            550      1.21662e+6 
            560      1.46235e+6 
            570      1.84167e+6 
            580      1.88981e+6 
            590      2.53895e+6 
            600      3.09891e+6 
            610      3.77317e+6 
            620      4.33621e+6 
            630      5.06368e+6 
            640      5.53045e+6 
            650      5.91068e+6 
            658      7.34205e+6 
            665      8.08713e+6 
            675      8.95138e+6 
            685      1.00183e+7 
            695      1.19104e+7 
            705       1.3106e+7 
            716      1.49977e+7 
            726      1.64222e+7 
            735      1.80413e+7 
            745      2.04036e+7 
            755      2.25929e+7 
            765      2.48539e+7 
            775      2.74745e+7 
            785       3.0161e+7 
            795      3.24135e+7 
            805      3.52031e+7 
            815      3.78644e+7 
            825      4.14675e+7 
            835      4.28441e+7 
            845      4.71054e+7 
            855      5.04841e+7 
            865      5.45691e+7 
            875      5.88497e+7 
            885      6.36889e+7 
            895      6.78985e+7 
            905      7.01229e+7 
            915      1.01073e+8 
            925      4.35362e+8 
            935       1.3071e+9 
            945      4.83786e+9 
            955      9.14866e+9 
            965     1.27139e+10 
            975       2.5445e+9 
            985     1.62787e+10 
            995     1.55091e+10 
           1005     1.73191e+10 
           1015     1.47178e+10 
           1025      2.92598e+9 
           1035     1.06591e+10 
           1045     1.93922e+10 
           1055     1.85209e+10 
           1065     1.52216e+10 
           1075     1.76142e+10 
           1085     1.59908e+10 
           1095     1.76512e+10 
           1105     1.53984e+10 
           1115     1.46531e+10 
           1125     1.33323e+10 
           1135     1.60366e+10 
           1145     1.38982e+10 
           1155     1.48952e+10 
           1165     1.50889e+10 
           1175     1.13301e+10 
           1185      1.4649e+10 
           1195     1.15357e+10 
           1205      6.57475e+9 
           1215      2.45858e+9 
           1225      8.28987e+9 
           1235     1.25537e+10 
           1245     1.30606e+10 
           1255     1.26747e+10 
           1265     1.22126e+10 
           1275     1.27174e+10 
           1285     1.25821e+10 
           1295      8.72103e+9 
           1305      8.51002e+9 
           1315      1.1883e+10 
           1325     1.12204e+10 
           1335     1.05695e+10 
           1345     1.08575e+10 
           1355      1.0799e+10 
           1365      9.95008e+9 
           1375      9.82182e+9 
           1385      9.87434e+9 
           1395      8.19018e+9 
           1405      8.63585e+9 
           1415      9.00756e+9 
           1425      8.96637e+9 
           1435      8.99551e+9 
           1442      9.22726e+9 
           1447      9.04989e+9 
           1455      8.83693e+9 
           1465      8.39618e+9 
           1475      8.28359e+9 
           1485      8.01489e+9 
           1495      7.96685e+9 
           1505      7.36402e+9 
           1512      6.87167e+9 
           1517      7.08804e+9 
           1525      7.17861e+9 
           1535      6.50931e+9 
           1545      6.61708e+9 
           1555      6.27736e+9 
           1565      6.43996e+9 
           1575      6.68314e+9 
           1585      6.56428e+9 
           1595      6.59803e+9 
           1605      6.46474e+9 
           1615      6.36514e+9 
           1625      6.23696e+9 
           1635      6.37793e+9 
           1645      6.28517e+9 
           1655       6.0642e+9 
           1665      6.24217e+9 
           1672      6.02169e+9 
           1677      6.19347e+9 
           1685      6.12724e+9 
           1695       5.8864e+9 
           1705      5.63871e+9 
           1715      5.39267e+9 
           1725      5.31564e+9 
           1735      5.42074e+9 
           1745      5.29025e+9 
           1755      5.33753e+9 
           1765       5.0547e+9 
           1775      5.00317e+9 
           1785      4.97009e+9 
           1795      5.08476e+9 
           1805      5.04395e+9 
           1815      4.70582e+9 
           1825      4.81512e+9 
           1835      4.65023e+9 
           1845      4.31686e+9 
           1855      4.25829e+9 
           1865      4.29247e+9 
           1875      4.43722e+9 
           1885      4.07188e+9 
           1895      3.83378e+9 
           1905      4.06365e+9 
           1915      3.87606e+9 
           1925      3.75049e+9 
           1935      3.86446e+9 
           1945      3.90041e+9 
           1955      3.63115e+9 
           1967      3.82699e+9 
           1976      3.94967e+9 
           1984      3.69326e+9 
           1995       3.6074e+9 
           2005      3.66831e+9 
           2015       3.6087e+9 
           2025      3.71233e+9 
           2035      3.47771e+9 
           2045      3.48081e+9 
           2055      3.36325e+9 
           2065      3.41115e+9 
           2074       3.4719e+9 
           2078      3.30195e+9 
           2085      3.36205e+9 
           2095      3.21081e+9 
           2105      3.26888e+9 
           2115      3.24503e+9 
           2125      3.28314e+9 
           2135      3.20312e+9 
           2145      3.09029e+9 
           2155      3.15351e+9 
           2165      3.11038e+9 
           2175      3.06361e+9 
           2185      3.00896e+9 
           2195      3.01132e+9 
           2205      2.96098e+9 
           2215      2.91626e+9 
           2225      2.84262e+9 
           2235      2.83405e+9 
           2245      2.82194e+9 
           2255      2.74778e+9 
           2265      2.76124e+9 
           2275       2.7237e+9 
           2285      2.71355e+9 
           2295      2.61113e+9 
           2305      2.62305e+9 
           2315      2.56607e+9 
           2325      2.53937e+9 
           2335      2.45638e+9 
           2345      2.42739e+9 
           2355      2.43752e+9 
           2365      2.38455e+9 
           2375      2.36752e+9 
           2385      2.32989e+9 
           2395      2.32913e+9 
           2405      2.28075e+9 
           2415       2.2537e+9 
           2425      2.26084e+9 
           2435      2.20209e+9 
           2445       2.1947e+9 
           2455      2.18717e+9 
           2465      2.14379e+9 
           2475      2.12146e+9 
           2485       2.1065e+9 
           2495      2.02077e+9 
           2505       2.0575e+9 
           2513      1.98507e+9 
           2518      2.02348e+9 
           2525      1.98917e+9 
           2535      1.95856e+9 
           2545      1.91319e+9 
           2555      1.93887e+9 
           2565      1.90506e+9 
           2575      1.91068e+9 
           2585      1.89458e+9 
           2595      1.87497e+9 
           2605      1.86027e+9 
           2615      1.84172e+9 
           2625       1.8223e+9 
           2635      1.80214e+9 
           2645      1.80367e+9 
           2655      1.78413e+9 
           2665      1.74111e+9 
           2675      1.73775e+9 
           2685      1.72969e+9 
           2695      1.68794e+9 
           2705      1.68506e+9 
           2715      1.66418e+9 
           2725      1.63286e+9 
           2735      1.63621e+9 
           2745      1.58446e+9 
           2755      1.57864e+9 
           2765      1.56428e+9 
           2775      1.57269e+9 
           2785      1.55025e+9 
           2795      1.48917e+9 
           2805      1.50835e+9 
           2815       1.5092e+9 
           2825      1.47744e+9 
           2835       1.4405e+9 
           2845      1.45325e+9 
           2855       1.4417e+9 
           2865      1.43381e+9 
           2875      1.41651e+9 
           2885      1.40368e+9 
           2895      1.38928e+9 
           2910      1.36641e+9 
           2930      1.33448e+9 
           2950      1.30146e+9 
           2970      1.28797e+9 
           2990      1.25794e+9 
           3010      1.23504e+9 
           3030      1.21572e+9 
           3050      1.19168e+9 
           3070      1.16921e+9 
           3090      1.14071e+9 
           3110      1.12301e+9 
           3130      1.10355e+9 
           3150      1.08233e+9 
           3170      1.06096e+9 
           3190      1.03122e+9 
           3210      1.02188e+9 
           3230      1.00288e+9 
           3250       9.8515e+8 
           3270      9.68168e+8 
           3290      9.49228e+8 
           3310      9.33941e+8 
           3330      9.16709e+8 
           3350      8.98545e+8 
           3370      8.83997e+8 
           3390      8.68745e+8 
           3410      8.53563e+8 
           3430      8.34928e+8 
           3450      8.17426e+8 
           3470      8.05308e+8 
           3490      7.91249e+8 
           3510      7.79383e+8 
           3530      7.67856e+8 
           3550      7.55013e+8 
           3570      7.46371e+8 
           3590      7.27847e+8 
           3610      7.17521e+8 
           3630      7.04547e+8 
           3640      7.03866e+8 
           3650      6.92662e+8 
           3670      6.84574e+8 
           3690      6.72054e+8 
           3710      6.48652e+8 
           3730      6.20973e+8 
           3750      6.43916e+8 
           3770      6.43464e+8 
           3790      6.88305e+8 
           3810      7.24023e+8 
           3830      6.23024e+8 
           3850      7.52798e+8 
           3870      7.70468e+8 
           3890      5.85829e+8 
           3910      7.65085e+8 
           3930      7.52756e+8 
           3950      7.41217e+8 
           3970      5.46489e+8 
           3990      7.07665e+8 
           4010      7.15079e+8 
           4030      6.64436e+8 
           4050      7.01184e+8 
           4070      6.78163e+8 
           4090      6.07745e+8 
           4110      5.23207e+8 
           4130      6.34019e+8 
           4150      6.34747e+8 
           4170      6.32248e+8 
           4190      6.25733e+8 
           4210      6.17655e+8 
           4230      6.06628e+8 
           4250        5.948e+8 
           4270      5.78435e+8 
           4290      5.73177e+8 
           4310      5.58094e+8 
           4330      4.88933e+8 
           4350      4.42658e+8 
           4370      5.29085e+8 
           4390      5.11061e+8 
           4410      5.21158e+8 
           4430      5.12527e+8 
           4450      5.07322e+8 
           4470      4.71155e+8 
           4490      4.87896e+8 
           4510      4.85597e+8 
           4530      4.76986e+8 
           4550      4.69599e+8 
           4570       4.6245e+8 
           4590      4.55692e+8 
           4610      4.48361e+8 
           4630      4.41368e+8 
           4650      4.32614e+8 
           4670      4.28433e+8 
           4690      4.23382e+8 
           4710      4.07975e+8 
           4730      4.08337e+8 
           4750      4.01967e+8 
           4770      3.99299e+8 
           4790      3.92655e+8 
           4810      3.84267e+8 
           4830      3.75326e+8 
           4850      3.37051e+8 
           4870      2.98214e+8 
           4890      3.57964e+8 
           4910      3.57335e+8 
           4930      3.42646e+8 
           4950      3.49431e+8 
           4970      3.45358e+8 
           4990       3.4019e+8 
           5010      3.28339e+8 
           5030      3.30215e+8 
           5050      3.21104e+8 
           5070      3.21698e+8 
           5090      3.17066e+8 
           5110      3.12367e+8 
           5130      3.07617e+8 
           5150      3.03415e+8 
           5170      3.00057e+8 
           5190      2.95931e+8 
           5210      2.90138e+8 
           5230      2.88116e+8 
           5250      2.84244e+8 
           5270      2.80273e+8 
           5290      2.76784e+8 
           5310       2.7302e+8 
           5330      2.69091e+8 
           5350       2.6503e+8 
           5370      2.62406e+8 
           5390       2.5892e+8 
           5410      2.55413e+8 
           5430      2.51465e+8 
           5450      2.48468e+8 
           5470      2.45182e+8 
           5490      2.42473e+8 
           5510      2.39265e+8 
           5530      2.36133e+8 
           5550       2.3326e+8 
           5570      2.30167e+8 
           5590       2.2739e+8 
           5610      2.24191e+8 
           5630      2.21745e+8 
           5650      2.17724e+8 
           5670      2.15147e+8 
           5690      2.12858e+8 
           5710      2.10665e+8 
           5730      2.08152e+8 
           5750      2.05397e+8 
           5770      2.03104e+8 
           5790      2.00591e+8 
           5810      1.98051e+8 
           5830      1.95609e+8 
           5850      1.93272e+8 
           5870      1.84161e+8 
           5890      1.87539e+8 
           5910      1.86239e+8 
           5930      1.84032e+8 
           5950      1.81488e+8 
           5970      1.79735e+8 
           5990       1.7734e+8 
           6010      1.75504e+8 
           6030      1.73389e+8 
           6050      1.71369e+8 
           6070      1.69352e+8 
           6090      1.67297e+8 
           6110      1.65406e+8 
           6130      1.63497e+8 
           6150       1.6119e+8 
           6170      1.59632e+8 
           6190      1.57865e+8 
           6210      1.56039e+8 
           6230      1.54243e+8 
           6250      1.52293e+8 
           6270      1.50681e+8 
           6290      1.48962e+8 
           6310      1.47158e+8 
           6330      1.45628e+8 
           6350      1.43367e+8 
           6370      1.41995e+8 
           6390      1.40701e+8 
           6410      1.39082e+8 
           6430      1.37671e+8 
           6450      1.36067e+8 
           6470      1.34471e+8 
           6490      1.33018e+8 
           6510      1.31179e+8 
           6530      1.28963e+8 
           6550      1.21187e+8 
           6570      1.06521e+8 
           6590      1.23104e+8 
           6610      1.23972e+8 
           6630       1.2308e+8 
           6650      1.21932e+8 
           6670      1.19169e+8 
           6690      1.17961e+8 
           6710      1.18071e+8 
           6730      1.16779e+8 
           6750      1.15584e+8 
           6770       1.1436e+8 
           6790      1.12886e+8 
           6810      1.11907e+8 
           6830      1.10696e+8 
           6850      1.09593e+8 
           6870      1.08437e+8 
           6890      1.07292e+8 
           6910      1.06167e+8 
           6930      1.05014e+8 
           6950      1.03981e+8 
           6970      1.02912e+8 
           6990      1.01831e+8 
           7010      1.00768e+8 
           7030      9.97301e+7 
           7050      9.87027e+7 
           7070      9.60573e+7 
           7090      9.67303e+7 
           7110      9.57248e+7 
           7130      9.47587e+7 
           7150      9.37724e+7 
           7170      9.28397e+7 
           7190      9.19304e+7 
           7210       9.1008e+7 
           7230      8.93737e+7 
           7250      8.91465e+7 
           7270      8.83002e+7 
           7290      8.66893e+7 
           7310      8.65399e+7 
           7330      8.56967e+7 
           7350      8.48613e+7 
           7370      8.40199e+7 
           7390      8.32001e+7 
           7410      8.23811e+7 
           7430      8.15287e+7 
           7450      8.07726e+7 
           7470      7.99356e+7 
           7490      7.92003e+7 
           7510       7.8425e+7 
           7530      7.76901e+7 
           7550      7.69552e+7 
           7570      7.62204e+7 
           7590      7.54792e+7 
           7610      7.47642e+7 
           7630      7.40557e+7 
           7650      7.33535e+7 
           7670      7.26577e+7 
           7690      7.19681e+7 
           7710       7.1291e+7 
           7730      7.06073e+7 
           7750      6.99549e+7 
           7770      6.89088e+7 
           7790      6.86485e+7 
           7810        6.797e+7 
           7830      6.73775e+7 
           7850      6.67044e+7 
           7870      6.60921e+7 
           7890      6.53702e+7 
           7910      6.49738e+7 
           7930      6.43829e+7 
           7950      6.36659e+7 
           7970      6.30918e+7 
           7990      6.23692e+7 
           8010      6.19172e+7 
           8030      6.13462e+7 
           8050      6.07802e+7 
           8070      6.02826e+7 
           8090      5.96395e+7 
           8110      5.91682e+7 
           8130      5.86722e+7 
           8150      5.81124e+7 
           8170      5.76702e+7 
           8190      5.70575e+7 
           8210       5.6411e+7 
           8230      5.59869e+7 
           8250      5.56162e+7 
           8270      5.48518e+7 
           8290      5.46104e+7 
           8310      5.41444e+7 
           8330      5.36632e+7 
           8350      5.29401e+7 
           8370      5.26278e+7 
           8390      5.22739e+7 
           8410      5.18141e+7 
           8430      5.13125e+7 
           8450      5.03961e+7 
           8470      5.03889e+7 
           8490      4.98356e+7 
           8510      4.93852e+7 
           8530      4.89949e+7 
           8550      4.80775e+7 
           8570      4.86197e+7 
