# Kurucz ODFNEW /NOVER (2003)
# teff = 8000 K (value for the effective temperature for the model. Temperatures are given in K)
# logg = 3.5 log(cm/s2) (value for Log(G) for the model.)
# meta = 0.2  (value for the Metallicity for the model.)
# lh = 1.25  (l/Hp where l is the  mixing length of the convective element and Hp is the pressure scale height)
# vtur = 2 km/s (Microturbulence velocity)
# alpha = 0  (Alpha)
#
# column 1: WAVELENGTH (ANGSTROM), Wavelength in Angstrom
# column 2: FLUX (ERG/CM2/S/A), Flux in erg/cm2/s/A
            338     3.20387e-24 
            348      1.2394e-22 
            357     7.74747e-23 
            366     4.75651e-22 
            375     2.66067e-21 
            385     1.63125e-20 
            395     9.06662e-20 
            405     4.60734e-19 
            414     1.85353e-18 
            422     6.05508e-18 
            430     1.88723e-17 
            441      8.3861e-17 
            451     3.03975e-16 
            460     9.20423e-16 
            470     2.98877e-15 
            480     9.20436e-15 
            490     2.69893e-14 
            500     7.54815e-14 
            506     1.81408e-13 
            512     3.65615e-13 
            520     7.73326e-13 
            530     1.91919e-12 
            540     4.50848e-12 
            550     1.04027e-11 
            560     2.30771e-11 
            570     4.96172e-11 
            580      1.0237e-10 
            590      2.1041e-10 
            600     4.16265e-10 
            610     8.04739e-10 
            620      1.51731e-9 
            630      2.79818e-9 
            640      5.05136e-9 
            650      8.94521e-9 
            658      1.39288e-8 
            665      2.02819e-8 
            675      3.42874e-8 
            685      5.69656e-8 
            695      9.31012e-8 
            705      1.48918e-7 
            716      2.48073e-7 
            726      3.86839e-7 
            735      5.70242e-7 
            745      8.66235e-7 
            755      1.30032e-6 
            765      1.92901e-6 
            775      2.82849e-6 
            785      4.10607e-6 
            795      5.82429e-6 
            805      8.31447e-6 
            815      1.17421e-5 
            825      1.63566e-5 
            835      2.25722e-5 
            845      3.08833e-5 
            855      4.18908e-5 
            865      5.63565e-5 
            875      7.48858e-5 
            885      9.95858e-5 
            895     0.000130953 
            905     0.000169873 
            915       0.0758701 
            925        0.224296 
            935        0.292916 
            945        0.388042 
            955        0.531579 
            965        0.690935 
            975          0.8646 
            985         1.10605 
            995         1.35494 
           1005         1.79852 
           1015         2.25941 
           1025         2.71435 
           1035         3.46497 
           1045         4.30676 
           1055         5.30997 
           1065         6.40878 
           1075         7.92236 
           1085         9.68589 
           1095         11.5574 
           1105         32.0136 
           1115         98.5259 
           1125         142.143 
           1135         197.921 
           1145         247.637 
           1155         272.935 
           1165         369.561 
           1175         435.771 
           1185         461.017 
           1195         269.009 
           1205          281.66 
           1215         75.6075 
           1225         327.342 
           1235         710.716 
           1245         1620.69 
           1255         3955.48 
           1265         3665.53 
           1275         5915.04 
           1285         8255.43 
           1295         9958.13 
           1305         7911.64 
           1315         12212.8 
           1325         14396.2 
           1335         15586.6 
           1345         19290.2 
           1355         19647.3 
           1365         21367.7 
           1375           23218 
           1385         25099.3 
           1395           28719 
           1405         31958.6 
           1415         32547.1 
           1425         36592.7 
           1435         36768.7 
           1442           42482 
           1447         45542.7 
           1455         50739.5 
           1465         51081.3 
           1475         55907.9 
           1485         61785.9 
           1495         69428.7 
           1505         75987.1 
           1512         76379.3 
           1517         82904.4 
           1525         94391.9 
           1535          164204 
           1545          430812 
           1555          415972 
           1565          389308 
           1575          713753 
           1585      1.00849e+6 
           1595      1.25624e+6 
           1605      1.20418e+6 
           1615      1.25317e+6 
           1625        1.115e+6 
           1635      1.51468e+6 
           1645      2.80693e+6 
           1655      1.31835e+6 
           1665      2.70878e+6 
           1672      1.07052e+6 
           1677      4.10791e+6 
           1685      6.31473e+6 
           1695      5.30655e+6 
           1705      6.63087e+6 
           1715        1.028e+7 
           1725      1.08321e+7 
           1735      1.39555e+7 
           1745      1.26305e+7 
           1755      1.64341e+7 
           1765      1.05833e+7 
           1775      1.51343e+7 
           1785      1.39709e+7 
           1795      1.95262e+7 
           1805      1.54842e+7 
           1815      1.72787e+7 
           1825      1.46614e+7 
           1835      1.33172e+7 
           1845      1.16637e+7 
           1855      1.40399e+7 
           1865      1.64795e+7 
           1875      1.52712e+7 
           1885      1.58751e+7 
           1895       1.7611e+7 
           1905      1.56722e+7 
           1915      1.69153e+7 
           1925      1.59979e+7 
           1935      1.03091e+7 
           1945      1.80397e+7 
           1955      1.84312e+7 
           1967      2.07201e+7 
           1976      2.01256e+7 
           1984      1.89903e+7 
           1995      1.86631e+7 
           2005      1.71448e+7 
           2015      1.60639e+7 
           2025      1.51009e+7 
           2035       1.7792e+7 
           2045      1.97651e+7 
           2055      1.80683e+7 
           2065       1.7141e+7 
           2074      2.10099e+7 
           2078      2.29157e+7 
           2085      2.16372e+7 
           2095      1.98741e+7 
           2105      1.81298e+7 
           2115      1.88507e+7 
           2125      1.95338e+7 
           2135      1.48717e+7 
           2145      1.85015e+7 
           2155      1.88039e+7 
           2165      1.68536e+7 
           2175      1.68455e+7 
           2185      1.79707e+7 
           2195      1.97238e+7 
           2205      1.85396e+7 
           2215      1.55492e+7 
           2225      1.50749e+7 
           2235       1.8905e+7 
           2245       1.6869e+7 
           2255      1.46624e+7 
           2265      1.49239e+7 
           2275      1.67495e+7 
           2285      1.79099e+7 
           2295      1.58137e+7 
           2305      1.67326e+7 
           2315      1.56288e+7 
           2325      1.49859e+7 
           2335       1.1689e+7 
           2345      9.05407e+6 
           2355      1.43307e+7 
           2365      9.33063e+6 
           2375      1.19799e+7 
           2385      7.57668e+6 
           2395      9.67302e+6 
           2405      9.33092e+6 
           2415      1.04385e+7 
           2425       1.4516e+7 
           2435      1.39516e+7 
           2445      1.53962e+7 
           2455      1.53198e+7 
           2465      1.49657e+7 
           2475      1.36851e+7 
           2485      1.39376e+7 
           2495      1.31198e+7 
           2505      1.72706e+7 
           2513      1.31902e+7 
           2518      1.37214e+7 
           2525      1.15856e+7 
           2535      1.06226e+7 
           2545      1.05678e+7 
           2555      1.30764e+7 
           2565      1.20075e+7 
           2575      1.42456e+7 
           2585       1.3989e+7 
           2595      1.31172e+7 
           2605      1.18625e+7 
           2615      1.09792e+7 
           2625       1.4216e+7 
           2635      1.56726e+7 
           2645      2.04976e+7 
           2655      2.13274e+7 
           2665      1.68329e+7 
           2675       1.8928e+7 
           2685      1.85103e+7 
           2695      1.70101e+7 
           2705      1.83591e+7 
           2715      1.61502e+7 
           2725      1.64677e+7 
           2735      1.82421e+7 
           2745      1.17903e+7 
           2755      1.34039e+7 
           2765      1.48657e+7 
           2775      1.78658e+7 
           2785      1.51426e+7 
           2795      6.23926e+6 
           2805      8.24177e+6 
           2815      1.81009e+7 
           2825      2.09635e+7 
           2835      1.96187e+7 
           2845       1.8552e+7 
           2855      1.65209e+7 
           2865      1.99288e+7 
           2875      1.92895e+7 
           2885      1.96185e+7 
           2895      1.83051e+7 
           2910       2.2212e+7 
           2930      2.07671e+7 
           2950      2.05566e+7 
           2970      2.19382e+7 
           2990      2.20915e+7 
           3010      2.28305e+7 
           3030      2.24752e+7 
           3050      2.24134e+7 
           3070      2.27603e+7 
           3090      2.34143e+7 
           3110      2.25019e+7 
           3130      2.23071e+7 
           3150      2.32993e+7 
           3170      2.31337e+7 
           3190      2.14174e+7 
           3210      2.24321e+7 
           3230      2.11686e+7 
           3250      2.23905e+7 
           3270      2.30482e+7 
           3290      2.31698e+7 
           3310      2.37424e+7 
           3330      2.31193e+7 
           3350      2.28297e+7 
           3370      2.24039e+7 
           3390      2.27117e+7 
           3410      2.29528e+7 
           3430      2.31768e+7 
           3450      2.30557e+7 
           3470      2.27056e+7 
           3490      2.26156e+7 
           3510      2.32693e+7 
           3530      2.31376e+7 
           3550      2.39726e+7 
           3570      2.26303e+7 
           3590      2.25083e+7 
           3610      2.26472e+7 
           3630      2.29004e+7 
           3640      2.25137e+7 
           3650      2.37394e+7 
           3670      2.34195e+7 
           3690      2.24379e+7 
           3710      2.42852e+7 
           3730      2.56269e+7 
           3750      3.26003e+7 
           3770      3.53645e+7 
           3790      4.37128e+7 
           3810       5.1264e+7 
           3830      4.02414e+7 
           3850      5.67108e+7 
           3870       6.4256e+7 
           3890      3.70677e+7 
           3910       6.3293e+7 
           3930      5.21644e+7 
           3950        6.209e+7 
           3970      3.30217e+7 
           3990      6.25551e+7 
           4010      7.09784e+7 
           4030      7.06839e+7 
           4050      6.97303e+7 
           4070      6.63653e+7 
           4090      5.28517e+7 
           4110      4.03936e+7 
           4130      6.31943e+7 
           4150      6.76921e+7 
           4170      6.70876e+7 
           4190      6.65238e+7 
           4210      6.62865e+7 
           4230      6.42968e+7 
           4250      6.46108e+7 
           4270       6.1513e+7 
           4290        6.221e+7 
           4310      5.64544e+7 
           4330      4.43743e+7 
           4350      3.77775e+7 
           4370      5.74477e+7 
           4390      5.89761e+7 
           4410       5.8084e+7 
           4430      5.73131e+7 
           4450      5.83172e+7 
           4470      5.79869e+7 
           4490      5.72043e+7 
           4510      5.88669e+7 
           4530      5.61416e+7 
           4550      5.52379e+7 
           4570      5.70499e+7 
           4590      5.45422e+7 
           4610       5.5738e+7 
           4630      5.38868e+7 
           4650      5.42797e+7 
           4670      5.40783e+7 
           4690      5.18078e+7 
           4710      4.98098e+7 
           4730      5.20803e+7 
           4750      5.19281e+7 
           4770      5.08528e+7 
           4790      5.02928e+7 
           4810      4.89994e+7 
           4830      4.67018e+7 
           4850      3.63557e+7 
           4870      2.89859e+7 
           4890      4.36092e+7 
           4910      4.59596e+7 
           4930      4.53844e+7 
           4950      4.62992e+7 
           4970      4.65068e+7 
           4990      4.45522e+7 
           5010      4.28509e+7 
           5030      4.40222e+7 
           5050      4.31438e+7 
           5070      4.39019e+7 
           5090      4.31809e+7 
           5110      4.30629e+7 
           5130      4.20478e+7 
           5150      4.10088e+7 
           5170      4.02707e+7 
           5190      3.98043e+7 
           5210      3.98421e+7 
           5230      3.94443e+7 
           5250      4.00054e+7 
           5270       3.7334e+7 
           5290      3.89908e+7 
           5310      3.83181e+7 
           5330      3.69066e+7 
           5350      3.79961e+7 
           5370      3.75372e+7 
           5390      3.70659e+7 
           5410      3.61887e+7 
           5430      3.63225e+7 
           5450      3.65181e+7 
           5470      3.59758e+7 
           5490      3.57454e+7 
           5510      3.54132e+7 
           5530      3.50343e+7 
           5550      3.49682e+7 
           5570      3.43872e+7 
           5590      3.39897e+7 
           5610       3.3913e+7 
           5630       3.3821e+7 
           5650      3.33578e+7 
           5670      3.28018e+7 
           5690      3.27973e+7 
           5710       3.2479e+7 
           5730       3.2652e+7 
           5750      3.20424e+7 
           5770      3.18715e+7 
           5790      3.14832e+7 
           5810      3.12891e+7 
           5830      3.10892e+7 
           5850      3.06965e+7 
           5870      3.04658e+7 
           5890      2.97206e+7 
           5910      2.99124e+7 
           5930      2.96456e+7 
           5950      2.93573e+7 
           5970      2.91577e+7 
           5990       2.8746e+7 
           6010      2.83089e+7 
           6030      2.82457e+7 
           6050      2.80418e+7 
           6070      2.79401e+7 
           6090      2.75822e+7 
           6110      2.72304e+7 
           6130      2.67261e+7 
           6150       2.6189e+7 
           6170       2.6165e+7 
           6190      2.64259e+7 
           6210      2.62198e+7 
           6230       2.5811e+7 
           6250        2.505e+7 
           6270      2.55852e+7 
           6290      2.53733e+7 
           6310      2.48702e+7 
           6330      2.47828e+7 
           6350      2.43691e+7 
           6370      2.42293e+7 
           6390      2.41785e+7 
           6410      2.37491e+7 
           6430      2.36927e+7 
           6450       2.3172e+7 
           6470      2.32323e+7 
           6490      2.27307e+7 
           6510      2.25993e+7 
           6530      2.19451e+7 
           6550       1.9083e+7 
           6570      1.51835e+7 
           6590      2.06868e+7 
           6610      2.16266e+7 
           6630      2.17397e+7 
           6650      2.16356e+7 
           6670      2.14256e+7 
           6690      2.13701e+7 
           6710      2.11985e+7 
           6730      2.10236e+7 
           6750      2.07297e+7 
           6770      2.07488e+7 
           6790      2.05557e+7 
           6810      2.03937e+7 
           6830      2.01686e+7 
           6850      2.00093e+7 
           6870      1.99145e+7 
           6890      1.97625e+7 
           6910      1.95891e+7 
           6930      1.94127e+7 
           6950      1.92746e+7 
           6970      1.91006e+7 
           6990      1.89852e+7 
           7010       1.8634e+7 
           7030      1.86067e+7 
           7050      1.85028e+7 
           7070      1.83749e+7 
           7090      1.82354e+7 
           7110       1.7691e+7 
           7130      1.78061e+7 
           7150      1.77073e+7 
           7170      1.75662e+7 
           7190      1.73892e+7 
           7210      1.73095e+7 
           7230      1.71584e+7 
           7250       1.6985e+7 
           7270      1.69665e+7 
           7290       1.6719e+7 
           7310      1.66347e+7 
           7330       1.6523e+7 
           7350      1.64541e+7 
           7370       1.6349e+7 
           7390       1.6133e+7 
           7410      1.59212e+7 
           7430      1.57578e+7 
           7450      1.57079e+7 
           7470      1.55044e+7 
           7490      1.54654e+7 
           7510      1.54105e+7 
           7530      1.53274e+7 
           7550      1.52807e+7 
           7570      1.51238e+7 
           7590      1.50363e+7 
           7610      1.49164e+7 
           7630       1.4815e+7 
           7650      1.46636e+7 
           7670      1.44662e+7 
           7690      1.44127e+7 
           7710      1.43026e+7 
           7730      1.42602e+7 
           7750      1.41177e+7 
           7770      1.37406e+7 
           7790      1.39799e+7 
           7810       1.3854e+7 
           7830      1.36764e+7 
           7850      1.35267e+7 
           7870      1.34629e+7 
           7890      1.33312e+7 
           7910       1.3229e+7 
           7930      1.31156e+7 
           7950       1.2999e+7 
           7970       1.3078e+7 
           7990      1.28297e+7 
           8010      1.28473e+7 
           8030      1.27203e+7 
           8050      1.26653e+7 
           8070      1.25667e+7 
           8090      1.24673e+7 
           8110      1.24293e+7 
           8130       1.2358e+7 
           8150      1.22651e+7 
           8170      1.21808e+7 
           8190      1.18838e+7 
           8210      1.18372e+7 
           8230      1.17553e+7 
           8250      1.17127e+7 
           8270      1.17905e+7 
           8290      1.16921e+7 
           8310      1.15857e+7 
           8330      1.13916e+7 
           8350      1.14409e+7 
           8370      1.13739e+7 
           8390      1.12352e+7 
           8410      1.11717e+7 
           8430      1.10694e+7 
           8450      1.08293e+7 
           8470      1.07052e+7 
           8490      1.09156e+7 
           8510      1.01585e+7 
           8530      1.08834e+7 
           8550      9.30248e+6 
           8570      1.09959e+7 
           8590      1.01907e+7 
           8610      9.89287e+6 
           8630      1.10024e+7 
           8650       1.0577e+7 
           8670      8.50498e+6 
           8690      1.05407e+7 
           8710      1.10614e+7 
           8730      1.06366e+7 
           8750      8.44809e+6 
           8770      1.01915e+7 
           8790      1.09639e+7 
           8810      1.09938e+7 
           8830      1.05884e+7 
           8850      9.57618e+6 
           8870      8.12768e+6 
           8890      1.02138e+7 
           8910      1.06383e+7 
           8930      1.06592e+7 
           8950      1.07207e+7 
           8970      1.04903e+7 
           8990      1.00125e+7 
           9010      7.98333e+6 
           9030      8.80273e+6 
           9050      1.00049e+7 
           9070       9.9869e+6 
           9090       9.8737e+6 
           9110      1.01087e+7 
           9130       1.0144e+7 
           9150      1.01217e+7 
           9170      9.95351e+6 
           9190      9.66624e+6 
           9210      8.96166e+6 
           9230      7.02093e+6 
           9250       8.5946e+6 
           9270      9.16606e+6 
           9290      9.57275e+6 
           9310      9.60208e+6 
           9330      9.54191e+6 
           9350      9.51967e+6 
           9370      9.47821e+6 
           9390      9.33619e+6 
