# Kurucz ODFNEW /NOVER (2003)
# teff = 32000 K (value for the effective temperature for the model. Temperatures are given in K)
# logg = 4.5 log(cm/s2) (value for Log(G) for the model.)
# meta = 0  (value for the Metallicity for the model.)
# lh = 1.25  (l/Hp where l is the  mixing length of the convective element and Hp is the pressure scale height)
# vtur = 2 km/s (Microturbulence velocity)
# alpha = 0  (Alpha)
#
# column 1: WAVELENGTH (ANGSTROM), Wavelength in Angstrom
# column 2: FLUX (ERG/CM2/S/A), Flux in erg/cm2/s/A
          147.2      6.22265e-7 
            151      1.75651e-6 
          155.2      5.22059e-6 
          158.8      1.27019e-5 
            162      2.71235e-5 
            166      6.72674e-5 
          170.3     0.000170023 
          173.4     0.000323485 
          176.8     0.000638222 
          180.2      0.00122641 
          181.7      0.00162605 
          186.1      0.00361259 
            191      0.00842981 
          193.9       0.0136424 
          198.4       0.0280509 
          201.8       0.0473215 
            205       0.0762163 
          210.5        0.167508 
          216.2        0.362678 
          219.8        0.580845 
            223        0.870518 
          226.8         1.39953 
            230         492.397 
            234         1087.82 
            240         1806.01 
          246.5         3164.26 
          252.4          5250.2 
          256.8         7145.98 
            260         11858.6 
            264         18053.8 
          268.5         26617.9 
          273.5         37285.5 
          278.5         48974.4 
            284          100371 
            290          146042 
            296          198185 
            301          277434 
            308          579843 
            318       1.2111e+6 
            328      1.79698e+6 
            338       3.0964e+6 
            348      4.78253e+6 
            357      9.99338e+6 
            366      1.81702e+7 
            375      2.24583e+7 
            385      3.22555e+7 
            395      5.17509e+7 
            405      6.44844e+7 
            414      8.37001e+7 
            422       9.5587e+7 
            430      1.13909e+8 
            441       1.4321e+8 
            451      1.66345e+8 
            460      1.84394e+8 
            470       2.2249e+8 
            480      2.63645e+8 
            490      3.00552e+8 
            500      3.58044e+8 
            506      7.84561e+8 
            512      5.18423e+9 
            520      4.89191e+9 
            530      4.52129e+9 
            540      4.17077e+9 
            550      5.09039e+9 
            560      6.10588e+9 
            570      6.37576e+9 
            580      5.82788e+9 
            590      6.30202e+9 
            600      5.45483e+9 
            610      6.41189e+9 
            620      7.32153e+9 
            630      7.14106e+9 
            640      6.93988e+9 
            650      7.02036e+9 
            658      6.38579e+9 
            665      7.17892e+9 
            675      7.63985e+9 
            685      6.46773e+9 
            695      8.26188e+9 
            705      7.11119e+9 
            716      8.78523e+9 
            726      8.58848e+9 
            735      8.61584e+9 
            745      8.64402e+9 
            755       8.6406e+9 
            765      8.84942e+9 
            775      9.08039e+9 
            785      9.41602e+9 
            795      9.39462e+9 
            805      9.14289e+9 
            815      9.10367e+9 
            825       9.5618e+9 
            835      8.11625e+9 
            845      9.23693e+9 
            855      9.18704e+9 
            865      9.46676e+9 
            875      9.58227e+9 
            885      9.80321e+9 
            895      9.90941e+9 
            905      9.65897e+9 
            915      1.0281e+10 
            925     3.31306e+10 
            935     5.55899e+10 
            945     8.12034e+10 
            955     8.97971e+10 
            965     1.04775e+11 
            975     3.91795e+10 
            985     8.70393e+10 
            995     7.87345e+10 
           1005     8.33372e+10 
           1015     8.61132e+10 
           1025     6.09042e+10 
           1035     8.10414e+10 
           1045     9.54083e+10 
           1055     9.01761e+10 
           1065     7.72375e+10 
           1075     8.09644e+10 
           1085      7.3773e+10 
           1095     7.90298e+10 
           1105     7.51962e+10 
           1115     7.39171e+10 
           1125     6.07381e+10 
           1135     7.05923e+10 
           1145     6.66635e+10 
           1155     6.45652e+10 
           1165     6.24873e+10 
           1175     4.13996e+10 
           1185      5.6876e+10 
           1195     5.51392e+10 
           1205     5.14206e+10 
           1215     3.76417e+10 
           1225      5.0536e+10 
           1235     5.42534e+10 
           1245     5.21409e+10 
           1255     5.18108e+10 
           1265     5.28642e+10 
           1275     5.38388e+10 
           1285     5.35175e+10 
           1295     4.86506e+10 
           1305     4.89807e+10 
           1315     5.17331e+10 
           1325     4.94316e+10 
           1335     4.78885e+10 
           1345      4.7581e+10 
           1355     4.66637e+10 
           1365     4.46683e+10 
           1375      4.3449e+10 
           1385     4.19715e+10 
           1395     3.32509e+10 
           1405      3.4285e+10 
           1415     3.91081e+10 
           1425     3.54685e+10 
           1435     3.74292e+10 
           1442     3.73511e+10 
           1447     3.69783e+10 
           1455     3.53271e+10 
           1465     3.41373e+10 
           1475     3.42197e+10 
           1485     3.40337e+10 
           1495      3.2931e+10 
           1505     3.14936e+10 
           1512     3.02947e+10 
           1517     3.05815e+10 
           1525     2.98063e+10 
           1535     2.58825e+10 
           1545     2.31038e+10 
           1555     2.28123e+10 
           1565     2.50012e+10 
           1575     2.61655e+10 
           1585     2.62322e+10 
           1595     2.59784e+10 
           1605      2.4746e+10 
           1615     2.35999e+10 
           1625     2.40479e+10 
           1635     2.43127e+10 
           1645     2.40361e+10 
           1655     2.42087e+10 
           1665     2.38562e+10 
           1672     2.22514e+10 
           1677     2.53405e+10 
           1685     2.41053e+10 
           1695     2.31713e+10 
           1705     2.27617e+10 
           1715       2.179e+10 
           1725     2.09456e+10 
           1735     2.16046e+10 
           1745     2.13058e+10 
           1755     2.10074e+10 
           1765     2.06684e+10 
           1775     1.98969e+10 
           1785     2.01026e+10 
           1795     1.97635e+10 
           1805     1.97221e+10 
           1815     1.88935e+10 
           1825     1.87538e+10 
           1835     1.85868e+10 
           1845     1.73401e+10 
           1855     1.75762e+10 
           1865     1.76319e+10 
           1875     1.73758e+10 
           1885     1.62599e+10 
           1895     1.56712e+10 
           1905     1.62224e+10 
           1915     1.56672e+10 
           1925      1.4721e+10 
           1935     1.55583e+10 
           1945     1.57741e+10 
           1955     1.43259e+10 
           1967     1.49812e+10 
           1976     1.54143e+10 
           1984     1.46356e+10 
           1995     1.42825e+10 
           2005     1.44834e+10 
           2015      1.4442e+10 
           2025      1.4467e+10 
           2035     1.37174e+10 
           2045     1.35926e+10 
           2055     1.16158e+10 
           2065     1.12933e+10 
           2074     1.16615e+10 
           2078     1.13374e+10 
           2085     1.17389e+10 
           2095     1.20237e+10 
           2105     1.25329e+10 
           2115     1.25739e+10 
           2125     1.24191e+10 
           2135     1.22443e+10 
           2145     1.19421e+10 
           2155     1.20003e+10 
           2165     1.16148e+10 
           2175     1.16795e+10 
           2185     1.13629e+10 
           2195     1.14699e+10 
           2205     1.12987e+10 
           2215     1.09489e+10 
           2225     1.09253e+10 
           2235     1.07267e+10 
           2245     1.06074e+10 
           2255     1.02854e+10 
           2265     1.03255e+10 
           2275     1.01985e+10 
           2285       9.9781e+9 
           2295      9.09024e+9 
           2305      9.54689e+9 
           2315      9.50044e+9 
           2325      9.42168e+9 
           2335      9.25616e+9 
           2345      9.18698e+9 
           2355      9.02489e+9 
           2365      8.89552e+9 
           2375       8.7119e+9 
           2385      8.43568e+9 
           2395      8.42318e+9 
           2405      8.37542e+9 
           2415      8.25388e+9 
           2425      8.18082e+9 
           2435      8.01655e+9 
           2445      7.93851e+9 
           2455      7.83959e+9 
           2465      7.73829e+9 
           2475      7.61808e+9 
           2485      7.44768e+9 
           2495      6.05427e+9 
           2505      7.15813e+9 
           2513      6.86089e+9 
           2518      7.00895e+9 
           2525      7.11491e+9 
           2535      7.04833e+9 
           2545      6.87382e+9 
           2555      6.80915e+9 
           2565      6.73727e+9 
           2575       6.6572e+9 
           2585      6.58155e+9 
           2595      6.48505e+9 
           2605      6.43369e+9 
           2615      6.32177e+9 
           2625       6.2644e+9 
           2635      6.18765e+9 
           2645      6.08764e+9 
           2655      6.01942e+9 
           2665      5.87302e+9 
           2675      5.77917e+9 
           2685      5.78428e+9 
           2695      5.62628e+9 
           2705       5.5688e+9 
           2715      5.50843e+9 
           2725      5.45286e+9 
           2735      5.34406e+9 
           2745      5.33869e+9 
           2755      5.28164e+9 
           2765      5.18388e+9 
           2775      5.18132e+9 
           2785      5.09609e+9 
           2795      4.93093e+9 
           2805      4.94276e+9 
           2815      4.92863e+9 
           2825       4.8414e+9 
           2835      4.73371e+9 
           2845      4.74936e+9 
           2855      4.67455e+9 
           2865      4.61582e+9 
           2875      4.56417e+9 
           2885      4.51031e+9 
           2895      4.45444e+9 
           2910      4.35436e+9 
           2930      4.28283e+9 
           2950      4.14998e+9 
           2970       4.0739e+9 
           2990      3.96151e+9 
           3010      3.84713e+9 
           3030      3.76783e+9 
           3050      3.70343e+9 
           3070      3.63835e+9 
           3090      3.51324e+9 
           3110      3.47501e+9 
           3130       3.3841e+9 
           3150      3.31723e+9 
           3170       3.2376e+9 
           3190      3.16319e+9 
           3210      3.09468e+9 
           3230      3.03181e+9 
           3250      2.98027e+9 
           3270      2.90225e+9 
           3290      2.84706e+9 
           3310      2.78814e+9 
           3330      2.72087e+9 
           3350      2.66193e+9 
           3370      2.60844e+9 
           3390      2.56811e+9 
           3410       2.5142e+9 
           3430      2.46171e+9 
           3450      2.40107e+9 
           3470      2.35726e+9 
           3490      2.30879e+9 
           3510      2.26571e+9 
           3530      2.22789e+9 
           3550      2.18137e+9 
           3570      2.14505e+9 
           3590      2.08778e+9 
           3610      2.05188e+9 
           3630      2.01037e+9 
           3640      1.99823e+9 
           3650      1.93247e+9 
           3670      1.90414e+9 
           3690        1.868e+9 
           3710      1.80316e+9 
           3730      1.75461e+9 
           3750      1.74824e+9 
           3770      1.70618e+9 
           3790      1.75832e+9 
           3810      1.80108e+9 
           3830      1.61677e+9 
           3850      1.80505e+9 
           3870      1.77565e+9 
           3890      1.52015e+9 
           3910      1.76296e+9 
           3930       1.7176e+9 
           3950      1.67874e+9 
           3970      1.40379e+9 
           3990      1.62979e+9 
           4010      1.61142e+9 
           4030      1.53829e+9 
           4050      1.56317e+9 
           4070      1.50008e+9 
           4090      1.40613e+9 
           4110      1.27816e+9 
           4130      1.42792e+9 
           4150      1.41325e+9 
           4170      1.40449e+9 
           4190      1.37936e+9 
           4210      1.35774e+9 
           4230      1.33744e+9 
           4250      1.30237e+9 
           4270      1.27148e+9 
           4290      1.25202e+9 
           4310      1.21794e+9 
           4330      1.13317e+9 
           4350      1.05144e+9 
           4370      1.15984e+9 
           4390      1.13677e+9 
           4410      1.13111e+9 
           4430      1.12167e+9 
           4450      1.10149e+9 
           4470       1.0538e+9 
           4490      1.06691e+9 
           4510      1.04924e+9 
           4530      1.03552e+9 
           4550      1.01434e+9 
           4570      1.00299e+9 
           4590      9.84198e+8 
           4610      9.64882e+8 
           4630      9.45387e+8 
           4650      9.06067e+8 
           4670      9.17964e+8 
           4690      9.00543e+8 
           4710      8.80328e+8 
           4730      8.83423e+8 
           4750      8.68252e+8 
           4770      8.60473e+8 
           4790      8.46455e+8 
           4810      8.30736e+8 
           4830      8.12889e+8 
           4850      7.65455e+8 
           4870      6.95404e+8 
           4890      7.76269e+8 
           4910      7.67582e+8 
           4930      7.43759e+8 
           4950      7.43665e+8 
           4970      7.37646e+8 
           4990      7.26207e+8 
           5010      7.01975e+8 
           5030      7.02791e+8 
           5050      6.90219e+8 
           5070      6.84388e+8 
           5090      6.73597e+8 
           5110      6.63299e+8 
           5130       6.5224e+8 
           5150      6.43093e+8 
           5170       6.3442e+8 
           5190      6.26155e+8 
           5210      6.17402e+8 
           5230      6.08502e+8 
           5250      5.99008e+8 
           5270      5.90198e+8 
           5290      5.82943e+8 
           5310      5.74619e+8 
           5330      5.66694e+8 
           5350      5.58635e+8 
           5370      5.50993e+8 
           5390      5.42944e+8 
           5410      5.33158e+8 
           5430      5.28458e+8 
           5450       5.2101e+8 
           5470      5.13807e+8 
           5490      5.06783e+8 
           5510      5.00071e+8 
           5530      4.92949e+8 
           5550      4.86761e+8 
           5570      4.80078e+8 
           5590      4.73237e+8 
           5610      4.67403e+8 
           5630      4.61224e+8 
           5650      4.54683e+8 
           5670      4.47673e+8 
           5690      4.38341e+8 
           5710      4.32803e+8 
           5730      4.27572e+8 
           5750      4.21151e+8 
           5770      4.16912e+8 
           5790      4.11329e+8 
           5810      4.05857e+8 
           5830      4.00007e+8 
           5850      3.95812e+8 
           5870      3.81454e+8 
           5890       3.8446e+8 
           5910      3.81032e+8 
           5930      3.76334e+8 
           5950       3.7184e+8 
           5970       3.6838e+8 
           5990       3.6353e+8 
           6010      3.59738e+8 
           6030        3.549e+8 
           6050      3.50756e+8 
           6070      3.46649e+8 
           6090      3.42416e+8 
           6110      3.38099e+8 
           6130      3.34062e+8 
           6150      3.29243e+8 
           6170      3.25439e+8 
           6190      3.21826e+8 
           6210      3.18076e+8 
           6230      3.14232e+8 
           6250      3.10121e+8 
           6270      3.06555e+8 
           6290         3.03e+8 
           6310       2.9919e+8 
           6330      2.95798e+8 
           6350      2.92059e+8 
           6370      2.88836e+8 
           6390      2.85342e+8 
           6410      2.81978e+8 
           6430      2.78732e+8 
           6450      2.75367e+8 
           6470      2.71562e+8 
           6490      2.68602e+8 
           6510       2.6547e+8 
           6530      2.61443e+8 
           6550      2.52236e+8 
           6570      2.26867e+8 
           6590      2.50962e+8 
           6610      2.50394e+8 
           6630      2.47917e+8 
           6650      2.45039e+8 
           6670      2.40007e+8 
           6690       2.3732e+8 
           6710      2.36719e+8 
           6730      2.33734e+8 
           6750      2.31524e+8 
           6770      2.29089e+8 
           6790      2.25715e+8 
           6810      2.23888e+8 
           6830      2.21367e+8 
           6850      2.19025e+8 
           6870      2.16562e+8 
           6890      2.13846e+8 
           6910      2.11419e+8 
           6930      2.09573e+8 
           6950      2.07284e+8 
           6970      2.05034e+8 
           6990      2.02783e+8 
           7010      2.00531e+8 
           7030      1.98195e+8 
           7050      1.96177e+8 
           7070      1.91451e+8 
           7090      1.92067e+8 
           7110      1.89691e+8 
           7130      1.87731e+8 
           7150      1.85997e+8 
           7170      1.83906e+8 
           7190      1.82039e+8 
           7210      1.80153e+8 
           7230      1.76801e+8 
           7250      1.76128e+8 
           7270      1.74526e+8 
           7290      1.71507e+8 
           7310      1.70859e+8 
           7330      1.69086e+8 
           7350      1.67352e+8 
           7370       1.6564e+8 
           7390      1.63931e+8 
           7410      1.62244e+8 
           7430       1.6058e+8 
           7450      1.58925e+8 
           7470      1.56948e+8 
           7490      1.55506e+8 
           7510      1.54085e+8 
           7530       1.5249e+8 
           7550      1.51029e+8 
           7570      1.49496e+8 
           7590      1.47819e+8 
           7610      1.46328e+8 
           7630      1.45005e+8 
           7650      1.43566e+8 
           7670      1.42165e+8 
           7690      1.40655e+8 
           7710      1.39286e+8 
           7730      1.37816e+8 
           7750       1.3661e+8 
           7770       1.3524e+8 
           7790      1.33951e+8 
           7810      1.32593e+8 
           7830      1.31345e+8 
           7850      1.30132e+8 
           7870      1.28705e+8 
           7890      1.27388e+8 
           7910      1.26311e+8 
           7930      1.25075e+8 
           7950      1.23928e+8 
           7970      1.22678e+8 
           7990      1.21552e+8 
           8010      1.20352e+8 
           8030      1.19169e+8 
           8050       1.1809e+8 
           8070      1.16961e+8 
           8090      1.15739e+8 
           8110      1.14235e+8 
           8130       1.1368e+8 
           8150      1.12521e+8 
           8170      1.11581e+8 
           8190      1.10133e+8 
           8210      1.08798e+8 
           8230       1.0768e+8 
           8250      1.07031e+8 
           8270      1.05429e+8 
           8290       1.0502e+8 
           8310      1.04144e+8 
           8330      1.03096e+8 
           8350      1.01781e+8 
           8370      1.01113e+8 
           8390      1.00374e+8 
           8410      9.94128e+7 
           8430      9.85175e+7 
           8450      9.71337e+7 
           8470      9.67333e+7 
           8490      9.57031e+7 
           8510      9.46868e+7 
           8530      9.39586e+7 
           8550      9.28238e+7 
           8570      9.27655e+7 
           8590      9.03633e+7 
