# Kurucz ODFNEW /NOVER (2003)
# teff = 7750 K (value for the effective temperature for the model. Temperatures are given in K)
# logg = 2 log(cm/s2) (value for Log(G) for the model.)
# meta = -0.5  (value for the Metallicity for the model.)
# lh = 1.25  (l/Hp where l is the  mixing length of the convective element and Hp is the pressure scale height)
# vtur = 2 km/s (Microturbulence velocity)
# alpha = 0  (Alpha)
#
# column 1: WAVELENGTH (ANGSTROM), Wavelength in Angstrom
# column 2: FLUX (ERG/CM2/S/A), Flux in erg/cm2/s/A
            366     2.46842e-23 
            375     1.97973e-22 
            385     1.55094e-21 
            395     1.07872e-20 
            405     6.79135e-20 
            414       3.288e-19 
            422     1.26012e-18 
            430     4.58575e-18 
            441     2.50254e-17 
            451     1.08642e-16 
            460     3.84812e-16 
            470     1.24459e-16 
            480     4.17836e-16 
            490     1.33106e-15 
            500      4.0307e-15 
            506     8.54143e-14 
            512      2.2873e-13 
            520     5.44377e-13 
            530     1.57357e-12 
            540     4.22916e-12 
            550     7.94606e-13 
            560      1.8768e-12 
            570     4.28885e-12 
            580     9.39136e-12 
            590     2.04263e-11 
            600     4.27107e-11 
            610      8.6995e-11 
            620     1.72713e-10 
            630     3.34776e-10 
            640     6.34517e-10 
            650      1.17718e-9 
            658      1.90095e-9 
            665       2.8599e-9 
            675      5.04629e-9 
            685      8.74011e-9 
            695      1.48758e-8 
            705      2.48583e-8 
            716      4.30348e-8 
            726      6.96663e-8 
            735      1.06145e-7 
            745      1.67213e-7 
            755      2.59892e-7 
            765      3.98755e-7 
            775      6.04197e-7 
            785      9.04738e-7 
            795      1.33299e-6 
            805        1.957e-6 
            815      2.83693e-6 
            825      4.06682e-6 
            835      5.77285e-6 
            845      8.11787e-6 
            855      1.13103e-5 
            865       1.5621e-5 
            875      2.13665e-5 
            885      2.90503e-5 
            895      3.91476e-5 
            905      5.22299e-5 
            915       0.0646523 
            925        0.218674 
            935        0.283125 
            945        0.378132 
            955        0.530463 
            965        0.688103 
            975        0.828498 
            985         1.10143 
            995         1.34029 
           1005         1.80087 
           1015         2.22668 
           1025         2.58473 
           1035         3.46276 
           1045         4.33919 
           1055         5.35262 
           1065         6.39848 
           1075         7.94681 
           1085         9.70413 
           1095         11.4773 
           1105         33.8463 
           1115         105.226 
           1125         149.683 
           1135         201.465 
           1145          241.74 
           1155         252.765 
           1165         313.103 
           1175         325.396 
           1185         376.293 
           1195         128.099 
           1205         89.4458 
           1215          22.448 
           1225         103.796 
           1235         280.566 
           1245         644.634 
           1255         1314.97 
           1265         1574.93 
           1275         2609.67 
           1285         4029.38 
           1295         5364.89 
           1305         4871.97 
           1315         7890.68 
           1325         10154.8 
           1335         11566.2 
           1345         15878.9 
           1355         17281.3 
           1365         19765.9 
           1375         22755.7 
           1385         25655.1 
           1395         30252.2 
           1405           36224 
           1415         39202.2 
           1425         46913.4 
           1435         47132.7 
           1442         57233.3 
           1447         64294.5 
           1455         83626.9 
           1465         86847.6 
           1475         95729.3 
           1485          109603 
           1495          129347 
           1505          143460 
           1512          137275 
           1517          155225 
           1525          184443 
           1535          978412 
           1545      2.40492e+6 
           1555      2.16282e+6 
           1565      1.77057e+6 
           1575      2.78694e+6 
           1585      3.14583e+6 
           1595      3.89624e+6 
           1605      3.39419e+6 
           1615      3.36268e+6 
           1625      3.13553e+6 
           1635      3.89395e+6 
           1645      5.18771e+6 
           1655      2.95164e+6 
           1665      5.15488e+6 
           1672      2.00305e+6 
           1677      5.87988e+6 
           1685      7.55151e+6 
           1695      7.30781e+6 
           1705      6.82099e+6 
           1715      8.12154e+6 
           1725      8.32644e+6 
           1735      9.66495e+6 
           1745      9.01322e+6 
           1755      1.08484e+7 
           1765      8.35977e+6 
           1775      1.02759e+7 
           1785       9.6291e+6 
           1795      1.23424e+7 
           1805      1.06331e+7 
           1815      1.15413e+7 
           1825      1.00396e+7 
           1835      9.64238e+6 
           1845      8.69415e+6 
           1855      9.60691e+6 
           1865      1.02701e+7 
           1875      1.01826e+7 
           1885      1.04617e+7 
           1895      1.11329e+7 
           1905      1.01055e+7 
           1915      1.10012e+7 
           1925      1.12105e+7 
           1935      9.10264e+6 
           1945      1.18256e+7 
           1955      1.19228e+7 
           1967      1.27485e+7 
           1976        1.246e+7 
           1984       1.2019e+7 
           1995      1.16265e+7 
           2005      1.11219e+7 
           2015      1.06369e+7 
           2025      1.00075e+7 
           2035      1.12894e+7 
           2045      1.23603e+7 
           2055      1.13714e+7 
           2065      1.08693e+7 
           2074      1.30006e+7 
           2078      1.34819e+7 
           2085      1.29305e+7 
           2095      1.22812e+7 
           2105       1.1443e+7 
           2115      1.16407e+7 
           2125      1.20236e+7 
           2135      9.34173e+6 
           2145      1.12601e+7 
           2155      1.14608e+7 
           2165      1.05635e+7 
           2175      1.05064e+7 
           2185      1.09392e+7 
           2195      1.20259e+7 
           2205       1.1501e+7 
           2215      1.00398e+7 
           2225      9.84547e+6 
           2235      1.18685e+7 
           2245      1.05103e+7 
           2255      9.72305e+6 
           2265      9.77765e+6 
           2275        1.089e+7 
           2285      1.13757e+7 
           2295      1.04235e+7 
           2305      1.08034e+7 
           2315      1.03848e+7 
           2325      1.00252e+7 
           2335      8.28743e+6 
           2345      6.84269e+6 
           2355      9.84886e+6 
           2365      7.02778e+6 
           2375      8.79071e+6 
           2385      5.88736e+6 
           2395       7.3257e+6 
           2405      6.98614e+6 
           2415       7.8043e+6 
           2425      1.01226e+7 
           2435      9.85216e+6 
           2445      1.05752e+7 
           2455       1.0358e+7 
           2465      1.02413e+7 
           2475      9.60393e+6 
           2485      1.00264e+7 
           2495      9.59461e+6 
           2505      1.16777e+7 
           2513      9.61156e+6 
           2518      1.01064e+7 
           2525      8.88344e+6 
           2535      8.50572e+6 
           2545      8.61525e+6 
           2555      9.71598e+6 
           2565      9.27677e+6 
           2575      1.04236e+7 
           2585      1.01226e+7 
           2595      9.53512e+6 
           2605      8.76922e+6 
           2615      8.31334e+6 
           2625      1.01041e+7 
           2635      1.08322e+7 
           2645       1.3711e+7 
           2655      1.37202e+7 
           2665      1.18017e+7 
           2675      1.26803e+7 
           2685      1.25552e+7 
           2695      1.18283e+7 
           2705      1.23007e+7 
           2715      1.11722e+7 
           2725      1.14024e+7 
           2735      1.24921e+7 
           2745      8.86849e+6 
           2755      9.87336e+6 
           2765      1.06555e+7 
           2775      1.23391e+7 
           2785      1.13205e+7 
           2795      5.47394e+6 
           2805      6.85609e+6 
           2815      1.26798e+7 
           2825      1.36953e+7 
           2835      1.30452e+7 
           2845       1.2526e+7 
           2855      1.17007e+7 
           2865      1.32049e+7 
           2875      1.27755e+7 
           2885      1.31207e+7 
           2895      1.24049e+7 
           2910      1.44724e+7 
           2930      1.38705e+7 
           2950      1.37774e+7 
           2970      1.43779e+7 
           2990      1.45958e+7 
           3010      1.49463e+7 
           3030      1.48469e+7 
           3050       1.4814e+7 
           3070      1.48739e+7 
           3090      1.53085e+7 
           3110      1.48248e+7 
           3130      1.47767e+7 
           3150      1.53699e+7 
           3170      1.53737e+7 
           3190       1.4513e+7 
           3210      1.50939e+7 
           3230      1.46219e+7 
           3250      1.51534e+7 
           3270      1.53589e+7 
           3290      1.56249e+7 
           3310      1.58888e+7 
           3330      1.55402e+7 
           3350      1.53458e+7 
           3370      1.52919e+7 
           3390      1.54041e+7 
           3410      1.57747e+7 
           3430      1.59697e+7 
           3450      1.58605e+7 
           3470      1.56419e+7 
           3490      1.55717e+7 
           3510        1.601e+7 
           3530      1.61314e+7 
           3550      1.63937e+7 
           3570      1.58627e+7 
           3590      1.58457e+7 
           3610      1.59369e+7 
           3630      1.61183e+7 
           3640      1.58933e+7 
           3650      1.64313e+7 
           3670      1.61822e+7 
           3690      1.66957e+7 
           3710      2.09157e+7 
           3730      2.61831e+7 
           3750      3.80145e+7 
           3770      4.09785e+7 
           3790      5.13842e+7 
           3810      5.90264e+7 
           3830      4.59403e+7 
           3850      6.31131e+7 
           3870      6.86303e+7 
           3890      4.16088e+7 
           3910      6.66689e+7 
           3930      5.66354e+7 
           3950      6.60982e+7 
           3970      3.74413e+7 
           3990      6.54469e+7 
           4010      6.80569e+7 
           4030      6.70073e+7 
           4050       6.6455e+7 
           4070      6.44617e+7 
           4090      5.61037e+7 
           4110      4.29204e+7 
           4130      6.21253e+7 
           4150      6.32494e+7 
           4170      6.18187e+7 
           4190      6.12064e+7 
           4210      6.08218e+7 
           4230      5.94858e+7 
           4250      5.91275e+7 
           4270      5.76678e+7 
           4290      5.75551e+7 
           4310       5.4258e+7 
           4330      4.58793e+7 
           4350      3.91512e+7 
           4370      5.47609e+7 
           4390       5.4136e+7 
           4410      5.29449e+7 
           4430      5.31724e+7 
           4450       5.3057e+7 
           4470      5.24343e+7 
           4490      5.18468e+7 
           4510      5.21529e+7 
           4530      5.05662e+7 
           4550      4.93274e+7 
           4570      5.04208e+7 
           4590      4.89077e+7 
           4610      4.97748e+7 
           4630       4.8286e+7 
           4650      4.85475e+7 
           4670      4.79875e+7 
           4690      4.68889e+7 
           4710      4.53622e+7 
           4730      4.64747e+7 
           4750      4.62812e+7 
           4770       4.5518e+7 
           4790      4.49794e+7 
           4810      4.42984e+7 
           4830      4.31685e+7 
           4850      3.61747e+7 
           4870      2.89637e+7 
           4890      4.11499e+7 
           4910      4.18232e+7 
           4930      4.09731e+7 
           4950      4.11792e+7 
           4970      4.11825e+7 
           4990       4.0145e+7 
           5010      3.89816e+7 
           5030      3.94122e+7 
           5050      3.88496e+7 
           5070      3.88954e+7 
           5090       3.8426e+7 
           5110      3.80941e+7 
           5130      3.73739e+7 
           5150      3.68086e+7 
           5170      3.58535e+7 
           5190      3.55273e+7 
           5210      3.55715e+7 
           5230      3.49653e+7 
           5250      3.53459e+7 
           5270       3.3917e+7 
           5290      3.45644e+7 
           5310      3.38876e+7 
           5330      3.32625e+7 
           5350      3.37132e+7 
           5370       3.3162e+7 
           5390      3.28321e+7 
           5410      3.23053e+7 
           5430      3.20818e+7 
           5450      3.20447e+7 
           5470      3.17415e+7 
           5490      3.15507e+7 
           5510      3.12029e+7 
           5530      3.07682e+7 
           5550      3.07425e+7 
           5570      3.03291e+7 
           5590      3.00112e+7 
           5610      2.98048e+7 
           5630       2.9616e+7 
           5650      2.92249e+7 
           5670      2.89172e+7 
           5690      2.87724e+7 
           5710      2.85111e+7 
           5730      2.83388e+7 
           5750      2.80201e+7 
           5770      2.77843e+7 
           5790      2.75006e+7 
           5810       2.7268e+7 
           5830      2.70248e+7 
           5850      2.67632e+7 
           5870      2.65287e+7 
           5890      2.59872e+7 
           5910      2.60446e+7 
           5930      2.58092e+7 
           5950      2.55583e+7 
           5970      2.53578e+7 
           5990      2.50638e+7 
           6010      2.48263e+7 
           6030      2.46505e+7 
           6050      2.44353e+7 
           6070      2.42541e+7 
           6090      2.40087e+7 
           6110      2.37701e+7 
           6130      2.34819e+7 
           6150      2.30704e+7 
           6170      2.30527e+7 
           6190      2.29807e+7 
           6210      2.27938e+7 
           6230      2.25361e+7 
           6250      2.20613e+7 
           6270       2.2214e+7 
           6290      2.20196e+7 
           6310      2.17327e+7 
           6330      2.16059e+7 
           6350      2.13102e+7 
           6370       2.1146e+7 
           6390      2.10544e+7 
           6410      2.07885e+7 
           6430      2.06739e+7 
           6450      2.03331e+7 
           6470      2.03399e+7 
           6490      1.99858e+7 
           6510      1.98658e+7 
           6530      1.95464e+7 
           6550      1.76464e+7 
           6570      1.39765e+7 
           6590      1.87219e+7 
           6610      1.90399e+7 
           6630      1.89998e+7 
           6650      1.88754e+7 
           6670      1.87235e+7 
           6690      1.85965e+7 
           6710      1.84448e+7 
           6730      1.82871e+7 
           6750      1.81202e+7 
           6770      1.80133e+7 
           6790      1.78583e+7 
           6810      1.77195e+7 
           6830      1.75488e+7 
           6850      1.74208e+7 
           6870      1.72956e+7 
           6890       1.7158e+7 
           6910      1.70178e+7 
           6930      1.68774e+7 
           6950      1.67468e+7 
           6970       1.6609e+7 
           6990      1.64848e+7 
           7010      1.63042e+7 
           7030      1.62055e+7 
           7050      1.60909e+7 
           7070      1.59699e+7 
           7090      1.58469e+7 
           7110        1.555e+7 
           7130      1.55585e+7 
           7150      1.54516e+7 
           7170      1.53392e+7 
           7190      1.52015e+7 
           7210      1.50905e+7 
           7230      1.49638e+7 
           7250      1.48577e+7 
           7270      1.47661e+7 
           7290      1.46207e+7 
           7310      1.44978e+7 
           7330      1.44041e+7 
           7350      1.43132e+7 
           7370      1.42183e+7 
           7390      1.40897e+7 
           7410      1.39534e+7 
           7430      1.38381e+7 
           7450      1.37476e+7 
           7470      1.35938e+7 
           7490      1.35233e+7 
           7510      1.34427e+7 
           7530      1.33647e+7 
           7550      1.32867e+7 
           7570      1.31739e+7 
           7590      1.30862e+7 
           7610      1.29896e+7 
           7630      1.28931e+7 
           7650      1.27813e+7 
           7670      1.26725e+7 
           7690      1.25965e+7 
           7710      1.24748e+7 
           7730      1.24223e+7 
           7750       1.2325e+7 
           7770      1.20152e+7 
           7790      1.21584e+7 
           7810       1.2066e+7 
           7830      1.19583e+7 
           7850      1.18523e+7 
           7870      1.17592e+7 
           7890       1.1661e+7 
           7910      1.16039e+7 
           7930      1.15203e+7 
           7950      1.14224e+7 
           7970      1.13901e+7 
           7990      1.12405e+7 
           8010      1.12156e+7 
           8030      1.11305e+7 
           8050       1.1059e+7 
           8070      1.09771e+7 
           8090      1.08987e+7 
           8110       1.0833e+7 
           8130      1.07604e+7 
           8150      1.06832e+7 
           8170      1.06084e+7 
           8190      1.04477e+7 
           8210      1.04248e+7 
           8230      1.03503e+7 
           8250      1.02742e+7 
           8270       1.0284e+7 
           8290      1.02049e+7 
           8310      1.01198e+7 
           8330      9.94855e+6 
           8350       9.9566e+6 
           8370      9.78378e+6 
           8390      9.70776e+6 
           8410       9.6121e+6 
           8430      9.71763e+6 
           8450      9.56564e+6 
           8470      9.19074e+6 
           8490      9.96126e+6 
           8510      8.89958e+6 
           8530      1.00954e+7 
           8550      8.41196e+6 
           8570       1.0287e+7 
           8590        9.504e+6 
           8610       9.1809e+6 
           8630       1.0492e+7 
           8650      1.01802e+7 
           8670      8.09351e+6 
           8690      1.02828e+7 
           8710      1.06309e+7 
           8730      1.03197e+7 
           8750      8.10906e+6 
           8770      9.89961e+6 
           8790      1.04339e+7 
           8810      1.03691e+7 
           8830      1.01632e+7 
           8850      9.40158e+6 
           8870       7.8873e+6 
           8890      9.86106e+6 
           8910      9.99764e+6 
           8930       9.9581e+6 
           8950      9.97197e+6 
           8970      9.85778e+6 
           8990      9.59256e+6 
           9010      7.77682e+6 
           9030      8.61423e+6 
           9050      9.49752e+6 
           9070      9.35997e+6 
           9090      9.23995e+6 
           9110       9.3751e+6 
           9130       9.3874e+6 
           9150      9.33291e+6 
           9170      9.23983e+6 
           9190      9.09795e+6 
           9210       8.6672e+6 
           9230      6.84758e+6 
           9250       8.3749e+6 
           9270      8.68206e+6 
           9290      8.87346e+6 
           9310      8.84233e+6 
           9330      8.78801e+6 
           9350      8.73796e+6 
           9370      8.68482e+6 
           9390      8.59061e+6 
           9410      8.38182e+6 
           9430      8.46832e+6 
           9450      8.42956e+6 
