# Kurucz ODFNEW /NOVER (2003)
# teff = 26000 K (value for the effective temperature for the model. Temperatures are given in K)
# logg = 4.5 log(cm/s2) (value for Log(G) for the model.)
# meta = -0.5  (value for the Metallicity for the model.)
# lh = 1.25  (l/Hp where l is the  mixing length of the convective element and Hp is the pressure scale height)
# vtur = 2 km/s (Microturbulence velocity)
# alpha = 0.4  (Alpha)
#
# column 1: WAVELENGTH (ANGSTROM), Wavelength in Angstrom
# column 2: FLUX (ERG/CM2/S/A), Flux in erg/cm2/s/A
          147.2     4.75088e-13 
            151     1.88836e-12 
          155.2     8.08183e-12 
          158.8     2.66098e-11 
            162     7.38803e-11 
            166     2.51472e-10 
          170.3     8.84224e-10 
          173.4       2.1171e-9 
          176.8      5.33573e-9 
          180.2      1.30252e-8 
          181.7      1.91178e-8 
          186.1      5.70959e-8 
            191      1.82773e-7 
          193.9      3.54523e-7 
          198.4      9.55879e-7 
          201.8      1.96657e-6 
            205      3.79741e-6 
          210.5      1.12559e-5 
          216.2      3.27973e-5 
          219.8      6.26642e-5 
            223     0.000109506 
          226.8     0.000208373 
            230       0.0151212 
            234       0.0341709 
            240       0.0762681 
          246.5        0.174476 
          252.4        0.360882 
          256.8        0.571496 
            260        0.877401 
            264         1.32766 
          268.5         2.15621 
          273.5          3.5759 
          278.5         5.84943 
            284         10.3164 
            290         17.6059 
            296         29.5352 
            301         44.4253 
            308         77.4792 
            318         174.409 
            328         343.565 
            338         687.646 
            348         1280.81 
            357         3159.59 
            366         5532.15 
            375         8464.19 
            385         13878.9 
            395         22636.8 
            405           34330 
            414         50272.8 
            422         66759.7 
            430         90930.5 
            441          134065 
            451          188401 
            460          247420 
            470          338118 
            480          450097 
            490          599441 
            500          786340 
            506      4.43492e+6 
            512      1.96122e+7 
            520      2.23377e+7 
            530      2.72106e+7 
            540      2.83917e+7 
            550      3.84077e+7 
            560        4.379e+7 
            570      5.15791e+7 
            580      5.04945e+7 
            590      6.38947e+7 
            600      7.07205e+7 
            610      8.14094e+7 
            620      8.85745e+7 
            630      9.65506e+7 
            640      9.68036e+7 
            650      9.91088e+7 
            658      1.16979e+8 
            665      1.29037e+8 
            675      1.35205e+8 
            685      1.42374e+8 
            695      1.70409e+8 
            705      1.75788e+8 
            716      1.96692e+8 
            726      2.05406e+8 
            735       2.1678e+8 
            745      2.39779e+8 
            755      2.55233e+8 
            765      2.72203e+8 
            775      2.91455e+8 
            785      3.11073e+8 
            795       3.2289e+8 
            805      3.39009e+8 
            815      3.51465e+8 
            825      3.77147e+8 
            835      3.59912e+8 
            845      4.00781e+8 
            855       4.1631e+8 
            865      4.40037e+8 
            875      4.64165e+8 
            885      4.93071e+8 
            895      5.14424e+8 
            905      5.20092e+8 
            915      6.61822e+8 
            925      3.32499e+9 
            935      8.64574e+9 
            945     2.16582e+10 
            955     2.96765e+10 
            965     3.86319e+10 
            975      9.21152e+9 
            985     3.92368e+10 
            995     3.58721e+10 
           1005     3.91491e+10 
           1015      3.7182e+10 
           1025     1.37869e+10 
           1035     3.03912e+10 
           1045     4.34333e+10 
           1055     4.08673e+10 
           1065      3.3693e+10 
           1075     3.77275e+10 
           1085     3.43408e+10 
           1095     3.77916e+10 
           1105     3.39451e+10 
           1115     3.28329e+10 
           1125     2.76508e+10 
           1135     3.38178e+10 
           1145     2.99539e+10 
           1155     3.11742e+10 
           1165     3.11493e+10 
           1175     2.19809e+10 
           1185     2.93662e+10 
           1195     2.64339e+10 
           1205     1.82786e+10 
           1215     1.01283e+10 
           1225     2.23473e+10 
           1235     2.65104e+10 
           1245     2.62953e+10 
           1255     2.56722e+10 
           1265     2.55905e+10 
           1275     2.60064e+10 
           1285     2.54161e+10 
           1295     1.89838e+10 
           1305     1.97901e+10 
           1315     2.41367e+10 
           1325     2.27159e+10 
           1335     2.20069e+10 
           1345     2.16913e+10 
           1355     2.18094e+10 
           1365     2.01921e+10 
           1375       1.971e+10 
           1385       1.948e+10 
           1395     1.48078e+10 
           1405     1.58845e+10 
           1415     1.77308e+10 
           1425     1.71897e+10 
           1435     1.74749e+10 
           1442     1.78488e+10 
           1447     1.74807e+10 
           1455     1.70037e+10 
           1465     1.61234e+10 
           1475     1.60382e+10 
           1485       1.565e+10 
           1495     1.53539e+10 
           1505     1.41314e+10 
           1512     1.31377e+10 
           1517     1.34438e+10 
           1525     1.36032e+10 
           1535     1.20328e+10 
           1545     1.19629e+10 
           1555     1.14196e+10 
           1565     1.20032e+10 
           1575     1.24446e+10 
           1585      1.2218e+10 
           1595     1.22143e+10 
           1605     1.19688e+10 
           1615     1.16477e+10 
           1625     1.15513e+10 
           1635     1.18541e+10 
           1645     1.16316e+10 
           1655     1.14997e+10 
           1665     1.15017e+10 
           1672     1.11251e+10 
           1677     1.17038e+10 
           1685       1.139e+10 
           1695     1.09266e+10 
           1705     1.05319e+10 
           1715     1.00973e+10 
           1725      9.88761e+9 
           1735     1.00528e+10 
           1745      9.87382e+9 
           1755       9.8602e+9 
           1765       9.5657e+9 
           1775      9.18954e+9 
           1785      9.18606e+9 
           1795      9.32708e+9 
           1805      9.29282e+9 
           1815       8.6269e+9 
           1825      8.79311e+9 
           1835      8.52737e+9 
           1845      7.83722e+9 
           1855      7.85948e+9 
           1865      7.94449e+9 
           1875       8.0774e+9 
           1885      7.35419e+9 
           1895      6.87781e+9 
           1905      7.30512e+9 
           1915      6.97015e+9 
           1925       6.6708e+9 
           1935      6.94785e+9 
           1945      7.05305e+9 
           1955      6.46123e+9 
           1967      6.82421e+9 
           1976      7.09698e+9 
           1984      6.59559e+9 
           1995       6.4638e+9 
           2005      6.56733e+9 
           2015      6.52615e+9 
           2025      6.63705e+9 
           2035      6.17517e+9 
           2045      6.18888e+9 
           2055       5.9552e+9 
           2065      5.98769e+9 
           2074      6.13683e+9 
           2078      5.77611e+9 
           2085      5.89728e+9 
           2095      5.64172e+9 
           2105       5.7923e+9 
           2115      5.75879e+9 
           2125      5.80767e+9 
           2135       5.6805e+9 
           2145       5.4485e+9 
           2155      5.56947e+9 
           2165       5.5146e+9 
           2175      5.41829e+9 
           2185      5.31523e+9 
           2195      5.30718e+9 
           2205      5.24598e+9 
           2215      5.17461e+9 
           2225      5.05401e+9 
           2235      4.97366e+9 
           2245       4.9731e+9 
           2255      4.85197e+9 
           2265      4.84873e+9 
           2275      4.77992e+9 
           2285      4.73709e+9 
           2295      4.49241e+9 
           2305      4.59036e+9 
           2315      4.49104e+9 
           2325      4.43813e+9 
           2335       4.3253e+9 
           2345      4.31829e+9 
           2355      4.29141e+9 
           2365      4.23485e+9 
           2375      4.15893e+9 
           2385      4.11591e+9 
           2395      4.06421e+9 
           2405      4.00508e+9 
           2415      3.94349e+9 
           2425      3.93192e+9 
           2435      3.84054e+9 
           2445       3.8153e+9 
           2455      3.78816e+9 
           2465      3.73733e+9 
           2475      3.68419e+9 
           2485      3.63105e+9 
           2495      3.31938e+9 
           2505      3.52473e+9 
           2513      3.40205e+9 
           2518       3.4671e+9 
           2525      3.44548e+9 
           2535      3.40751e+9 
           2545      3.29534e+9 
           2555      3.31414e+9 
           2565      3.26448e+9 
           2575      3.25871e+9 
           2585      3.22092e+9 
           2595      3.18479e+9 
           2605      3.15961e+9 
           2615      3.12188e+9 
           2625      3.09163e+9 
           2635      3.05476e+9 
           2645      3.02142e+9 
           2655      2.98742e+9 
           2665      2.91757e+9 
           2675      2.90001e+9 
           2685       2.8889e+9 
           2695      2.80764e+9 
           2705      2.79295e+9 
           2715      2.77037e+9 
           2725      2.72475e+9 
           2735      2.71338e+9 
           2745      2.65745e+9 
           2755      2.64047e+9 
           2765      2.59928e+9 
           2775      2.60455e+9 
           2785      2.56621e+9 
           2795      2.47473e+9 
           2805      2.49245e+9 
           2815      2.48889e+9 
           2825      2.43741e+9 
           2835      2.37871e+9 
           2845      2.40284e+9 
           2855      2.36894e+9 
           2865       2.3499e+9 
           2875      2.32342e+9 
           2885      2.29992e+9 
           2895       2.2712e+9 
           2910      2.22654e+9 
           2930      2.18172e+9 
           2950      2.11973e+9 
           2970      2.09281e+9 
           2990      2.04279e+9 
           3010      1.98949e+9 
           3030      1.96122e+9 
           3050      1.92368e+9 
           3070       1.8871e+9 
           3090      1.82464e+9 
           3110      1.80635e+9 
           3130      1.76607e+9 
           3150      1.73309e+9 
           3170      1.69569e+9 
           3190      1.64932e+9 
           3210      1.63147e+9 
           3230        1.595e+9 
           3250      1.56655e+9 
           3270      1.53579e+9 
           3290       1.5036e+9 
           3310       1.4774e+9 
           3330      1.44755e+9 
           3350      1.41853e+9 
           3370      1.39206e+9 
           3390      1.36765e+9 
           3410        1.342e+9 
           3430      1.31086e+9 
           3450      1.28131e+9 
           3470      1.25992e+9 
           3490      1.23571e+9 
           3510      1.21617e+9 
           3530      1.19725e+9 
           3550      1.17525e+9 
           3570      1.16067e+9 
           3590      1.12828e+9 
           3610      1.11191e+9 
           3630      1.09037e+9 
           3640      1.08999e+9 
           3650      1.06768e+9 
           3670      1.05496e+9 
           3690      1.03567e+9 
           3710      9.98446e+8 
           3730      9.58307e+8 
           3750      9.73429e+8 
           3770      9.60265e+8 
           3790      1.00678e+9 
           3810      1.04617e+9 
           3830      9.15596e+8 
           3850      1.07129e+9 
           3870      1.08011e+9 
           3890      8.62772e+8 
           3910      1.06927e+9 
           3930      1.04653e+9 
           3950      1.03091e+9 
           3970      8.02106e+8 
           3990      9.89192e+8 
           4010      9.91205e+8 
           4030      9.29385e+8 
           4050      9.66141e+8 
           4070      9.28195e+8 
           4090      8.51104e+8 
           4110      7.50444e+8 
           4130      8.76662e+8 
           4150      8.74139e+8 
           4170      8.70281e+8 
           4190      8.58065e+8 
           4210       8.4855e+8 
           4230      8.31892e+8 
           4250      8.12171e+8 
           4270      7.90427e+8 
           4290      7.81294e+8 
           4310      7.60451e+8 
           4330       6.8623e+8 
           4350      6.25742e+8 
           4370      7.22649e+8 
           4390      7.03236e+8 
           4410      7.09308e+8 
           4430      7.00941e+8 
           4450      6.90526e+8 
           4470      6.48349e+8 
           4490      6.66468e+8 
           4510      6.61588e+8 
           4530      6.50601e+8 
           4550       6.3958e+8 
           4570      6.28853e+8 
           4590       6.1879e+8 
           4610      6.07955e+8 
           4630      5.99322e+8 
           4650      5.82922e+8 
           4670      5.80203e+8 
           4690      5.74135e+8 
           4710       5.5244e+8 
           4730      5.54918e+8 
           4750      5.45613e+8 
           4770      5.42107e+8 
           4790      5.33304e+8 
           4810       5.2199e+8 
           4830      5.10167e+8 
           4850      4.68972e+8 
           4870      4.19238e+8 
           4890       4.8772e+8 
           4910      4.84677e+8 
           4930      4.66027e+8 
           4950      4.71433e+8 
           4970      4.67112e+8 
           4990      4.59971e+8 
           5010      4.43924e+8 
           5030      4.46386e+8 
           5050      4.35649e+8 
           5070      4.34373e+8 
           5090      4.27694e+8 
           5110       4.2141e+8 
           5130      4.14594e+8 
           5150      4.08923e+8 
           5170       4.0406e+8 
           5190      3.98658e+8 
           5210      3.91953e+8 
           5230      3.87818e+8 
           5250      3.82504e+8 
           5270      3.76975e+8 
           5290      3.72124e+8 
           5310      3.66921e+8 
           5330      3.61799e+8 
           5350      3.56506e+8 
           5370       3.5234e+8 
           5390      3.47396e+8 
           5410       3.4285e+8 
           5430      3.37889e+8 
           5450      3.33371e+8 
           5470      3.28961e+8 
           5490      3.24894e+8 
           5510       3.2074e+8 
           5530      3.16355e+8 
           5550      3.12403e+8 
           5570      3.08209e+8 
           5590      3.04344e+8 
           5610       3.0019e+8 
           5630       2.9654e+8 
           5650      2.91824e+8 
           5670      2.87672e+8 
           5690      2.83815e+8 
           5710       2.8116e+8 
           5730      2.77823e+8 
           5750      2.73684e+8 
           5770      2.70998e+8 
           5790      2.67555e+8 
           5810      2.64165e+8 
           5830      2.60682e+8 
           5850      2.57549e+8 
           5870      2.46088e+8 
           5890      2.49806e+8 
           5910      2.47827e+8 
           5930      2.44711e+8 
           5950      2.41473e+8 
           5970      2.39149e+8 
           5990      2.35844e+8 
           6010      2.33286e+8 
           6030      2.30332e+8 
           6050      2.27628e+8 
           6070      2.24965e+8 
           6090       2.2223e+8 
           6110      2.19597e+8 
           6130      2.17013e+8 
           6150      2.13931e+8 
           6170      2.11675e+8 
           6190      2.09336e+8 
           6210      2.06896e+8 
           6230      2.04463e+8 
           6250      2.01893e+8 
           6270      1.99611e+8 
           6290      1.97334e+8 
           6310      1.94931e+8 
           6330      1.92798e+8 
           6350      1.90053e+8 
           6370      1.88166e+8 
           6390      1.86131e+8 
           6410      1.83982e+8 
           6430      1.81991e+8 
           6450      1.79868e+8 
           6470      1.77561e+8 
           6490      1.75628e+8 
           6510       1.7351e+8 
           6530      1.70682e+8 
           6550      1.62362e+8 
           6570      1.43666e+8 
           6590      1.63268e+8 
           6610      1.63704e+8 
           6630      1.62435e+8 
           6650      1.60642e+8 
           6670       1.5719e+8 
           6690       1.5552e+8 
           6710      1.55523e+8 
           6730      1.53652e+8 
           6750       1.5218e+8 
           6770      1.50518e+8 
           6790      1.48415e+8 
           6810      1.47195e+8 
           6830      1.45551e+8 
           6850      1.44092e+8 
           6870      1.42544e+8 
           6890      1.40948e+8 
           6910      1.39384e+8 
           6930         1.38e+8 
           6950      1.36567e+8 
           6970      1.35125e+8 
           6990      1.33682e+8 
           7010      1.32261e+8 
           7030       1.3087e+8 
           7050      1.29507e+8 
           7070      1.26001e+8 
           7090       1.2682e+8 
           7110      1.25459e+8 
           7130      1.24164e+8 
           7150      1.22888e+8 
           7170      1.21617e+8 
           7190      1.20395e+8 
           7210      1.19155e+8 
           7230      1.16854e+8 
           7250      1.16619e+8 
           7270      1.15536e+8 
           7290      1.13379e+8 
           7310      1.13182e+8 
           7330      1.12047e+8 
           7350      1.10922e+8 
           7370      1.09814e+8 
           7390       1.0871e+8 
           7410      1.07623e+8 
           7430      1.06505e+8 
           7450      1.05486e+8 
           7470      1.04213e+8 
           7490      1.03382e+8 
           7510      1.02345e+8 
           7530      1.01343e+8 
           7550      1.00377e+8 
           7570      9.94007e+7 
           7590      9.84198e+7 
           7610      9.74023e+7 
           7630      9.65105e+7 
           7650      9.55688e+7 
           7670      9.46484e+7 
           7690      9.37299e+7 
           7710      9.28323e+7 
           7730      9.19175e+7 
           7750      9.10548e+7 
           7770      8.98504e+7 
           7790      8.93213e+7 
           7810      8.84197e+7 
           7830      8.76306e+7 
           7850      8.68056e+7 
           7870      8.59453e+7 
           7890      8.50079e+7 
           7910       8.4434e+7 
           7930      8.36193e+7 
           7950      8.27401e+7 
           7970      8.19043e+7 
           7990      8.10404e+7 
           8010      8.03661e+7 
           8030      7.96099e+7 
           8050      7.88718e+7 
           8070      7.81921e+7 
           8090       7.7357e+7 
           8110      7.65635e+7 
           8130      7.60847e+7 
           8150      7.53204e+7 
           8170      7.47432e+7 
           8190      7.38619e+7 
           8210      7.30442e+7 
           8230      7.24838e+7 
           8250      7.19778e+7 
           8270      7.08369e+7 
           8290      7.06271e+7 
           8310      7.00311e+7 
           8330      6.93858e+7 
           8350      6.84216e+7 
           8370      6.80143e+7 
           8390      6.75406e+7 
           8410      6.69321e+7 
           8430      6.62915e+7 
           8450      6.51392e+7 
           8470       6.5105e+7 
           8490      6.43596e+7 
           8510       6.3839e+7 
           8530      6.32396e+7 
           8550      6.22793e+7 
           8570      6.26507e+7 
