# Kurucz ODFNEW /NOVER (2003)
# teff = 20000 K (value for the effective temperature for the model. Temperatures are given in K)
# logg = 3 log(cm/s2) (value for Log(G) for the model.)
# meta = -4  (value for the Metallicity for the model.)
# lh = 1.25  (l/Hp where l is the  mixing length of the convective element and Hp is the pressure scale height)
# vtur = 2 km/s (Microturbulence velocity)
# alpha = 0.4  (Alpha)
#
# column 1: WAVELENGTH (ANGSTROM), Wavelength in Angstrom
# column 2: FLUX (ERG/CM2/S/A), Flux in erg/cm2/s/A
          147.2      2.7942e-20 
            151     2.01161e-19 
          155.2     1.58749e-18 
          158.8     8.52627e-18 
            162     3.56145e-17 
            166     1.96308e-16 
          170.3     1.12126e-15 
          173.4     3.72563e-15 
          176.8     1.32236e-14 
          180.2     4.46675e-14 
          181.7     7.52822e-14 
          186.1     3.30954e-13 
            191     1.58371e-12 
          193.9     3.84784e-12 
          198.4     1.44624e-11 
          201.8     3.77551e-11 
            205     9.03702e-11 
          210.5     3.79627e-10 
          216.2       1.5502e-9 
          219.8       3.6242e-9 
            223      7.52618e-9 
          226.8       1.7428e-8 
            230      3.72741e-8 
            234      8.62289e-8 
            240      2.80454e-7 
          246.5      9.40611e-7 
          252.4      2.66886e-6 
          256.8      5.60688e-6 
            260      9.49403e-6 
            264      1.79527e-5 
          268.5      3.58872e-5 
          273.5      7.53235e-5 
          278.5     0.000153757 
            284     0.000326882 
            290     0.000718966 
            296      0.00152844 
            301      0.00279687 
            308      0.00628571 
            318        0.018759 
            328       0.0520951 
            338        0.135593 
            348        0.332699 
            357        0.712496 
            366         1.46554 
            375         2.90346 
            385          5.9593 
            395         11.7555 
            405         22.3566 
            414         38.7311 
            422         61.7778 
            430         96.6722 
            441         173.781 
            451         288.158 
            460         444.918 
            470         705.434 
            480         1094.84 
            490         1665.55 
            500         2486.41 
            506         14352.5 
            512           42856 
            520         56204.3 
            530         89071.2 
            540         96887.7 
            550          149309 
            560          188497 
            570          235372 
            580          235512 
            590          323764 
            600          439832 
            610          535855 
            620          645526 
            630          772044 
            640          916429 
            650      1.08364e+6 
            658      1.23304e+6 
            665      1.37624e+6 
            675      1.60118e+6 
            685      1.85095e+6 
            695      2.14249e+6 
            705       2.4584e+6 
            716      2.84559e+6 
            726      3.23505e+6 
            735      3.62326e+6 
            745      4.09089e+6 
            755      4.60105e+6 
            765      5.15548e+6 
            775      5.75809e+6 
            785      6.40879e+6 
            795      7.10989e+6 
            805       7.8645e+6 
            815      8.67148e+6 
            825      9.53634e+6 
            835      1.03905e+7 
            845      1.14397e+7 
            855      1.24775e+7 
            865      1.35849e+7 
            875      1.47503e+7 
            885      1.59811e+7 
            895      1.72749e+7 
            905      1.85815e+7 
            915      4.54564e+7 
            925      8.50126e+8 
            935      2.66629e+9 
            945      6.36963e+9 
            955      7.65913e+9 
            965       9.3929e+9 
            975      5.03297e+9 
            985      9.86259e+9 
            995       9.6642e+9 
           1005      9.78577e+9 
           1015      9.26625e+9 
           1025      4.23551e+9 
           1035      8.84126e+9 
           1045      9.43941e+9 
           1055      9.33848e+9 
           1065      9.07924e+9 
           1075      9.04705e+9 
           1085      8.74568e+9 
           1095      8.89522e+9 
           1105      8.63529e+9 
           1115      8.54927e+9 
           1125      8.36492e+9 
           1135       8.4103e+9 
           1145        8.283e+9 
           1155      8.20374e+9 
           1165      8.09459e+9 
           1175      7.60594e+9 
           1185      7.84513e+9 
           1195      7.52786e+9 
           1205      6.90814e+9 
           1215      2.63313e+9 
           1225      6.68768e+9 
           1235       7.2272e+9 
           1245       7.1993e+9 
           1255      7.12641e+9 
           1265      7.00759e+9 
           1275      6.94932e+9 
           1285      6.85413e+9 
           1295      6.61816e+9 
           1305      6.56734e+9 
           1315      6.57568e+9 
           1325      6.47207e+9 
           1335      6.28564e+9 
           1345      6.30706e+9 
           1355      6.22416e+9 
           1365      6.13673e+9 
           1375      6.05318e+9 
           1385      5.97256e+9 
           1395      5.83265e+9 
           1405      5.76461e+9 
           1415      5.72801e+9 
           1425      5.64994e+9 
           1435      5.57275e+9 
           1442      5.51932e+9 
           1447      5.48107e+9 
           1455      5.42007e+9 
           1465      5.34598e+9 
           1475      5.27304e+9 
           1485      5.20056e+9 
           1495      5.12886e+9 
           1505      5.05627e+9 
           1512      5.00989e+9 
           1517      4.97594e+9 
           1525      4.92111e+9 
           1535      4.84953e+9 
           1545      4.78017e+9 
           1555      4.71561e+9 
           1565      4.66385e+9 
           1575      4.60238e+9 
           1585      4.54134e+9 
           1595      4.48102e+9 
           1605      4.41702e+9 
           1615      4.35744e+9 
           1625      4.30297e+9 
           1635      4.24458e+9 
           1645      4.15457e+9 
           1655      4.13298e+9 
           1665      4.07832e+9 
           1672      4.03643e+9 
           1677        4.014e+9 
           1685      3.97147e+9 
           1695      3.91858e+9 
           1705      3.86679e+9 
           1715      3.81529e+9 
           1725        3.766e+9 
           1735       3.7177e+9 
           1745       3.6699e+9 
           1755      3.62379e+9 
           1765      3.57341e+9 
           1775      3.53015e+9 
           1785      3.48586e+9 
           1795      3.44198e+9 
           1805      3.39852e+9 
           1815      3.35511e+9 
           1825      3.31279e+9 
           1835      3.27107e+9 
           1845      3.22763e+9 
           1855      3.16599e+9 
           1865      3.13224e+9 
           1875      3.10781e+9 
           1885      3.06496e+9 
           1895      3.01728e+9 
           1905      2.99129e+9 
           1915      2.94492e+9 
           1925      2.90993e+9 
           1935      2.87833e+9 
           1945      2.84612e+9 
           1955      2.80643e+9 
           1967      2.77044e+9 
           1976      2.74131e+9 
           1984      2.71273e+9 
           1995      2.67306e+9 
           2005      2.64674e+9 
           2015      2.61608e+9 
           2025      2.58535e+9 
           2035      2.55427e+9 
           2045      2.52413e+9 
           2055      2.49016e+9 
           2065      2.46098e+9 
           2074      2.43984e+9 
           2078      2.41851e+9 
           2085      2.40706e+9 
           2095      2.37684e+9 
           2105      2.35083e+9 
           2115      2.32376e+9 
           2125      2.29694e+9 
           2135      2.27002e+9 
           2145       2.2435e+9 
           2155      2.21769e+9 
           2165      2.19219e+9 
           2175      2.16698e+9 
           2185       2.1423e+9 
           2195      2.11806e+9 
           2205      2.09408e+9 
           2215      2.07053e+9 
           2225      2.04717e+9 
           2235      2.02407e+9 
           2245      2.00137e+9 
           2255      1.97862e+9 
           2265      1.95656e+9 
           2275      1.93466e+9 
           2285      1.91315e+9 
           2295      1.88965e+9 
           2305      1.87095e+9 
           2315      1.85032e+9 
           2325      1.83005e+9 
           2335      1.80984e+9 
           2345      1.78999e+9 
           2355      1.77061e+9 
           2365      1.75115e+9 
           2375       1.7321e+9 
           2385       1.7131e+9 
           2395      1.69462e+9 
           2405      1.67639e+9 
           2415      1.65827e+9 
           2425      1.64071e+9 
           2435      1.62333e+9 
           2445      1.60604e+9 
           2455      1.58898e+9 
           2465      1.57209e+9 
           2475      1.55553e+9 
           2485      1.53914e+9 
           2495      1.51732e+9 
           2505      1.50709e+9 
           2513      1.49423e+9 
           2518      1.48658e+9 
           2525      1.47581e+9 
           2535      1.46055e+9 
           2545      1.44532e+9 
           2555      1.43068e+9 
           2565      1.41599e+9 
           2575      1.40155e+9 
           2585      1.38718e+9 
           2595      1.37304e+9 
           2605      1.37145e+9 
           2615      1.35718e+9 
           2625      1.34134e+9 
           2635      1.32364e+9 
           2645      1.31203e+9 
           2655      1.29746e+9 
           2665      1.28345e+9 
           2675      1.26982e+9 
           2685      1.26403e+9 
           2695      1.24352e+9 
           2705      1.23882e+9 
           2715      1.22649e+9 
           2725      1.20584e+9 
           2735      1.20222e+9 
           2745      1.19028e+9 
           2755      1.17858e+9 
           2765      1.15834e+9 
           2775      1.15568e+9 
           2785      1.14444e+9 
           2795      1.13197e+9 
           2805        1.122e+9 
           2815      1.11152e+9 
           2825      1.09144e+9 
           2835      1.08816e+9 
           2845      1.07978e+9 
           2855      1.06936e+9 
           2865      1.05911e+9 
           2875      1.04897e+9 
           2885        1.039e+9 
           2895      1.02909e+9 
           2910      1.01451e+9 
           2930      9.95437e+8 
           2950      9.71293e+8 
           2970      9.58768e+8 
           2990      9.41097e+8 
           3010      9.23809e+8 
           3030      9.06934e+8 
           3050      8.90462e+8 
           3070      8.74341e+8 
           3090      8.58562e+8 
           3110      8.43192e+8 
           3130      8.29221e+8 
           3150       8.1432e+8 
           3170      7.99541e+8 
           3190      7.79884e+8 
           3210      7.71732e+8 
           3230       7.5816e+8 
           3250      7.44899e+8 
           3270       7.3282e+8 
           3290      7.19274e+8 
           3310       7.0796e+8 
           3330      6.95914e+8 
           3350       6.8293e+8 
           3370      6.72592e+8 
           3390      6.61303e+8 
           3410      6.50232e+8 
           3430      6.36683e+8 
           3450      6.24068e+8 
           3470      6.15644e+8 
           3490      6.06195e+8 
           3510      5.99429e+8 
           3530      5.89935e+8 
           3550      5.80527e+8 
           3570      5.73242e+8 
           3590      5.61641e+8 
           3610      5.53122e+8 
           3630      5.43727e+8 
           3640      5.42137e+8 
           3650      5.37163e+8 
           3670      5.29954e+8 
           3690      5.10778e+8 
           3710       5.1544e+8 
           3730      5.22356e+8 
           3750       5.8672e+8 
           3770      5.89736e+8 
           3790      6.06136e+8 
           3810      6.29972e+8 
           3830      5.59409e+8 
           3850       6.3779e+8 
           3870      6.29253e+8 
           3890      5.37008e+8 
           3910      6.17923e+8 
           3930      6.05844e+8 
           3950      5.98469e+8 
           3970       4.9921e+8 
           3990      5.77893e+8 
           4010      5.68394e+8 
           4030      5.45091e+8 
           4050      5.54374e+8 
           4070      5.45164e+8 
           4090      5.20815e+8 
           4110      4.61587e+8 
           4130      5.14817e+8 
           4150      5.07833e+8 
           4170      5.02475e+8 
           4190      4.96059e+8 
           4210      4.88381e+8 
           4230      4.80826e+8 
           4250      4.73391e+8 
           4270      4.66074e+8 
           4290      4.58934e+8 
           4310       4.5144e+8 
           4330      4.25257e+8 
           4350      3.89581e+8 
           4370      4.30902e+8 
           4390      4.18091e+8 
           4410      4.18859e+8 
           4430       4.1092e+8 
           4450      4.06512e+8 
           4470      3.89345e+8 
           4490      3.94611e+8 
           4510      3.88841e+8 
           4530      3.83175e+8 
           4550      3.77594e+8 
           4570      3.72113e+8 
           4590       3.6675e+8 
           4610      3.61447e+8 
           4630      3.56222e+8 
           4650      3.51091e+8 
           4670       3.4607e+8 
           4690      3.41086e+8 
           4710      3.32677e+8 
           4730      3.31519e+8 
           4750       3.2683e+8 
           4770      3.22257e+8 
           4790      3.17733e+8 
           4810      3.13305e+8 
           4830      3.08535e+8 
           4850      2.93952e+8 
           4870      2.64492e+8 
           4890      2.95481e+8 
           4910       2.9225e+8 
           4930      2.83668e+8 
           4950      2.84379e+8 
           4970      2.80508e+8 
           4990      2.76706e+8 
           5010      2.70284e+8 
           5030      2.69315e+8 
           5050      2.64305e+8 
           5070      2.62165e+8 
           5090      2.58684e+8 
           5110      2.55249e+8 
           5130      2.51874e+8 
           5150      2.48544e+8 
           5170      2.45286e+8 
           5190       2.4207e+8 
           5210      2.38911e+8 
           5230      2.35806e+8 
           5250      2.32756e+8 
           5270      2.29744e+8 
           5290      2.26799e+8 
           5310      2.23878e+8 
           5330       2.2102e+8 
           5350      2.18187e+8 
           5370      2.15415e+8 
           5390      2.12678e+8 
           5410      2.09988e+8 
           5430      2.07346e+8 
           5450      2.04736e+8 
           5470      2.02171e+8 
           5490      1.99651e+8 
           5510      1.97174e+8 
           5530      1.94728e+8 
           5550      1.92324e+8 
           5570      1.89962e+8 
           5590      1.87629e+8 
           5610      1.85336e+8 
           5630       1.8307e+8 
           5650      1.80844e+8 
           5670      1.78645e+8 
           5690      1.76472e+8 
           5710      1.74348e+8 
           5730       1.7225e+8 
           5750      1.70176e+8 
           5770      1.68139e+8 
           5790      1.66136e+8 
           5810      1.64157e+8 
           5830      1.62213e+8 
           5850      1.60291e+8 
           5870      1.54619e+8 
           5890      1.56514e+8 
           5910      1.54712e+8 
           5930       1.5291e+8 
           5950      1.51128e+8 
           5970      1.49377e+8 
           5990      1.47646e+8 
           6010      1.45946e+8 
           6030      1.44264e+8 
           6050      1.42602e+8 
           6070      1.40968e+8 
           6090      1.39364e+8 
           6110      1.37777e+8 
           6130      1.36207e+8 
           6150      1.34665e+8 
           6170      1.33151e+8 
           6190      1.31652e+8 
           6210      1.30171e+8 
           6230      1.28715e+8 
           6250      1.27285e+8 
           6270      1.25871e+8 
           6290      1.24472e+8 
           6310      1.23097e+8 
           6330      1.21738e+8 
           6350      1.20402e+8 
           6370      1.19081e+8 
           6390      1.17783e+8 
           6410      1.16499e+8 
           6430      1.15229e+8 
           6450      1.13981e+8 
           6470      1.12746e+8 
           6490      1.11534e+8 
           6510      1.10334e+8 
           6530      1.09014e+8 
           6550      1.05847e+8 
           6570      9.50619e+7 
           6590      1.05277e+8 
           6610      1.04563e+8 
           6630      1.03462e+8 
           6650       1.0244e+8 
           6670      1.00616e+8 
           6690      9.95777e+7 
           6710      9.92527e+7 
           6730      9.82145e+7 
           6750      9.71869e+7 
           6770      9.61779e+7 
           6790       9.5179e+7 
           6810      9.41984e+7 
           6830      9.32276e+7 
           6850      9.22665e+7 
           6870       9.1315e+7 
           6890      9.03809e+7 
           6910      8.94561e+7 
           6930      8.85404e+7 
           6950      8.76494e+7 
           6970      8.67594e+7 
           6990      8.58781e+7 
           7010      8.50208e+7 
           7030      8.41642e+7 
           7050      8.33159e+7 
           7070      8.12549e+7 
           7090       8.1659e+7 
           7110        8.085e+7 
           7130      8.00488e+7 
           7150      7.92552e+7 
           7170      7.84546e+7 
           7190      7.76981e+7 
           7210      7.69343e+7 
           7230      7.61777e+7 
           7250      7.54355e+7 
           7270      7.47002e+7 
           7290      7.34119e+7 
           7310      7.32364e+7 
           7330      7.25428e+7 
           7350      7.18417e+7 
           7370      7.11471e+7 
           7390      7.04659e+7 
           7410       6.9791e+7 
           7430      6.91223e+7 
           7450      6.84734e+7 
           7470       6.7817e+7 
           7490      6.71732e+7 
           7510      6.65133e+7 
           7530        6.591e+7 
           7550      6.52883e+7 
           7570      6.46736e+7 
           7590      6.40657e+7 
           7610       6.3466e+7 
           7630      6.28723e+7 
           7650      6.22858e+7 
           7670      6.17078e+7 
           7690      6.11312e+7 
           7710      6.05634e+7 
           7730      6.00109e+7 
           7750      5.94506e+7 
           7770      5.89104e+7 
           7790      5.83717e+7 
           7810      5.77915e+7 
           7830      5.73105e+7 
           7850      5.68538e+7 
           7870      5.63377e+7 
           7890      5.57934e+7 
           7910      5.53015e+7 
           7930      5.47006e+7 
           7950      5.41909e+7 
           7970      5.36689e+7 
           7990        5.322e+7 
           8010      5.27321e+7 
           8030      5.22851e+7 
           8050      5.18524e+7 
           8070      5.14268e+7 
           8090      5.08683e+7 
           8110      5.04596e+7 
           8130      5.00977e+7 
           8150      4.95475e+7 
           8170       4.9224e+7 
           8190      4.87491e+7 
           8210      4.82184e+7 
           8230      4.79532e+7 
           8250      4.75372e+7 
           8270      4.68856e+7 
           8290      4.66476e+7 
           8310      4.62608e+7 
           8330      4.58511e+7 
           8350      4.52454e+7 
           8370      4.48853e+7 
           8390      4.45463e+7 
           8410      4.41115e+7 
           8430      4.37164e+7 
           8450      4.31894e+7 
           8470      4.25467e+7 
           8490      4.29658e+7 
           8510      4.15921e+7 
           8530      4.25524e+7 
           8550      4.01999e+7 
           8570      4.25977e+7 
           8590      4.02558e+7 
