# Kurucz ODFNEW /NOVER (2003)
# teff = 30000 K (value for the effective temperature for the model. Temperatures are given in K)
# logg = 4.5 log(cm/s2) (value for Log(G) for the model.)
# meta = -0.5  (value for the Metallicity for the model.)
# lh = 1.25  (l/Hp where l is the  mixing length of the convective element and Hp is the pressure scale height)
# vtur = 2 km/s (Microturbulence velocity)
# alpha = 0.4  (Alpha)
#
# column 1: WAVELENGTH (ANGSTROM), Wavelength in Angstrom
# column 2: FLUX (ERG/CM2/S/A), Flux in erg/cm2/s/A
          147.2      3.65379e-9 
            151      1.18549e-8 
          155.2       4.0962e-8 
          158.8      1.13041e-7 
            162      2.69398e-7 
            166      7.63794e-7 
          170.3      2.22267e-6 
          173.4      4.66258e-6 
          176.8       1.0203e-5 
          180.2      2.17044e-5 
          181.7      3.00141e-5 
          186.1      7.55434e-5 
            191     0.000201206 
          193.9     0.000351096 
          198.4     0.000806767 
          201.8      0.00147608 
            205      0.00255898 
          210.5      0.00633983 
          216.2       0.0154488 
          219.8       0.0264768 
            223       0.0421032 
          226.8       0.0723002 
            230         14.2673 
            234         31.7828 
            240         59.5664 
          246.5         115.817 
          252.4         207.389 
          256.8         290.667 
            260         439.163 
            264         601.504 
          268.5          915.64 
          273.5         1383.83 
          278.5         1999.05 
            284         3593.73 
            290          5507.6 
            296          8205.7 
            301         11147.5 
            308         18886.9 
            318         38889.7 
            328           64999 
            338          115287 
            348          189323 
            357          516370 
            366          937324 
            375      1.26844e+6 
            385        1.929e+6 
            395      3.21859e+6 
            405      4.31565e+6 
            414      5.95638e+6 
            422      7.12804e+6 
            430      8.97284e+6 
            441      1.18886e+7 
            451      1.51647e+7 
            460      1.80709e+7 
            470      2.28221e+7 
            480      2.79571e+7 
            490      3.41912e+7 
            500      4.20701e+7 
            506       1.4662e+8 
            512      8.05945e+8 
            520       7.9265e+8 
            530      8.15943e+8 
            540      7.66236e+8 
            550      9.70231e+8 
            560       1.1007e+9 
            570      1.18434e+9 
            580      1.09691e+9 
            590      1.27164e+9 
            600       1.2341e+9 
            610      1.38816e+9 
            620      1.51691e+9 
            630      1.55371e+9 
            640       1.5071e+9 
            650      1.60473e+9 
            658      1.61415e+9 
            665      1.72747e+9 
            675      1.75629e+9 
            685      1.68724e+9 
            695      2.01973e+9 
            705      1.89394e+9 
            716       2.1765e+9 
            726      2.16999e+9 
            735      2.22729e+9 
            745      2.36019e+9 
            755      2.40078e+9 
            765      2.50071e+9 
            775      2.58958e+9 
            785      2.70645e+9 
            795      2.72969e+9 
            805      2.75606e+9 
            815      2.77721e+9 
            825      2.92433e+9 
            835      2.60886e+9 
            845      2.94815e+9 
            855      2.98333e+9 
            865      3.08719e+9 
            875        3.171e+9 
            885      3.28656e+9 
            895      3.36229e+9 
            905      3.33881e+9 
            915      3.79818e+9 
            925     1.63064e+10 
            935     3.18965e+10 
            945     5.70984e+10 
            955     6.65868e+10 
            965     8.14283e+10 
            975     2.91706e+10 
            985     7.43111e+10 
            995      6.7079e+10 
           1005     7.07749e+10 
           1015     7.08609e+10 
           1025     4.04654e+10 
           1035     6.40763e+10 
           1045      7.7759e+10 
           1055     7.37804e+10 
           1065     6.26064e+10 
           1075     6.68195e+10 
           1085     6.12444e+10 
           1095     6.64463e+10 
           1105     6.21606e+10 
           1115     6.06506e+10 
           1125     4.97127e+10 
           1135     5.91841e+10 
           1145     5.40716e+10 
           1155     5.40458e+10 
           1165      5.3605e+10 
           1175     3.83872e+10 
           1185     4.94874e+10 
           1195     4.69453e+10 
           1205     4.06171e+10 
           1215     2.64972e+10 
           1225      4.2751e+10 
           1235     4.61271e+10 
           1245     4.46818e+10 
           1255     4.42596e+10 
           1265     4.42618e+10 
           1275     4.44949e+10 
           1285     4.37686e+10 
           1295     3.75803e+10 
           1305     3.87386e+10 
           1315       4.162e+10 
           1325     3.96187e+10 
           1335     3.84672e+10 
           1345      3.7737e+10 
           1355     3.77832e+10 
           1365     3.55878e+10 
           1375     3.48409e+10 
           1385     3.39999e+10 
           1395     2.57261e+10 
           1405     2.72429e+10 
           1415     3.14483e+10 
           1425     2.94612e+10 
           1435      3.0318e+10 
           1442     3.06567e+10 
           1447     3.01591e+10 
           1455     2.91237e+10 
           1465     2.81096e+10 
           1475     2.79046e+10 
           1485     2.75386e+10 
           1495     2.67635e+10 
           1505      2.5263e+10 
           1512     2.42865e+10 
           1517     2.44655e+10 
           1525     2.41787e+10 
           1535     2.14344e+10 
           1545     2.04682e+10 
           1555     1.98007e+10 
           1565     2.08328e+10 
           1575     2.15061e+10 
           1585     2.12896e+10 
           1595     2.11938e+10 
           1605     2.02768e+10 
           1615     1.95383e+10 
           1625     1.96138e+10 
           1635     1.98355e+10 
           1645      1.9389e+10 
           1655     1.95268e+10 
           1665     1.91883e+10 
           1672     1.84323e+10 
           1677     1.98764e+10 
           1685     1.91906e+10 
           1695     1.85098e+10 
           1705      1.7994e+10 
           1715     1.73749e+10 
           1725     1.68157e+10 
           1735     1.71455e+10 
           1745     1.68828e+10 
           1755      1.6686e+10 
           1765     1.63113e+10 
           1775     1.57645e+10 
           1785     1.57563e+10 
           1795     1.56771e+10 
           1805     1.56322e+10 
           1815     1.48863e+10 
           1825     1.48741e+10 
           1835     1.46128e+10 
           1845     1.35363e+10 
           1855     1.35933e+10 
           1865     1.36829e+10 
           1875     1.36049e+10 
           1885     1.26509e+10 
           1895     1.20162e+10 
           1905     1.25444e+10 
           1915     1.20388e+10 
           1925      1.1485e+10 
           1935     1.19542e+10 
           1945     1.21064e+10 
           1955     1.11214e+10 
           1967     1.15441e+10 
           1976     1.19177e+10 
           1984     1.12217e+10 
           1995     1.09573e+10 
           2005     1.10666e+10 
           2015     1.10544e+10 
           2025     1.10824e+10 
           2035     1.04925e+10 
           2045     1.04136e+10 
           2055      9.46858e+9 
           2065      9.33734e+9 
           2074      9.57615e+9 
           2078       9.2296e+9 
           2085      9.40172e+9 
           2095      9.33192e+9 
           2105      9.63116e+9 
           2115      9.61525e+9 
           2125      9.55334e+9 
           2135       9.3938e+9 
           2145      9.13202e+9 
           2155      9.17888e+9 
           2165      9.00024e+9 
           2175      8.91369e+9 
           2185      8.74549e+9 
           2195      8.73088e+9 
           2205      8.60538e+9 
           2215       8.4311e+9 
           2225      8.32201e+9 
           2235      8.17606e+9 
           2245      8.11683e+9 
           2255      7.91758e+9 
           2265      7.88821e+9 
           2275      7.78116e+9 
           2285      7.63889e+9 
           2295      7.17335e+9 
           2305      7.37927e+9 
           2315      7.29175e+9 
           2325      7.20686e+9 
           2335      7.07479e+9 
           2345      7.03924e+9 
           2355      6.94087e+9 
           2365      6.85131e+9 
           2375      6.72695e+9 
           2385      6.58979e+9 
           2395      6.52331e+9 
           2405      6.46358e+9 
           2415      6.35209e+9 
           2425      6.29321e+9 
           2435      6.16367e+9 
           2445      6.10673e+9 
           2455      6.03652e+9 
           2465      5.96625e+9 
           2475      5.87041e+9 
           2485      5.76939e+9 
           2495      4.88621e+9 
           2505      5.56453e+9 
           2513      5.39338e+9 
           2518      5.45172e+9 
           2525       5.4941e+9 
           2535      5.43817e+9 
           2545      5.27722e+9 
           2555      5.25319e+9 
           2565      5.19169e+9 
           2575      5.15054e+9 
           2585      5.09058e+9 
           2595      5.02435e+9 
           2605       4.9834e+9 
           2615      4.91181e+9 
           2625      4.85707e+9 
           2635       4.7926e+9 
           2645      4.72579e+9 
           2655      4.66317e+9 
           2665      4.56453e+9 
           2675      4.51573e+9 
           2685       4.4972e+9 
           2695      4.38002e+9 
           2705      4.34697e+9 
           2715      4.30525e+9 
           2725      4.23464e+9 
           2735      4.18646e+9 
           2745      4.15416e+9 
           2755      4.10941e+9 
           2765      4.03175e+9 
           2775      4.02897e+9 
           2785      3.96618e+9 
           2795      3.83952e+9 
           2805      3.85208e+9 
           2815      3.83807e+9 
           2825      3.76237e+9 
           2835      3.68919e+9 
           2845      3.70361e+9 
           2855      3.64328e+9 
           2865      3.60495e+9 
           2875       3.5615e+9 
           2885      3.52499e+9 
           2895      3.47978e+9 
           2910      3.40441e+9 
           2930      3.34225e+9 
           2950      3.24037e+9 
           2970      3.18983e+9 
           2990      3.11148e+9 
           3010       3.0195e+9 
           3030      2.96385e+9 
           3050      2.91101e+9 
           3070      2.85746e+9 
           3090      2.75458e+9 
           3110      2.72873e+9 
           3130       2.6584e+9 
           3150      2.60721e+9 
           3170      2.54993e+9 
           3190      2.48322e+9 
           3210      2.44492e+9 
           3230       2.3879e+9 
           3250       2.3464e+9 
           3270      2.29316e+9 
           3290      2.24529e+9 
           3310      2.20218e+9 
           3330      2.15236e+9 
           3350      2.10915e+9 
           3370      2.06598e+9 
           3390      2.03105e+9 
           3410      1.99051e+9 
           3430      1.94662e+9 
           3450      1.90041e+9 
           3470      1.86523e+9 
           3490      1.82762e+9 
           3510      1.79639e+9 
           3530      1.76708e+9 
           3550      1.73145e+9 
           3570      1.70572e+9 
           3590      1.65894e+9 
           3610      1.63517e+9 
           3630      1.59899e+9 
           3640      1.59556e+9 
           3650      1.55903e+9 
           3670      1.53876e+9 
           3690      1.51009e+9 
           3710      1.45507e+9 
           3730      1.40476e+9 
           3750       1.4068e+9 
           3770      1.37517e+9 
           3790      1.42371e+9 
           3810      1.46611e+9 
           3830      1.30204e+9 
           3850      1.48229e+9 
           3870      1.47405e+9 
           3890      1.22613e+9 
           3910      1.45854e+9 
           3930      1.42656e+9 
           3950      1.39657e+9 
           3970      1.13572e+9 
           3990       1.3499e+9 
           4010      1.34181e+9 
           4030      1.27276e+9 
           4050      1.30515e+9 
           4070      1.25012e+9 
           4090      1.16153e+9 
           4110       1.0434e+9 
           4130      1.18824e+9 
           4150      1.18025e+9 
           4170      1.17411e+9 
           4190       1.1528e+9 
           4210      1.13877e+9 
           4230      1.11777e+9 
           4250      1.08859e+9 
           4270      1.06195e+9 
           4290       1.0454e+9 
           4310      1.01823e+9 
           4330      9.38061e+8 
           4350      8.61724e+8 
           4370      9.70206e+8 
           4390      9.47742e+8 
           4410      9.48231e+8 
           4430      9.39074e+8 
           4450      9.22033e+8 
           4470      8.75263e+8 
           4490       8.9228e+8 
           4510      8.82643e+8 
           4530      8.69524e+8 
           4550       8.5298e+8 
           4570      8.39271e+8 
           4590      8.24266e+8 
           4610       8.0956e+8 
           4630      7.97379e+8 
           4650      7.69471e+8 
           4670      7.71151e+8 
           4690      7.60255e+8 
           4710      7.35489e+8 
           4730      7.40951e+8 
           4750      7.27762e+8 
           4770      7.21142e+8 
           4790      7.09599e+8 
           4810      6.96009e+8 
           4830      6.79905e+8 
           4850      6.34766e+8 
           4870      5.73237e+8 
           4890      6.49978e+8 
           4910      6.43835e+8 
           4930      6.21773e+8 
           4950      6.24077e+8 
           4970      6.19308e+8 
           4990       6.0986e+8 
           5010      5.90502e+8 
           5030      5.91072e+8 
           5050      5.79545e+8 
           5070       5.7504e+8 
           5090      5.65906e+8 
           5110      5.57633e+8 
           5130      5.49171e+8 
           5150      5.41405e+8 
           5170      5.33602e+8 
           5190      5.26728e+8 
           5210      5.19014e+8 
           5230      5.12064e+8 
           5250      5.04807e+8 
           5270      4.97415e+8 
           5290      4.90821e+8 
           5310       4.8391e+8 
           5330      4.77209e+8 
           5350      4.70436e+8 
           5370      4.64208e+8 
           5390      4.57398e+8 
           5410      4.50882e+8 
           5430      4.45254e+8 
           5450      4.38986e+8 
           5470      4.33075e+8 
           5490      4.27338e+8 
           5510      4.21747e+8 
           5530      4.15905e+8 
           5550      4.10528e+8 
           5570      4.04999e+8 
           5590      3.99574e+8 
           5610      3.94313e+8 
           5630       3.8921e+8 
           5650      3.83734e+8 
           5670      3.78195e+8 
           5690      3.72179e+8 
           5710      3.68444e+8 
           5730      3.64098e+8 
           5750       3.5839e+8 
           5770      3.54903e+8 
           5790      3.50208e+8 
           5810      3.45725e+8 
           5830       3.4104e+8 
           5850      3.36907e+8 
           5870      3.23266e+8 
           5890      3.27134e+8 
           5910      3.23975e+8 
           5930      3.19875e+8 
           5950      3.15813e+8 
           5970      3.12453e+8 
           5990      3.08155e+8 
           6010      3.04616e+8 
           6030      3.00682e+8 
           6050      2.97071e+8 
           6070      2.93542e+8 
           6090      2.89941e+8 
           6110      2.86401e+8 
           6130      2.82931e+8 
           6150      2.79132e+8 
           6170      2.75861e+8 
           6190      2.72724e+8 
           6210      2.69495e+8 
           6230      2.66273e+8 
           6250      2.62951e+8 
           6270      2.59887e+8 
           6290      2.56837e+8 
           6310      2.53688e+8 
           6330       2.5079e+8 
           6350      2.47634e+8 
           6370      2.44911e+8 
           6390      2.42006e+8 
           6410      2.39169e+8 
           6430      2.36444e+8 
           6450      2.33685e+8 
           6470      2.30632e+8 
           6490      2.28041e+8 
           6510      2.25442e+8 
           6530      2.21854e+8 
           6550      2.12949e+8 
           6570      1.90412e+8 
           6590      2.12862e+8 
           6610      2.12593e+8 
           6630       2.1061e+8 
           6650      2.08127e+8 
           6670      2.03917e+8 
           6690      2.01714e+8 
           6710      2.01342e+8 
           6730      1.98808e+8 
           6750       1.9697e+8 
           6770      1.94797e+8 
           6790      1.92213e+8 
           6810      1.90436e+8 
           6830      1.88232e+8 
           6850      1.86307e+8 
           6870      1.84258e+8 
           6890      1.82063e+8 
           6910      1.79914e+8 
           6930       1.7832e+8 
           6950      1.76414e+8 
           6970      1.74504e+8 
           6990       1.7262e+8 
           7010      1.70755e+8 
           7030      1.68892e+8 
           7050      1.67109e+8 
           7070      1.62887e+8 
           7090       1.6358e+8 
           7110      1.61767e+8 
           7130      1.60105e+8 
           7150      1.58451e+8 
           7170      1.56763e+8 
           7190      1.55148e+8 
           7210      1.53521e+8 
           7230      1.50928e+8 
           7250      1.50111e+8 
           7270      1.48773e+8 
           7290      1.46115e+8 
           7310       1.4569e+8 
           7330      1.44202e+8 
           7350      1.42721e+8 
           7370      1.41268e+8 
           7390      1.39828e+8 
           7410      1.38402e+8 
           7430      1.36982e+8 
           7450      1.35603e+8 
           7470      1.33845e+8 
           7490      1.32835e+8 
           7510      1.31508e+8 
           7530      1.30172e+8 
           7550      1.28922e+8 
           7570      1.27637e+8 
           7590      1.26357e+8 
           7610      1.24965e+8 
           7630      1.23858e+8 
           7650      1.22631e+8 
           7670      1.21436e+8 
           7690      1.20225e+8 
           7710      1.19051e+8 
           7730      1.17843e+8 
           7750      1.16734e+8 
           7770      1.15503e+8 
           7790      1.14476e+8 
           7810      1.13316e+8 
           7830      1.12271e+8 
           7850       1.1126e+8 
           7870      1.10056e+8 
           7890      1.08924e+8 
           7910      1.08079e+8 
           7930      1.07013e+8 
           7950      1.05987e+8 
           7970       1.0491e+8 
           7990      1.03949e+8 
           8010      1.02937e+8 
           8030      1.01934e+8 
           8050      1.00981e+8 
           8070      1.00053e+8 
           8090      9.89656e+7 
           8110      9.77277e+7 
           8130      9.72874e+7 
           8150      9.62887e+7 
           8170      9.55131e+7 
           8190      9.42945e+7 
           8210      9.33215e+7 
           8230      9.25626e+7 
           8250      9.18874e+7 
           8270      9.04024e+7 
           8290      9.01312e+7 
           8310      8.93815e+7 
           8330      8.85347e+7 
           8350      8.73546e+7 
           8370      8.67764e+7 
           8390      8.61437e+7 
           8410      8.53403e+7 
           8430      8.45542e+7 
           8450      8.32627e+7 
           8470       8.3017e+7 
           8490      8.20985e+7 
           8510      8.13905e+7 
           8530      8.06158e+7 
           8550      7.95588e+7 
           8570      7.97009e+7 
