# Kurucz ODFNEW /NOVER (2003)
# teff = 7250 K (value for the effective temperature for the model. Temperatures are given in K)
# logg = 1.5 log(cm/s2) (value for Log(G) for the model.)
# meta = -1.5  (value for the Metallicity for the model.)
# lh = 1.25  (l/Hp where l is the  mixing length of the convective element and Hp is the pressure scale height)
# vtur = 2 km/s (Microturbulence velocity)
# alpha = 0.4  (Alpha)
#
# column 1: WAVELENGTH (ANGSTROM), Wavelength in Angstrom
# column 2: FLUX (ERG/CM2/S/A), Flux in erg/cm2/s/A
            375     2.74112e-24 
            385     8.30622e-23 
            395     6.41279e-22 
            405     4.33701e-21 
            414     2.22966e-20 
            422     8.99324e-20 
            430      1.6908e-20 
            441     8.99357e-20 
            451     3.80988e-19 
            460     1.31971e-18 
            470     4.94677e-18 
            480     1.74777e-17 
            490     5.84707e-17 
            500     1.85592e-16 
            506     8.05602e-15 
            512     1.04261e-15 
            520     2.42032e-15 
            530     6.72064e-15 
            540     1.76311e-14 
            550      4.5083e-14 
            560     1.10524e-13 
            570     2.61832e-13 
            580     5.93786e-13 
            590      1.3356e-12 
            600     2.88512e-12 
            610     6.06321e-12 
            620     1.24103e-11 
            630     2.47755e-11 
            640     4.83218e-11 
            650     9.21538e-11 
            658     1.52062e-10 
            665     2.33096e-10 
            675      4.2192e-10 
            685     7.49171e-10 
            695      1.30616e-9 
            705      2.23661e-9 
            716      3.96691e-9 
            726      6.56537e-9 
            735      1.01995e-8 
            745      1.64118e-8 
            755      2.60375e-8 
            765       4.0751e-8 
            775       6.2955e-8 
            785      9.60554e-8 
            795      1.44606e-7 
            805      2.15687e-7 
            815      3.17945e-7 
            825      4.63644e-7 
            835      6.69249e-7 
            845      9.56564e-7 
            855      1.35412e-6 
            865      1.89939e-6 
            875      2.63992e-6 
            885      3.64033e-6 
            895      4.97728e-6 
            905      6.74872e-6 
            915       0.0301055 
            925        0.124503 
            935        0.162547 
            945        0.230925 
            955        0.331901 
            965         0.41584 
            975        0.419401 
            985        0.711698 
            995        0.866684 
           1005         1.12945 
           1015         1.22224 
           1025         1.33749 
           1035          2.1315 
           1045         2.84338 
           1055          3.5648 
           1065         4.29865 
           1075         5.35547 
           1085         6.56638 
           1095         7.77102 
           1105         23.2771 
           1115         64.4415 
           1125         81.9585 
           1135         100.333 
           1145           108.6 
           1155         99.6224 
           1165         104.112 
           1175         90.9281 
           1185         200.402 
           1195         30.9926 
           1205         19.8324 
           1215         5.87338 
           1225         23.6676 
           1235         60.1517 
           1245         118.483 
           1255         215.129 
           1265          315.16 
           1275         475.145 
           1285         729.788 
           1295          1017.2 
           1305         1143.75 
           1315         1671.95 
           1325         2155.71 
           1335         2664.25 
           1345         3386.98 
           1355          3923.6 
           1365          4759.2 
           1375         5672.39 
           1385         6735.75 
           1395         8052.15 
           1405         9791.02 
           1415         12286.4 
           1425         15158.8 
           1435         16810.3 
           1442           22107 
           1447         23519.8 
           1455         31570.5 
           1465         33731.8 
           1475           40237 
           1485         49323.5 
           1495         61961.6 
           1505         76293.1 
           1512         78750.6 
           1517         49040.7 
           1525         55201.5 
           1535          164779 
           1545          317384 
           1555          311461 
           1565          260533 
           1575          340368 
           1585          350198 
           1595          384308 
           1605          380382 
           1615          520573 
           1625          689466 
           1635          995353 
           1645      1.48017e+6 
           1655      1.01847e+6 
           1665      1.84938e+6 
           1672      1.07957e+6 
           1677      2.37317e+6 
           1685      2.69647e+6 
           1695      2.79234e+6 
           1705      2.85182e+6 
           1715      3.35214e+6 
           1725      3.40745e+6 
           1735      3.88052e+6 
           1745       3.7346e+6 
           1755      4.30789e+6 
           1765      3.61682e+6 
           1775      4.19725e+6 
           1785      4.24411e+6 
           1795      4.94772e+6 
           1805      4.33374e+6 
           1815      4.70136e+6 
           1825      4.14947e+6 
           1835      4.41293e+6 
           1845      4.04981e+6 
           1855      4.38934e+6 
           1865      4.58003e+6 
           1875      4.68712e+6 
           1885      4.83631e+6 
           1895      5.00288e+6 
           1905      4.64052e+6 
           1915      5.15667e+6 
           1925      5.34764e+6 
           1935      4.79758e+6 
           1945      5.62073e+6 
           1955      5.64272e+6 
           1967      5.91721e+6 
           1976      5.72623e+6 
           1984      5.71135e+6 
           1995       5.6245e+6 
           2005      5.48382e+6 
           2015       5.4645e+6 
           2025      5.13441e+6 
           2035      5.71359e+6 
           2045       6.0734e+6 
           2055      5.75921e+6 
           2065      5.70462e+6 
           2074      6.39047e+6 
           2078      6.56437e+6 
           2085      6.41299e+6 
           2095      6.23184e+6 
           2105      6.02492e+6 
           2115      6.12683e+6 
           2125      6.25485e+6 
           2135      5.18031e+6 
           2145      6.05556e+6 
           2155      6.10365e+6 
           2165      5.80217e+6 
           2175      5.83407e+6 
           2185      6.07016e+6 
           2195      6.57967e+6 
           2205      6.35168e+6 
           2215       5.7836e+6 
           2225      5.86977e+6 
           2235      6.73867e+6 
           2245      6.06778e+6 
           2255      5.84798e+6 
           2265      5.79191e+6 
           2275      6.37953e+6 
           2285      6.59338e+6 
           2295      6.13879e+6 
           2305      6.39302e+6 
           2315      6.37412e+6 
           2325      6.29382e+6 
           2335      5.76258e+6 
           2345      4.99543e+6 
           2355      6.34439e+6 
           2365      5.26753e+6 
           2375      6.08524e+6 
           2385      4.67264e+6 
           2395      5.45546e+6 
           2405      5.27862e+6 
           2415      5.58684e+6 
           2425      6.53313e+6 
           2435      6.38363e+6 
           2445      6.73358e+6 
           2455      6.60196e+6 
           2465      6.62104e+6 
           2475      6.26383e+6 
           2485      6.57468e+6 
           2495      6.44401e+6 
           2505      7.30222e+6 
           2513      6.44271e+6 
           2518       6.5746e+6 
           2525      6.04422e+6 
           2535      5.84907e+6 
           2545       6.0095e+6 
           2555      6.57312e+6 
           2565       6.5191e+6 
           2575      7.07196e+6 
           2585      7.04667e+6 
           2595      6.86043e+6 
           2605       6.5214e+6 
           2615      6.35813e+6 
           2625      7.13698e+6 
           2635      7.36126e+6 
           2645      8.56308e+6 
           2655      8.57886e+6 
           2665      7.87701e+6 
           2675      8.21098e+6 
           2685      8.33231e+6 
           2695      7.86186e+6 
           2705      8.05715e+6 
           2715      7.58189e+6 
           2725      7.70188e+6 
           2735      8.30039e+6 
           2745      6.72561e+6 
           2755      7.18811e+6 
           2765       7.5659e+6 
           2775       8.2316e+6 
           2785      7.68008e+6 
           2795      3.86402e+6 
           2805      4.74865e+6 
           2815      8.44194e+6 
           2825      8.77739e+6 
           2835      8.61761e+6 
           2845      8.40866e+6 
           2855      7.92881e+6 
           2865      8.61846e+6 
           2875      8.47702e+6 
           2885      8.72479e+6 
           2895      8.50324e+6 
           2910      9.38031e+6 
           2930      9.15878e+6 
           2950      9.15536e+6 
           2970      9.40745e+6 
           2990      9.53317e+6 
           3010      9.70172e+6 
           3030      9.74723e+6 
           3050      9.74657e+6 
           3070      9.69434e+6 
           3090      9.96026e+6 
           3110      9.79595e+6 
           3130      9.83806e+6 
           3150      1.00807e+7 
           3170      1.01499e+7 
           3190      9.74652e+6 
           3210      1.00455e+7 
           3230       9.8251e+6 
           3250      1.01186e+7 
           3270      1.02355e+7 
           3290      1.04581e+7 
           3310      1.05814e+7 
           3330      1.03952e+7 
           3350      1.02732e+7 
           3370      1.03596e+7 
           3390      1.04206e+7 
           3410      1.06836e+7 
           3430      1.08143e+7 
           3450      1.07589e+7 
           3470      1.06769e+7 
           3490      1.06993e+7 
           3510      1.09107e+7 
           3530      1.10196e+7 
           3550       1.1143e+7 
           3570      1.09139e+7 
           3590      1.09314e+7 
           3610      1.10231e+7 
           3630      1.11073e+7 
           3640      1.10131e+7 
           3650      1.12613e+7 
           3670      1.11669e+7 
           3690      1.20469e+7 
           3710      1.56937e+7 
           3730      2.08379e+7 
           3750      2.98651e+7 
           3770      3.16272e+7 
           3790      3.83808e+7 
           3810      4.36288e+7 
           3830      3.46119e+7 
           3850      4.64783e+7 
           3870      4.98955e+7 
           3890      3.16354e+7 
           3910      4.86901e+7 
           3930      4.15198e+7 
           3950      4.83827e+7 
           3970      2.86547e+7 
           3990      4.74837e+7 
           4010      4.91924e+7 
           4030      4.85778e+7 
           4050       4.8129e+7 
           4070      4.69112e+7 
           4090      4.11387e+7 
           4110      3.21909e+7 
           4130      4.53438e+7 
           4150      4.58397e+7 
           4170      4.48421e+7 
           4190      4.45566e+7 
           4210      4.41726e+7 
           4230      4.33769e+7 
           4250      4.30905e+7 
           4270      4.25101e+7 
           4290      4.17585e+7 
           4310      3.97434e+7 
           4330      3.43175e+7 
           4350      2.96147e+7 
           4370      4.00108e+7 
           4390      3.95024e+7 
           4410       3.8866e+7 
           4430      3.92396e+7 
           4450      3.86822e+7 
           4470      3.83575e+7 
           4490      3.79792e+7 
           4510      3.78061e+7 
           4530      3.70416e+7 
           4550      3.62399e+7 
           4570      3.66503e+7 
           4590      3.60187e+7 
           4610      3.63521e+7 
           4630      3.55379e+7 
           4650      3.55499e+7 
           4670      3.52012e+7 
           4690      3.47475e+7 
           4710       3.3845e+7 
           4730      3.41639e+7 
           4750      3.39236e+7 
           4770      3.34775e+7 
           4790      3.30835e+7 
           4810      3.26738e+7 
           4830      3.20162e+7 
           4850      2.76495e+7 
           4870      2.26369e+7 
           4890      3.07423e+7 
           4910       3.1069e+7 
           4930       3.0543e+7 
           4950      3.06011e+7 
           4970      3.04682e+7 
           4990      3.00051e+7 
           5010      2.93232e+7 
           5030      2.94732e+7 
           5050      2.91545e+7 
           5070      2.89968e+7 
           5090      2.87243e+7 
           5110       2.8471e+7 
           5130      2.80848e+7 
           5150      2.77861e+7 
           5170      2.70726e+7 
           5190      2.68378e+7 
           5210      2.69417e+7 
           5230       2.6506e+7 
           5250       2.6653e+7 
           5270      2.58963e+7 
           5290      2.61437e+7 
           5310      2.57441e+7 
           5330      2.53815e+7 
           5350      2.54895e+7 
           5370      2.51589e+7 
           5390      2.49298e+7 
           5410      2.46686e+7 
           5430       2.4454e+7 
           5450      2.43255e+7 
           5470      2.41505e+7 
           5490      2.39436e+7 
           5510      2.37441e+7 
           5530      2.34507e+7 
           5550      2.33737e+7 
           5570      2.31345e+7 
           5590      2.28836e+7 
           5610      2.27279e+7 
           5630      2.25763e+7 
           5650      2.23506e+7 
           5670      2.21487e+7 
           5690      2.19944e+7 
           5710      2.18025e+7 
           5730       2.1646e+7 
           5750      2.14467e+7 
           5770      2.12756e+7 
           5790      2.10918e+7 
           5810      2.09189e+7 
           5830      2.07479e+7 
           5850      2.05623e+7 
           5870      2.03984e+7 
           5890      2.00559e+7 
           5910      2.00638e+7 
           5930      1.98987e+7 
           5950      1.97301e+7 
           5970      1.95748e+7 
           5990      1.94024e+7 
           6010      1.92442e+7 
           6030      1.90909e+7 
           6050      1.89381e+7 
           6070      1.87951e+7 
           6090      1.86373e+7 
           6110      1.84782e+7 
           6130      1.82986e+7 
           6150      1.80912e+7 
           6170        1.798e+7 
           6190      1.79043e+7 
           6210      1.77628e+7 
           6230      1.76043e+7 
           6250      1.73857e+7 
           6270      1.73478e+7 
           6290       1.7212e+7 
           6310      1.70567e+7 
           6330       1.6934e+7 
           6350      1.67509e+7 
           6370      1.66366e+7 
           6390      1.65437e+7 
           6410      1.63902e+7 
           6430      1.62793e+7 
           6450      1.60716e+7 
           6470      1.60165e+7 
           6490      1.58169e+7 
           6510      1.57047e+7 
           6530      1.54682e+7 
           6550       1.4213e+7 
           6570      1.14193e+7 
           6590      1.49163e+7 
           6610      1.50935e+7 
           6630      1.50471e+7 
           6650      1.49695e+7 
           6670      1.48587e+7 
           6690      1.47523e+7 
           6710      1.46394e+7 
           6730      1.45301e+7 
           6750      1.44094e+7 
           6770      1.43194e+7 
           6790      1.42099e+7 
           6810      1.41062e+7 
           6830      1.39963e+7 
           6850      1.38954e+7 
           6870      1.37962e+7 
           6890      1.36956e+7 
           6910      1.35951e+7 
           6930      1.34933e+7 
           6950      1.33962e+7 
           6970      1.32977e+7 
           6990      1.32025e+7 
           7010      1.30881e+7 
           7030      1.30069e+7 
           7050      1.29158e+7 
           7070      1.28232e+7 
           7090      1.27315e+7 
           7110      1.26063e+7 
           7130      1.25424e+7 
           7150      1.24487e+7 
           7170       1.2364e+7 
           7190      1.22727e+7 
           7210       1.2183e+7 
           7230      1.20976e+7 
           7250      1.20131e+7 
           7270      1.19335e+7 
           7290      1.18405e+7 
           7310      1.17574e+7 
           7330      1.16744e+7 
           7350      1.15984e+7 
           7370      1.15217e+7 
           7390      1.14367e+7 
           7410      1.13455e+7 
           7430      1.12681e+7 
           7450      1.11928e+7 
           7470      1.11066e+7 
           7490      1.10346e+7 
           7510      1.09632e+7 
           7530      1.08918e+7 
           7550      1.08203e+7 
           7570      1.07408e+7 
           7590      1.06712e+7 
           7610      1.05976e+7 
           7630      1.05253e+7 
           7650      1.04491e+7 
           7670      1.03742e+7 
           7690      1.03056e+7 
           7710      1.02307e+7 
           7730      1.01696e+7 
           7750       1.0099e+7 
           7770      9.89983e+6 
           7790      9.96639e+6 
           7810      9.89812e+6 
           7830      9.82857e+6 
           7850      9.75899e+6 
           7870      9.68755e+6 
           7890       9.6155e+6 
           7910      9.56574e+6 
           7930      9.49418e+6 
           7950      9.43098e+6 
           7970      9.38074e+6 
           7990      9.29961e+6 
           8010      9.25499e+6 
           8030      9.19258e+6 
           8050      9.13243e+6 
           8070      9.07218e+6 
           8090      9.01184e+6 
           8110      8.95427e+6 
           8130      8.89659e+6 
           8150      8.83766e+6 
           8170      8.77977e+6 
           8190      8.69538e+6 
           8210      8.66816e+6 
           8230      8.61162e+6 
           8250      8.54169e+6 
           8270      8.52521e+6 
           8290      8.46439e+6 
           8310      8.38824e+6 
           8330      8.28014e+6 
           8350      8.27295e+6 
           8370      8.10547e+6 
           8390      8.09042e+6 
           8410      8.02003e+6 
           8430      8.15325e+6 
           8450      8.05191e+6 
           8470       7.7582e+6 
           8490      8.36926e+6 
           8510      7.56943e+6 
           8530      8.46181e+6 
           8550      7.23955e+6 
           8570      8.58921e+6 
           8590       8.0775e+6 
           8610      7.82302e+6 
           8630      8.73727e+6 
           8650      8.54083e+6 
           8670      7.03803e+6 
           8690      8.61853e+6 
           8710      8.77564e+6 
           8730      8.57977e+6 
           8750      7.05262e+6 
           8770      8.29547e+6 
           8790      8.58543e+6 
           8810      8.52513e+6 
           8830      8.44259e+6 
           8850      7.96821e+6 
           8870      6.86069e+6 
           8890      8.19364e+6 
           8910      8.24136e+6 
           8930      8.20307e+6 
           8950      8.20454e+6 
           8970      8.13148e+6 
           8990      7.97135e+6 
           9010      6.73128e+6 
           9030      7.34924e+6 
           9050      7.87336e+6 
           9070      7.80524e+6 
           9090      7.71075e+6 
           9110      7.76681e+6 
           9130      7.76175e+6 
           9150       7.7148e+6 
           9170      7.64579e+6 
           9190      7.56438e+6 
           9210      7.29351e+6 
           9230      6.02508e+6 
           9250        7.102e+6 
           9270      7.28445e+6 
           9290      7.36006e+6 
           9310      7.33282e+6 
           9330      7.28713e+6 
           9350       7.2435e+6 
           9370      7.19888e+6 
           9390      7.14944e+6 
           9410       7.0191e+6 
           9430      7.04571e+6 
           9450      7.01423e+6 
