# Kurucz ODFNEW /NOVER (2003)
# teff = 6500 K (value for the effective temperature for the model. Temperatures are given in K)
# logg = 2 log(cm/s2) (value for Log(G) for the model.)
# meta = -4  (value for the Metallicity for the model.)
# lh = 1.25  (l/Hp where l is the  mixing length of the convective element and Hp is the pressure scale height)
# vtur = 2 km/s (Microturbulence velocity)
# alpha = 0.4  (Alpha)
#
# column 1: WAVELENGTH (ANGSTROM), Wavelength in Angstrom
# column 2: FLUX (ERG/CM2/S/A), Flux in erg/cm2/s/A
          147.2     1.73866e-35 
            151     1.65225e-35 
          155.2     1.56403e-35 
          158.8     1.49392e-35 
            162     1.43549e-35 
            166     1.36714e-35 
          170.3     1.29897e-35 
          173.4     1.25294e-35 
          176.8     1.20522e-35 
          180.2     1.16017e-35 
          181.7     1.14109e-35 
          186.1     1.08777e-35 
            191     1.03267e-35 
          193.9     1.00201e-35 
          198.4     9.57076e-36 
          201.8     9.25097e-36 
            205     8.96441e-36 
          210.5     8.50208e-36 
          216.2     8.05969e-36 
          219.8     7.79784e-36 
            223     7.57565e-36 
          226.8     7.32392e-36 
            230     7.12154e-36 
            234     6.88015e-36 
            240     6.54044e-36 
          246.5     6.20006e-36 
          252.4     5.91358e-36 
          256.8     5.71267e-36 
            260     5.57292e-36 
            264     5.40532e-36 
          268.5     5.22566e-36 
          273.5     5.03634e-36 
          278.5     4.85712e-36 
            284     4.67082e-36 
            290     4.47954e-36 
            296     4.29978e-36 
            301     4.15812e-36 
            308     3.97126e-36 
            318     3.72542e-36 
            328     3.50172e-36 
            338     3.29759e-36 
            348     3.08267e-23 
            357     2.73783e-22 
            366     1.91329e-21 
            375     1.20449e-20 
            385     8.37535e-20 
            395     5.26105e-19 
            405     3.00855e-18 
            414     1.34131e-17 
            422     4.79151e-17 
            430     1.62966e-16 
            441     8.13524e-16 
            451     3.26942e-15 
            460     1.08342e-14 
            470     3.87815e-14 
            480      1.3134e-13 
            490      4.2231e-13 
            500     1.29327e-12 
            506     2.43442e-12 
            512     4.66428e-12 
            520     1.05983e-11 
            530     2.85075e-11 
            540      7.3793e-11 
            550     1.84218e-10 
            560     4.44351e-10 
            570      1.03761e-9 
            580      2.34952e-9 
            590      5.16739e-9 
            600      1.10549e-8 
            610      2.30341e-8 
            620      4.68119e-8 
            630      9.28981e-8 
            640      1.80225e-7 
            650      3.42168e-7 
            658      5.63027e-7 
            665      8.61522e-7 
            675      1.55628e-6 
            685      2.76021e-6 
            695      4.81042e-6 
            705      8.24367e-6 
            716      1.46369e-5 
            726      2.42716e-5 
            735      3.77849e-5 
            745       6.0965e-5 
            755      9.70399e-5 
            765     0.000152462 
            775     0.000236566 
            785     0.000362678 
            795     0.000549634 
            805     0.000823773 
            815      0.00122146 
            825      0.00179269 
            835      0.00260502 
            845      0.00374943 
            855      0.00534721 
            865       0.0075585 
            875       0.0105925 
            885       0.0147229 
            895       0.0203004 
            905       0.0277759 
            915       0.0551038 
            925        0.198028 
            935          0.2995 
            945        0.486402 
            955        0.751455 
            965        0.737257 
            975        0.516573 
            985          1.7861 
            995         2.13634 
           1005         2.15779 
           1015         1.49379 
           1025         2.38299 
           1035         3.05196 
           1045         5.99993 
           1055         8.62329 
           1065         11.7181 
           1075         14.4328 
           1085         17.5163 
           1095         19.8745 
           1105          22.694 
           1115         25.4151 
           1125         19.0483 
           1135          15.316 
           1145         13.1376 
           1155          11.727 
           1165         10.9075 
           1175         10.4891 
           1185         70.6898 
           1195         38.0522 
           1205         35.8302 
           1215         32.1958 
           1225          47.413 
           1235         68.2978 
           1245         22.7813 
           1255         29.4753 
           1265         36.4646 
           1275         45.8529 
           1285         59.8715 
           1295         78.4246 
           1305           101.6 
           1315         138.363 
           1325          183.45 
           1335         247.908 
           1345         346.028 
           1355         482.047 
           1365         696.956 
           1375         842.539 
           1385         984.743 
           1395         1149.01 
           1405          1341.4 
           1415         1514.93 
           1425         1766.71 
           1435          2013.7 
           1442         2202.19 
           1447         2383.29 
           1455         2601.13 
           1465         2978.59 
           1475         3348.73 
           1485         3765.37 
           1495         4248.82 
           1505         4745.41 
           1512         5140.57 
           1517         5427.27 
           1525         5892.08 
           1535          6526.9 
           1545         7229.12 
           1555         7943.95 
           1565         8534.31 
           1575          9524.3 
           1585         10412.7 
           1595         11388.3 
           1605         12387.2 
           1615         13642.7 
           1625         15236.8 
           1635           17823 
           1645         27190.8 
           1655           48211 
           1665          127545 
           1672          187962 
           1677          261215 
           1685          376275 
           1695          528243 
           1705          680181 
           1715          847621 
           1725          958743 
           1735      1.08094e+6 
           1745      1.13559e+6 
           1755      1.24136e+6 
           1765      1.26301e+6 
           1775      1.35859e+6 
           1785      1.42357e+6 
           1795      1.53473e+6 
           1805       1.5557e+6 
           1815      1.62849e+6 
           1825      1.66386e+6 
           1835       1.7637e+6 
           1845      1.74795e+6 
           1855        1.874e+6 
           1865      1.97017e+6 
           1875      2.02851e+6 
           1885      2.10088e+6 
           1895       2.1692e+6 
           1905      2.17711e+6 
           1915      2.29917e+6 
           1925      2.39795e+6 
           1935      2.40966e+6 
           1945      2.53601e+6 
           1955      2.59648e+6 
           1967      2.68865e+6 
           1976      2.68872e+6 
           1984      2.73341e+6 
           1995      2.84618e+6 
           2005      2.86931e+6 
           2015      2.91494e+6 
           2025      2.93777e+6 
           2035      3.08909e+6 
           2045      3.14966e+6 
           2055      3.14709e+6 
           2065      3.22191e+6 
           2074       3.3605e+6 
           2078      3.38055e+6 
           2085      3.39854e+6 
           2095      3.45243e+6 
           2105      3.50702e+6 
           2115      3.58123e+6 
           2125      3.60843e+6 
           2135      3.63388e+6 
           2145      3.74648e+6 
           2155      3.79072e+6 
           2165      3.77804e+6 
           2175      3.86252e+6 
           2185      3.94521e+6 
           2195      4.05713e+6 
           2205      4.04436e+6 
           2215      3.96492e+6 
           2225      4.10416e+6 
           2235       4.2728e+6 
           2245       4.2707e+6 
           2255      4.22105e+6 
           2265      4.19899e+6 
           2275      4.39224e+6 
           2285      4.45735e+6 
           2295      4.45071e+6 
           2305      4.54746e+6 
           2315      4.56963e+6 
           2325       4.6201e+6 
           2335      4.62235e+6 
           2345      4.50408e+6 
           2355      4.75889e+6 
           2365      4.62955e+6 
           2375      4.79155e+6 
           2385      4.55972e+6 
           2395      4.83677e+6 
           2405      4.87577e+6 
           2415      4.92707e+6 
           2425      5.14841e+6 
           2435      5.10214e+6 
           2445      5.19592e+6 
           2455      5.24206e+6 
           2465      5.20495e+6 
           2475       5.2166e+6 
           2485      5.24102e+6 
           2495      5.24956e+6 
           2505      5.43563e+6 
           2513      5.29089e+6 
           2518      5.29515e+6 
           2525      5.24669e+6 
           2535      5.30727e+6 
           2545      5.42641e+6 
           2555      5.63418e+6 
           2565      5.62372e+6 
           2575      5.73279e+6 
           2585       5.7917e+6 
           2595      5.78519e+6 
           2605      5.74863e+6 
           2615      5.75984e+6 
           2625      5.81609e+6 
           2635      5.91473e+6 
           2645      6.17218e+6 
           2655      6.19472e+6 
           2665      6.11861e+6 
           2675      6.18983e+6 
           2685      6.29901e+6 
           2695      6.28814e+6 
           2705       6.3514e+6 
           2715      6.25257e+6 
           2725      6.29504e+6 
           2735      6.36392e+6 
           2745      6.14214e+6 
           2755      6.22272e+6 
           2765      6.39953e+6 
           2775      6.56679e+6 
           2785      6.56537e+6 
           2795      5.98656e+6 
           2805      6.30737e+6 
           2815      6.76515e+6 
           2825      6.78815e+6 
           2835      6.73754e+6 
           2845      6.78288e+6 
           2855      6.67998e+6 
           2865      6.76378e+6 
           2875      6.85217e+6 
           2885      6.86722e+6 
           2895      6.98572e+6 
           2910      7.05403e+6 
           2930      7.03441e+6 
           2950      7.05797e+6 
           2970      7.15072e+6 
           2990      7.19697e+6 
           3010      7.28543e+6 
           3030       7.3373e+6 
           3050      7.40054e+6 
           3070      7.38837e+6 
           3090      7.49584e+6 
           3110      7.54308e+6 
           3130      7.58696e+6 
           3150      7.61888e+6 
           3170      7.66663e+6 
           3190       7.6552e+6 
           3210       7.7356e+6 
           3230      7.69571e+6 
           3250       7.7921e+6 
           3270      7.89191e+6 
           3290      7.94661e+6 
           3310      7.98428e+6 
           3330      7.96306e+6 
           3350      7.95118e+6 
           3370      8.01001e+6 
           3390      8.03772e+6 
           3410      8.13778e+6 
           3430      8.16708e+6 
           3450      8.17458e+6 
           3470      8.20483e+6 
           3490      8.24406e+6 
           3510      8.27942e+6 
           3530      8.31012e+6 
           3550      8.33872e+6 
           3570      8.33452e+6 
           3590      8.36118e+6 
           3610      8.38471e+6 
           3630      8.41065e+6 
           3640      8.41966e+6 
           3650      8.46662e+6 
           3670      8.38914e+6 
           3690      8.69631e+6 
           3710      1.07314e+7 
           3730      1.26317e+7 
           3750      1.59484e+7 
           3770      1.64579e+7 
           3790      1.81825e+7 
           3810      2.00156e+7 
           3830       1.7224e+7 
           3850      2.10633e+7 
           3870      2.20171e+7 
           3890      1.63786e+7 
           3910      2.18757e+7 
           3930      2.18546e+7 
           3950      2.17927e+7 
           3970      1.60015e+7 
           3990       2.1384e+7 
           4010      2.19282e+7 
           4030      2.18672e+7 
           4050      2.17351e+7 
           4070      2.14281e+7 
           4090      1.96117e+7 
           4110      1.65789e+7 
           4130      2.10192e+7 
           4150      2.11257e+7 
           4170      2.10605e+7 
           4190      2.09558e+7 
           4210      2.08237e+7 
           4230      2.06864e+7 
           4250      2.05819e+7 
           4270      2.04447e+7 
           4290      2.02748e+7 
           4310      1.99844e+7 
           4330      1.79099e+7 
           4350      1.60055e+7 
           4370      1.96122e+7 
           4390      1.96652e+7 
           4410      1.96112e+7 
           4430      1.95248e+7 
           4450      1.94029e+7 
           4470      1.92919e+7 
           4490      1.91802e+7 
           4510      1.90642e+7 
           4530      1.89458e+7 
           4550      1.88251e+7 
           4570      1.87202e+7 
           4590      1.86129e+7 
           4610      1.85049e+7 
           4630      1.83911e+7 
           4650       1.8282e+7 
           4670      1.81724e+7 
           4690      1.80622e+7 
           4710      1.79516e+7 
           4730      1.78456e+7 
           4750      1.77374e+7 
           4770      1.76287e+7 
           4790      1.75097e+7 
           4810      1.73562e+7 
           4830      1.71272e+7 
           4850      1.57048e+7 
           4870      1.36638e+7 
           4890      1.67268e+7 
           4910      1.68237e+7 
           4930      1.67665e+7 
           4950      1.66882e+7 
           4970      1.65892e+7 
           4990      1.64883e+7 
           5010      1.63854e+7 
           5030      1.62896e+7 
           5050      1.61889e+7 
           5070      1.60922e+7 
           5090      1.59936e+7 
           5110      1.58975e+7 
           5130      1.57996e+7 
           5150      1.57041e+7 
           5170      1.55772e+7 
           5190      1.54993e+7 
           5210       1.5418e+7 
           5230      1.53224e+7 
           5250      1.52346e+7 
           5270      1.51368e+7 
           5290      1.50508e+7 
           5310       1.4959e+7 
           5330      1.48655e+7 
           5350      1.47796e+7 
           5370       1.4688e+7 
           5390      1.45987e+7 
           5410      1.45102e+7 
           5430      1.44227e+7 
           5450      1.43348e+7 
           5470      1.42503e+7 
           5490      1.41642e+7 
           5510      1.40777e+7 
           5530       1.3992e+7 
           5550      1.39085e+7 
           5570      1.38246e+7 
           5590      1.37403e+7 
           5610      1.36581e+7 
           5630      1.35767e+7 
           5650      1.34949e+7 
           5670      1.34139e+7 
           5690      1.33337e+7 
           5710      1.32532e+7 
           5730      1.31746e+7 
           5750      1.30945e+7 
           5770      1.30163e+7 
           5790      1.29389e+7 
           5810      1.28612e+7 
           5830      1.27842e+7 
           5850      1.27079e+7 
           5870      1.26313e+7 
           5890      1.25522e+7 
           5910      1.24814e+7 
           5930       1.2407e+7 
           5950      1.23333e+7 
           5970      1.22593e+7 
           5990      1.21859e+7 
           6010      1.21133e+7 
           6030      1.20414e+7 
           6050      1.19701e+7 
           6070      1.18985e+7 
           6090      1.18276e+7 
           6110      1.17574e+7 
           6130      1.16878e+7 
           6150      1.16179e+7 
           6170      1.15486e+7 
           6190       1.1482e+7 
           6210       1.1414e+7 
           6230      1.13467e+7 
           6250       1.1279e+7 
           6270      1.12129e+7 
           6290      1.11465e+7 
           6310      1.10816e+7 
           6330      1.10164e+7 
           6350      1.09518e+7 
           6370      1.08868e+7 
           6390      1.08234e+7 
           6410      1.07596e+7 
           6430      1.06973e+7 
           6450      1.06338e+7 
           6470      1.05718e+7 
           6490      1.05085e+7 
           6510      1.04183e+7 
           6530      1.03015e+7 
           6550      9.78473e+6 
           6570      8.34933e+6 
           6590      1.00411e+7 
           6610      1.01046e+7 
           6630      1.00788e+7 
           6650      1.00311e+7 
           6670       9.9727e+6 
           6690      9.91484e+6 
           6710       9.8575e+6 
           6730      9.80066e+6 
           6750      9.74432e+6 
           6770      9.68765e+6 
           6790      9.63149e+6 
           6810      9.57581e+6 
           6830      9.52062e+6 
           6850      9.46591e+6 
           6870      9.41167e+6 
           6890       9.3579e+6 
           6910      9.30381e+6 
           6930      9.25097e+6 
           6950      9.19781e+6 
           6970       9.1451e+6 
           6990      9.09284e+6 
           7010      9.04103e+6 
           7030       8.9889e+6 
           7050      8.93797e+6 
           7070      8.88672e+6 
           7090       8.8359e+6 
           7110      8.78626e+6 
           7130       8.7363e+6 
           7150      8.68602e+6 
           7170       8.6369e+6 
           7190      8.58818e+6 
           7210      8.53915e+6 
           7230      8.49126e+6 
           7250      8.44304e+6 
           7270      8.39522e+6 
           7290       8.3478e+6 
           7310      8.30007e+6 
           7330      8.25344e+6 
           7350      8.20719e+6 
           7370      8.16062e+6 
           7390      8.11444e+6 
           7410      8.06864e+6 
           7430      8.02321e+6 
           7450      7.97816e+6 
           7470      7.93347e+6 
           7490      7.88914e+6 
           7510      7.84518e+6 
           7530       7.8009e+6 
           7550      7.75764e+6 
           7570      7.71408e+6 
           7590      7.67086e+6 
           7610      7.62799e+6 
           7630      7.58611e+6 
           7650      7.54328e+6 
           7670      7.50143e+6 
           7690      7.45991e+6 
           7710      7.41873e+6 
           7730      7.37723e+6 
           7750       7.3367e+6 
           7770      7.29523e+6 
           7790      7.25596e+6 
           7810      7.21576e+6 
           7830      7.17587e+6 
           7850      7.13629e+6 
           7870      7.09703e+6 
           7890      7.05807e+6 
           7910      7.01941e+6 
           7930      6.98045e+6 
           7950       6.9424e+6 
           7970      6.90404e+6 
           7990      6.86657e+6 
           8010       6.8288e+6 
           8030      6.79132e+6 
           8050      6.75471e+6 
           8070       6.7178e+6 
           8090      6.68117e+6 
           8110      6.64482e+6 
           8130      6.60818e+6 
           8150      6.57238e+6 
           8170      6.53686e+6 
           8190      6.50104e+6 
           8210      6.46996e+6 
           8230      6.43633e+6 
           8250       6.4035e+6 
           8270      6.36981e+6 
           8290      6.33528e+6 
           8310      6.29664e+6 
           8330      6.25775e+6 
           8350      6.22673e+6 
           8370      6.16259e+6 
           8390      6.13592e+6 
           8410      6.08813e+6 
           8430      6.10115e+6 
           8450      6.06545e+6 
           8470      5.92183e+6 
           8490      6.10094e+6 
           8510      5.80179e+6 
           8530      6.08528e+6 
           8550      5.66672e+6 
           8570      6.07528e+6 
           8590      5.87956e+6 
