# Kurucz ODFNEW /NOVER (2003)
# teff = 7250 K (value for the effective temperature for the model. Temperatures are given in K)
# logg = 0.5 log(cm/s2) (value for Log(G) for the model.)
# meta = -0.5  (value for the Metallicity for the model.)
# lh = 1.25  (l/Hp where l is the  mixing length of the convective element and Hp is the pressure scale height)
# vtur = 2 km/s (Microturbulence velocity)
# alpha = 0.4  (Alpha)
#
# column 1: WAVELENGTH (ANGSTROM), Wavelength in Angstrom
# column 2: FLUX (ERG/CM2/S/A), Flux in erg/cm2/s/A
            405      2.1107e-23 
            414     1.33689e-23 
            422     5.53108e-23 
            430     2.16421e-22 
            441     1.29712e-21 
            451     6.09395e-21 
            460     2.30791e-20 
            470     9.51459e-20 
            480     3.68276e-19 
            490     1.34474e-18 
            500     4.64221e-18 
            506     1.26641e-17 
            512     2.87106e-17 
            520     7.09001e-17 
            530     2.12063e-16 
            540      5.9738e-16 
            550     1.63818e-15 
            560     4.29443e-15 
            570     1.08522e-14 
            580     2.61941e-14 
            590     6.25602e-14 
            600      1.4323e-13 
            610     3.18534e-13 
            620     6.88384e-13 
            630     1.44864e-12 
            640     2.97309e-12 
            650     5.95839e-12 
            658     1.02178e-11 
            665     1.61741e-11 
            675     3.06584e-11 
            685     5.69424e-11 
            695     1.03677e-10 
            705     1.84679e-10 
            716     3.43443e-10 
            726     5.91394e-10 
            735     9.51194e-10 
            745      1.58837e-9 
            755      2.61373e-9 
            765      4.23944e-9 
            775      6.78097e-9 
            785      1.07084e-8 
            795      1.65534e-8 
            805      2.55957e-8 
            815      3.90237e-8 
            825      5.86881e-8 
            835       8.7279e-8 
            845      1.28453e-7 
            855      1.87101e-7 
            865      2.69875e-7 
            875      3.84615e-7 
            885      5.45788e-7 
            895      7.65899e-7 
            905      1.06272e-6 
            915      0.00200747 
            925      0.00647898 
            935      0.00848802 
            945       0.0118525 
            955       0.0173642 
            965       0.0233301 
            975       0.0293826 
            985       0.0396328 
            995       0.0496471 
           1005       0.0693165 
           1015       0.0892215 
           1025        0.111718 
           1035        0.145793 
           1045        0.188698 
           1055        0.240133 
           1065        0.294405 
           1075        0.375874 
           1085        0.471606 
           1095         0.56857 
           1105           2.133 
           1115         7.55292 
           1125          10.959 
           1135         14.7036 
           1145         17.7646 
           1155         18.3061 
           1165         22.5215 
           1175         22.8036 
           1185         29.0443 
           1195         6.79974 
           1205         5.23079 
           1215         1.26935 
           1225         6.25512 
           1235         18.8134 
           1245         46.7331 
           1255         96.5034 
           1265         108.031 
           1275         217.432 
           1285         357.742 
           1295         489.876 
           1305         352.966 
           1315         760.877 
           1325         1026.42 
           1335         1177.37 
           1345         1622.52 
           1355         1787.86 
           1365         2018.22 
           1375          2320.6 
           1385         2772.51 
           1395         3327.41 
           1405         3838.62 
           1415         4041.01 
           1425         4753.31 
           1435         4876.64 
           1442         5738.18 
           1447          6312.5 
           1455         7199.06 
           1465         7439.71 
           1475         8294.15 
           1485         9453.83 
           1495         10989.1 
           1505         12239.8 
           1512         12543.7 
           1517         13653.4 
           1525         14008.3 
           1535         31681.6 
           1545          111686 
           1555          101414 
           1565         89122.4 
           1575          167086 
           1585          206733 
           1595          310636 
           1605          258619 
           1615          236779 
           1625          210405 
           1635          249286 
           1645          353212 
           1655          189463 
           1665          302378 
           1672         86761.7 
           1677          488619 
           1685          965513 
           1695      1.22304e+6 
           1705      1.10567e+6 
           1715      1.57815e+6 
           1725      1.76348e+6 
           1735      2.21378e+6 
           1745      1.92792e+6 
           1755      2.56663e+6 
           1765      2.04774e+6 
           1775      2.64842e+6 
           1785      2.24591e+6 
           1795      3.36014e+6 
           1805      2.53857e+6 
           1815      3.07218e+6 
           1825      2.46559e+6 
           1835      2.36629e+6 
           1845      2.29766e+6 
           1855      2.72237e+6 
           1865      3.03498e+6 
           1875      2.93229e+6 
           1885      3.13663e+6 
           1895      3.45464e+6 
           1905      3.00291e+6 
           1915      3.36848e+6 
           1925      3.46888e+6 
           1935      2.65134e+6 
           1945      3.85978e+6 
           1955      3.98097e+6 
           1967      4.32562e+6 
           1976      4.20883e+6 
           1984      4.10375e+6 
           1995      4.04622e+6 
           2005      3.87429e+6 
           2015      3.53197e+6 
           2025      3.35229e+6 
           2035        4.037e+6 
           2045      4.47469e+6 
           2055      3.78877e+6 
           2065      3.71727e+6 
           2074      4.85017e+6 
           2078      5.13626e+6 
           2085      4.88492e+6 
           2095      4.62545e+6 
           2105      4.30044e+6 
           2115      4.37053e+6 
           2125      4.46373e+6 
           2135      3.34717e+6 
           2145      4.24095e+6 
           2155      4.42468e+6 
           2165      3.92264e+6 
           2175      4.02856e+6 
           2185      4.22132e+6 
           2195      4.76289e+6 
           2205      4.51321e+6 
           2215      3.75184e+6 
           2225      3.64506e+6 
           2235      4.75072e+6 
           2245      4.21419e+6 
           2255      3.60836e+6 
           2265      3.59654e+6 
           2275       4.3041e+6 
           2285      4.50418e+6 
           2295      4.08485e+6 
           2305      4.39459e+6 
           2315      4.14202e+6 
           2325        3.893e+6 
           2335      2.64239e+6 
           2345      2.04861e+6 
           2355      3.49557e+6 
           2365      2.05041e+6 
           2375      2.90257e+6 
           2385      1.57342e+6 
           2395      2.17584e+6 
           2405      2.06008e+6 
           2415       2.7359e+6 
           2425      4.33257e+6 
           2435      4.20651e+6 
           2445      4.54128e+6 
           2455      4.48198e+6 
           2465      4.35616e+6 
           2475      4.09022e+6 
           2485      4.30273e+6 
           2495      4.16882e+6 
           2505      5.27467e+6 
           2513      4.06404e+6 
           2518      4.41898e+6 
           2525        3.627e+6 
           2535      3.53554e+6 
           2545      3.70057e+6 
           2555      4.33884e+6 
           2565        3.814e+6 
           2575      4.39448e+6 
           2585       3.9809e+6 
           2595      3.56459e+6 
           2605      3.09016e+6 
           2615      2.90047e+6 
           2625      3.79648e+6 
           2635      4.64182e+6 
           2645      6.68213e+6 
           2655      6.72649e+6 
           2665      5.56218e+6 
           2675      6.06821e+6 
           2685      5.97658e+6 
           2695      5.67867e+6 
           2705      5.95907e+6 
           2715      5.16243e+6 
           2725      5.24434e+6 
           2735       5.6543e+6 
           2745       3.3872e+6 
           2755      4.00349e+6 
           2765      4.47563e+6 
           2775      5.08886e+6 
           2785      3.52826e+6 
           2795      1.19182e+6 
           2805       1.5446e+6 
           2815      4.44308e+6 
           2825      6.05505e+6 
           2835      6.14459e+6 
           2845      6.06284e+6 
           2855      5.47691e+6 
           2865      6.57836e+6 
           2875      6.36495e+6 
           2885      6.61148e+6 
           2895      6.28225e+6 
           2910      7.52827e+6 
           2930      7.16343e+6 
           2950      7.18264e+6 
           2970      7.70764e+6 
           2990      7.85518e+6 
           3010      8.20646e+6 
           3030      8.15962e+6 
           3050      8.11654e+6 
           3070      8.02472e+6 
           3090      8.51183e+6 
           3110      8.20796e+6 
           3130       8.2203e+6 
           3150      8.63488e+6 
           3170      8.59787e+6 
           3190      8.02356e+6 
           3210      8.55567e+6 
           3230      8.09906e+6 
           3250      8.62135e+6 
           3270      8.83859e+6 
           3290      9.05583e+6 
           3310      9.30777e+6 
           3330      9.01998e+6 
           3350      8.85654e+6 
           3370      8.83698e+6 
           3390      9.05887e+6 
           3410      9.46999e+6 
           3430      9.70763e+6 
           3450      9.62421e+6 
           3470      9.46853e+6 
           3490      9.37702e+6 
           3510      9.77532e+6 
           3530      9.94572e+6 
           3550      1.02253e+7 
           3570      9.78677e+6 
           3590      9.85136e+6 
           3610      9.97406e+6 
           3630      1.01309e+7 
           3640      9.92122e+6 
           3650      1.03428e+7 
           3670       1.0434e+7 
           3690      1.17899e+7 
           3710      1.64187e+7 
           3730      2.69006e+7 
           3750      3.82342e+7 
           3770      3.86857e+7 
           3790      4.45442e+7 
           3810      4.84586e+7 
           3830      3.97663e+7 
           3850      4.88547e+7 
           3870      5.02351e+7 
           3890      3.93283e+7 
           3910       4.7044e+7 
           3930      2.79091e+7 
           3950      4.38119e+7 
           3970      2.81599e+7 
           3990      4.76754e+7 
           4010      4.85177e+7 
           4030      4.76662e+7 
           4050      4.74905e+7 
           4070      4.66611e+7 
           4090      4.64378e+7 
           4110      3.79671e+7 
           4130      4.57679e+7 
           4150      4.64216e+7 
           4170      4.45734e+7 
           4190      4.46275e+7 
           4210       4.4315e+7 
           4230      4.36274e+7 
           4250      4.35181e+7 
           4270      4.26568e+7 
           4290      4.24013e+7 
           4310      4.00192e+7 
           4330      3.87944e+7 
           4350        3.416e+7 
           4370      4.14292e+7 
           4390      4.00556e+7 
           4410      3.90074e+7 
           4430      3.95467e+7 
           4450       3.9447e+7 
           4470      3.92701e+7 
           4490      3.89696e+7 
           4510      3.92156e+7 
           4530       3.7853e+7 
           4550      3.69824e+7 
           4570      3.81277e+7 
           4590      3.68341e+7 
           4610      3.80628e+7 
           4630      3.67751e+7 
           4650      3.71546e+7 
           4670      3.68146e+7 
           4690       3.6193e+7 
           4710      3.49472e+7 
           4730      3.58259e+7 
           4750      3.59072e+7 
           4770      3.51117e+7 
           4790      3.47994e+7 
           4810      3.44455e+7 
           4830      3.40623e+7 
           4850      3.12066e+7 
           4870      2.56597e+7 
           4890      3.28944e+7 
           4910      3.28145e+7 
           4930      3.20589e+7 
           4950      3.23216e+7 
           4970      3.23884e+7 
           4990      3.12987e+7 
           5010      3.01487e+7 
           5030      3.07433e+7 
           5050      3.04663e+7 
           5070      3.05181e+7 
           5090       3.0254e+7 
           5110      2.99945e+7 
           5130      2.92343e+7 
           5150      2.88642e+7 
           5170       2.8141e+7 
           5190      2.78084e+7 
           5210      2.79271e+7 
           5230      2.75073e+7 
           5250      2.78312e+7 
           5270      2.64714e+7 
           5290      2.73284e+7 
           5310      2.66954e+7 
           5330      2.61281e+7 
           5350      2.67886e+7 
           5370      2.63948e+7 
           5390      2.59724e+7 
           5410      2.56198e+7 
           5430      2.53701e+7 
           5450      2.55406e+7 
           5470      2.53114e+7 
           5490       2.5061e+7 
           5510      2.48248e+7 
           5530      2.45421e+7 
           5550      2.46297e+7 
           5570      2.42978e+7 
           5590      2.40073e+7 
           5610      2.38938e+7 
           5630      2.37803e+7 
           5650      2.33691e+7 
           5670      2.31237e+7 
           5690      2.31185e+7 
           5710      2.29141e+7 
           5730      2.28175e+7 
           5750      2.25474e+7 
           5770       2.2397e+7 
           5790      2.21605e+7 
           5810      2.19859e+7 
           5830       2.1792e+7 
           5850      2.15927e+7 
           5870      2.14239e+7 
           5890      2.09627e+7 
           5910       2.1041e+7 
           5930      2.08597e+7 
           5950      2.06314e+7 
           5970      2.05177e+7 
           5990      2.02329e+7 
           6010      2.00974e+7 
           6030      1.99591e+7 
           6050      1.97656e+7 
           6070      1.96601e+7 
           6090       1.9452e+7 
           6110      1.92401e+7 
           6130      1.89994e+7 
           6150      1.85563e+7 
           6170      1.86371e+7 
           6190      1.86614e+7 
           6210      1.85092e+7 
           6230      1.82585e+7 
           6250      1.77831e+7 
           6270      1.80665e+7 
           6290      1.79147e+7 
           6310      1.76319e+7 
           6330      1.75743e+7 
           6350      1.72965e+7 
           6370      1.71714e+7 
           6390      1.71462e+7 
           6410      1.69064e+7 
           6430      1.68369e+7 
           6450        1.649e+7 
           6470      1.65835e+7 
           6490      1.62453e+7 
           6510       1.6199e+7 
           6530      1.60858e+7 
           6550      1.49217e+7 
           6570      1.18103e+7 
           6590        1.554e+7 
           6610       1.5572e+7 
           6630      1.55742e+7 
           6650      1.54721e+7 
           6670      1.53354e+7 
           6690      1.52212e+7 
           6710      1.50971e+7 
           6730      1.49593e+7 
           6750      1.48162e+7 
           6770      1.47731e+7 
           6790       1.4625e+7 
           6810      1.45392e+7 
           6830      1.43774e+7 
           6850      1.42912e+7 
           6870      1.42017e+7 
           6890      1.40924e+7 
           6910      1.39818e+7 
           6930      1.38651e+7 
           6950      1.37667e+7 
           6970      1.36521e+7 
           6990      1.35564e+7 
           7010      1.33388e+7 
           7030      1.33347e+7 
           7050      1.32463e+7 
           7070      1.31481e+7 
           7090      1.30538e+7 
           7110      1.28075e+7 
           7130      1.28188e+7 
           7150       1.2711e+7 
           7170      1.26344e+7 
           7190      1.25205e+7 
           7210       1.2417e+7 
           7230      1.23131e+7 
           7250       1.2241e+7 
           7270      1.21794e+7 
           7290      1.20475e+7 
           7310      1.19358e+7 
           7330      1.18701e+7 
           7350      1.17951e+7 
           7370      1.17513e+7 
           7390      1.16415e+7 
           7410      1.15122e+7 
           7430      1.14148e+7 
           7450      1.13516e+7 
           7470      1.12288e+7 
           7490      1.11817e+7 
           7510      1.11115e+7 
           7530      1.10585e+7 
           7550       1.1006e+7 
           7570      1.08881e+7 
           7590      1.08425e+7 
           7610      1.07648e+7 
           7630       1.0691e+7 
           7650       1.0583e+7 
           7670      1.05035e+7 
           7690      1.04375e+7 
           7710      1.03346e+7 
           7730      1.03052e+7 
           7750      1.02295e+7 
           7770       9.9304e+6 
           7790      1.00999e+7 
           7810       1.0021e+7 
           7830       9.9361e+6 
           7850       9.8403e+6 
           7870      9.76176e+6 
           7890      9.66936e+6 
           7910      9.64522e+6 
           7930      9.56428e+6 
           7950      9.47211e+6 
           7970       9.4786e+6 
           7990       9.3061e+6 
           8010      9.33895e+6 
           8030      9.26678e+6 
           8050      9.21149e+6 
           8070      9.14449e+6 
           8090      9.08321e+6 
           8110      9.02587e+6 
           8130      8.97125e+6 
           8150       8.9097e+6 
           8170      8.84807e+6 
           8190      8.70381e+6 
           8210      8.67543e+6 
           8230      8.61663e+6 
           8250      8.55608e+6 
           8270       8.5814e+6 
           8290      8.50112e+6 
           8310      8.39151e+6 
           8330      8.24268e+6 
           8350      8.33346e+6 
           8370       8.0931e+6 
           8390       8.1905e+6 
           8410      8.17929e+6 
           8430      8.42573e+6 
           8450      8.24344e+6 
           8470      8.06435e+6 
           8490      8.68024e+6 
           8510      7.80716e+6 
           8530      8.83667e+6 
           8550      7.14885e+6 
           8570      9.13241e+6 
           8590      8.68864e+6 
           8610      8.44454e+6 
           8630      9.38524e+6 
           8650      9.20746e+6 
           8670      7.18738e+6 
           8690      9.07699e+6 
           8710      9.27471e+6 
           8730      9.13834e+6 
           8750      7.62193e+6 
           8770      8.94546e+6 
           8790      9.05058e+6 
           8810      8.94547e+6 
           8830      8.81754e+6 
           8850      8.54829e+6 
           8870      7.37879e+6 
           8890      8.67317e+6 
           8910      8.62906e+6 
           8930      8.55833e+6 
           8950      8.58408e+6 
           8970      8.51588e+6 
           8990      8.38947e+6 
           9010      7.21762e+6 
           9030      7.89441e+6 
           9050      8.27124e+6 
           9070      8.05895e+6 
           9090      7.94009e+6 
           9110      8.04825e+6 
           9130      8.05777e+6 
           9150      8.02888e+6 
           9170      7.95985e+6 
           9190      7.87573e+6 
           9210      7.68923e+6 
           9230      6.39476e+6 
           9250      7.44631e+6 
           9270      7.47559e+6 
           9290      7.65122e+6 
           9310      7.60621e+6 
           9330      7.54118e+6 
           9350       7.5055e+6 
           9370      7.46234e+6 
           9390      7.37718e+6 
           9410      7.16035e+6 
           9430      7.23889e+6 
           9450       7.2357e+6 
           9470      7.21021e+6 
           9490       7.1673e+6 
           9510      7.10303e+6 
