# Kurucz ODFNEW /NOVER (2003)
# teff = 19000 K (value for the effective temperature for the model. Temperatures are given in K)
# logg = 4 log(cm/s2) (value for Log(G) for the model.)
# meta = 0.2  (value for the Metallicity for the model.)
# lh = 1.25  (l/Hp where l is the  mixing length of the convective element and Hp is the pressure scale height)
# vtur = 2 km/s (Microturbulence velocity)
# alpha = 0.4  (Alpha)
#
# column 1: WAVELENGTH (ANGSTROM), Wavelength in Angstrom
# column 2: FLUX (ERG/CM2/S/A), Flux in erg/cm2/s/A
          147.2      2.9166e-21 
            151     1.89298e-20 
          155.2     1.34085e-19 
          158.8     6.60718e-19 
            162     2.57268e-18 
            166     1.30857e-17 
          170.3     6.88677e-17 
          173.4     2.18112e-16 
          176.8     7.35471e-16 
          180.2     2.37184e-15 
          181.7     3.91576e-15 
          186.1      1.6335e-14 
            191     7.43669e-14 
          193.9     1.75543e-13 
          198.4     6.34637e-13 
          201.8     1.61799e-12 
            205     3.80243e-12 
          210.5     1.55163e-11 
          216.2     6.19629e-11 
          219.8      1.4334e-10 
            223     2.95109e-10 
          226.8       6.787e-10 
            230      3.16787e-9 
            234      8.26925e-9 
            240      2.70375e-8 
          246.5      9.04588e-8 
          252.4      2.57519e-7 
          256.8      5.35186e-7 
            260      9.24157e-7 
            264        1.755e-6 
          268.5      3.52314e-6 
          273.5      7.41903e-6 
          278.5       1.5314e-5 
            284      3.32866e-5 
            290      7.39841e-5 
            296     0.000158903 
            301      0.00029402 
            308     0.000672691 
            318      0.00208407 
            328      0.00585628 
            338       0.0158904 
            348       0.0401106 
            357       0.0951068 
            366        0.203017 
            375         0.40672 
            385        0.856521 
            395         1.72739 
            405          3.3618 
            414         5.97968 
            422         9.64565 
            430         15.3683 
            441         28.4347 
            451         48.4338 
            460         76.0954 
            470         123.671 
            480         196.033 
            490         305.573 
            500         467.235 
            506         4338.11 
            512         31014.2 
            520         39780.9 
            530         57892.1 
            540         67497.4 
            550          105276 
            560          132600 
            570          177164 
            580          193919 
            590          278700 
            600          357882 
            610          460276 
            620          542034 
            630          649590 
            640          718435 
            650          720021 
            658      1.01673e+6 
            665      1.13029e+6 
            675       1.2821e+6 
            685      1.46164e+6 
            695      1.80751e+6 
            705      2.02044e+6 
            716      2.37337e+6 
            726      2.65295e+6 
            735      2.94766e+6 
            745      3.44322e+6 
            755      3.91035e+6 
            765      4.41344e+6 
            775      4.99726e+6 
            785       5.5919e+6 
            795       6.0936e+6 
            805      6.71401e+6 
            815       7.3375e+6 
            825      8.22564e+6 
            835      8.35886e+6 
            845      9.52185e+6 
            855      1.04048e+7 
            865      1.14329e+7 
            875      1.25508e+7 
            885      1.39869e+7 
            895      1.51665e+7 
            905      1.55181e+7 
            915       2.8585e+7 
            925      1.53285e+8 
            935       4.6618e+8 
            945      1.47081e+9 
            955      2.71622e+9 
            965      3.70785e+9 
            975      5.62622e+8 
            985      3.88757e+9 
            995      3.86537e+9 
           1005      5.04395e+9 
           1015      4.87447e+9 
           1025      1.23196e+9 
           1035      2.96513e+9 
           1045      6.88688e+9 
           1055      6.59008e+9 
           1065       4.8148e+9 
           1075      6.34128e+9 
           1085      5.53402e+9 
           1095      6.64777e+9 
           1105      5.23615e+9 
           1115      4.55296e+9 
           1125      4.51167e+9 
           1135      6.51002e+9 
           1145      5.42583e+9 
           1155      6.02756e+9 
           1165      6.34283e+9 
           1175      4.43084e+9 
           1185      6.35616e+9 
           1195      3.25517e+9 
           1205      1.33581e+9 
           1215      1.03358e+9 
           1225      3.44212e+9 
           1235      6.25797e+9 
           1245      6.65609e+9 
           1255      6.42917e+9 
           1265      5.67251e+9 
           1275       6.1359e+9 
           1285      6.58856e+9 
           1295      3.17688e+9 
           1305      2.65764e+9 
           1315      6.03887e+9 
           1325      5.79313e+9 
           1335      5.06343e+9 
           1345       5.9295e+9 
           1355        5.759e+9 
           1365      4.87141e+9 
           1375      5.00048e+9 
           1385      5.02535e+9 
           1395      3.94419e+9 
           1405      4.28176e+9 
           1415      4.41695e+9 
           1425      4.68893e+9 
           1435      4.71985e+9 
           1442      5.03069e+9 
           1447      4.96342e+9 
           1455      4.82215e+9 
           1465      4.45586e+9 
           1475      4.44101e+9 
           1485      4.36073e+9 
           1495      4.37473e+9 
           1505       3.9374e+9 
           1512      3.54492e+9 
           1517      3.77452e+9 
           1525      3.87141e+9 
           1535      3.37345e+9 
           1545      3.47844e+9 
           1555      3.31169e+9 
           1565      3.40702e+9 
           1575      3.63635e+9 
           1585      3.68058e+9 
           1595       3.7175e+9 
           1605      3.69531e+9 
           1615      3.71743e+9 
           1625      3.52201e+9 
           1635      3.75133e+9 
           1645      3.73733e+9 
           1655      3.47939e+9 
           1665      3.76903e+9 
           1672      3.61639e+9 
           1677      3.72104e+9 
           1685       3.7934e+9 
           1695      3.55235e+9 
           1705      3.36993e+9 
           1715      3.13798e+9 
           1725       3.1179e+9 
           1735      3.30296e+9 
           1745      3.17972e+9 
           1755      3.28094e+9 
           1765      3.06997e+9 
           1775      3.02041e+9 
           1785      3.05808e+9 
           1795      3.24813e+9 
           1805      3.25606e+9 
           1815      2.86805e+9 
           1825      3.02243e+9 
           1835      2.85018e+9 
           1845       2.6175e+9 
           1855      2.51239e+9 
           1865      2.57433e+9 
           1875      2.85128e+9 
           1885      2.54056e+9 
           1895      2.36821e+9 
           1905      2.59816e+9 
           1915      2.40622e+9 
           1925      2.33248e+9 
           1935      2.46479e+9 
           1945      2.46969e+9 
           1955      2.27643e+9 
           1967      2.51728e+9 
           1976      2.61404e+9 
           1984      2.41269e+9 
           1995      2.35047e+9 
           2005      2.44854e+9 
           2015      2.31954e+9 
           2025      2.50083e+9 
           2035      2.27226e+9 
           2045      2.33234e+9 
           2055      2.21531e+9 
           2065      2.25725e+9 
           2074      2.36785e+9 
           2078      2.15782e+9 
           2085      2.28305e+9 
           2095      2.13633e+9 
           2105      2.19039e+9 
           2115      2.19811e+9 
           2125      2.22636e+9 
           2135      2.13761e+9 
           2145      2.07769e+9 
           2155       2.1687e+9 
           2165      2.13191e+9 
           2175      2.10526e+9 
           2185      2.02544e+9 
           2195      2.07278e+9 
           2205      2.03179e+9 
           2215      1.97693e+9 
           2225      1.89589e+9 
           2235      1.95129e+9 
           2245      1.93215e+9 
           2255      1.84237e+9 
           2265      1.89708e+9 
           2275      1.89878e+9 
           2285       1.9073e+9 
           2295      1.80632e+9 
           2305      1.80295e+9 
           2315      1.73546e+9 
           2325      1.70829e+9 
           2335       1.6228e+9 
           2345      1.61851e+9 
           2355      1.63332e+9 
           2365      1.58149e+9 
           2375      1.59197e+9 
           2385      1.54342e+9 
           2395      1.59742e+9 
           2405      1.52404e+9 
           2415      1.53909e+9 
           2425      1.55404e+9 
           2435        1.485e+9 
           2445      1.52267e+9 
           2455      1.50647e+9 
           2465      1.48367e+9 
           2475      1.44766e+9 
           2485      1.47996e+9 
           2495      1.40518e+9 
           2505       1.4569e+9 
           2513      1.37564e+9 
           2518      1.42888e+9 
           2525      1.37181e+9 
           2535       1.3647e+9 
           2545      1.30526e+9 
           2555      1.35514e+9 
           2565      1.33606e+9 
           2575       1.3707e+9 
           2585       1.3635e+9 
           2595      1.35743e+9 
           2605      1.33148e+9 
           2615      1.31945e+9 
           2625      1.31089e+9 
           2635      1.30736e+9 
           2645      1.32237e+9 
           2655      1.31366e+9 
           2665      1.25889e+9 
           2675       1.2804e+9 
           2685      1.26754e+9 
           2695      1.23439e+9 
           2705      1.23079e+9 
           2715      1.21136e+9 
           2725      1.19371e+9 
           2735      1.21063e+9 
           2745      1.14843e+9 
           2755      1.14607e+9 
           2765      1.14789e+9 
           2775      1.16439e+9 
           2785      1.15124e+9 
           2795      1.08302e+9 
           2805      1.11702e+9 
           2815      1.12669e+9 
           2825      1.10905e+9 
           2835      1.06046e+9 
           2845      1.05953e+9 
           2855      1.06146e+9 
           2865      1.07407e+9 
           2875      1.05522e+9 
           2885      1.04914e+9 
           2895      1.03988e+9 
           2910      1.03012e+9 
           2930      1.00614e+9 
           2950      9.81942e+8 
           2970      9.72392e+8 
           2990      9.51042e+8 
           3010      9.36782e+8 
           3030      9.28764e+8 
           3050      9.09172e+8 
           3070      8.93048e+8 
           3090      8.72095e+8 
           3110      8.58188e+8 
           3130      8.45641e+8 
           3150       8.3057e+8 
           3170       8.1285e+8 
           3190      7.88918e+8 
           3210      7.83797e+8 
           3230      7.71088e+8 
           3250      7.59808e+8 
           3270      7.47476e+8 
           3290      7.34379e+8 
           3310      7.23777e+8 
           3330      7.09946e+8 
           3350      6.95854e+8 
           3370      6.85231e+8 
           3390      6.74547e+8 
           3410      6.64195e+8 
           3430      6.50452e+8 
           3450       6.3771e+8 
           3470      6.27971e+8 
           3490      6.17639e+8 
           3510      6.09306e+8 
           3530      6.00819e+8 
           3550      5.91378e+8 
           3570       5.8409e+8 
           3590      5.69621e+8 
           3610      5.61072e+8 
           3630      5.53334e+8 
           3640      5.52458e+8 
           3650      5.46692e+8 
           3670      5.40442e+8 
           3690      5.27711e+8 
           3710      5.11061e+8 
           3730      4.94276e+8 
           3750      5.41713e+8 
           3770      5.48837e+8 
           3790       5.9074e+8 
           3810      6.22809e+8 
           3830      5.33958e+8 
           3850      6.40967e+8 
           3870      6.51339e+8 
           3890      5.03423e+8 
           3910      6.50943e+8 
           3930      6.28943e+8 
           3950      6.27492e+8 
           3970      4.68853e+8 
           3990      5.99072e+8 
           4010      6.03232e+8 
           4030      5.64483e+8 
           4050      5.89584e+8 
           4070      5.66064e+8 
           4090      5.20702e+8 
           4110      4.47938e+8 
           4130      5.32487e+8 
           4150      5.31435e+8 
           4170      5.29686e+8 
           4190      5.25543e+8 
           4210      5.20646e+8 
           4230      5.10555e+8 
           4250      4.99379e+8 
           4270      4.82707e+8 
           4290      4.82127e+8 
           4310      4.70504e+8 
           4330      4.18988e+8 
           4350      3.78193e+8 
           4370      4.45915e+8 
           4390      4.33983e+8 
           4410      4.39335e+8 
           4430      4.31192e+8 
           4450      4.29189e+8 
           4470      4.03392e+8 
           4490      4.10999e+8 
           4510      4.11678e+8 
           4530      4.02561e+8 
           4550      3.97556e+8 
           4570      3.92334e+8 
           4590      3.86133e+8 
           4610      3.79263e+8 
           4630      3.72461e+8 
           4650      3.65622e+8 
           4670      3.62843e+8 
           4690      3.59703e+8 
           4710       3.4419e+8 
           4730      3.45192e+8 
           4750      3.40171e+8 
           4770      3.40222e+8 
           4790      3.33857e+8 
           4810      3.25599e+8 
           4830      3.19323e+8 
           4850      2.91758e+8 
           4870      2.56899e+8 
           4890       3.0654e+8 
           4910      3.04189e+8 
           4930      2.92767e+8 
           4950      2.97355e+8 
           4970      2.94662e+8 
           4990      2.89657e+8 
           5010      2.77128e+8 
           5030       2.8008e+8 
           5050      2.71337e+8 
           5070      2.74007e+8 
           5090      2.69604e+8 
           5110      2.64959e+8 
           5130      2.60335e+8 
           5150      2.56925e+8 
           5170      2.55476e+8 
           5190      2.51833e+8 
           5210      2.44782e+8 
           5230      2.45516e+8 
           5250      2.42446e+8 
           5270      2.38453e+8 
           5290      2.36613e+8 
           5310       2.3307e+8 
           5330      2.29176e+8 
           5350      2.25584e+8 
           5370      2.24337e+8 
           5390      2.21418e+8 
           5410      2.17982e+8 
           5430      2.14373e+8 
           5450      2.11991e+8 
           5470      2.08693e+8 
           5490      2.07513e+8 
           5510       2.0457e+8 
           5530      2.01799e+8 
           5550       1.9965e+8 
           5570      1.96835e+8 
           5590      1.94802e+8 
           5610      1.91895e+8 
           5630      1.90368e+8 
           5650      1.85081e+8 
           5670      1.83168e+8 
           5690      1.82081e+8 
           5710      1.80669e+8 
           5730      1.78698e+8 
           5750      1.76284e+8 
           5770      1.74509e+8 
           5790      1.72328e+8 
           5810      1.69994e+8 
           5830      1.67899e+8 
           5850      1.66026e+8 
           5870      1.58971e+8 
           5890      1.60673e+8 
           5910      1.59814e+8 
           5930      1.58181e+8 
           5950      1.55268e+8 
           5970      1.54557e+8 
           5990      1.52224e+8 
           6010      1.51129e+8 
           6030      1.49186e+8 
           6050      1.47532e+8 
           6070      1.45795e+8 
           6090      1.43874e+8 
           6110      1.42509e+8 
           6130      1.40929e+8 
           6150      1.37992e+8 
           6170      1.37445e+8 
           6190      1.36116e+8 
           6210      1.34508e+8 
           6230      1.32967e+8 
           6250      1.30873e+8 
           6270        1.298e+8 
           6290      1.28318e+8 
           6310      1.26607e+8 
           6330      1.25583e+8 
           6350      1.23065e+8 
           6370        1.222e+8 
           6390      1.21197e+8 
           6410      1.19836e+8 
           6430      1.18928e+8 
           6450       1.1735e+8 
           6470      1.16004e+8 
           6490      1.14807e+8 
           6510      1.13223e+8 
           6530      1.11506e+8 
           6550      1.05461e+8 
           6570      9.21032e+7 
           6590      1.06552e+8 
           6610      1.07228e+8 
           6630      1.06488e+8 
           6650      1.05379e+8 
           6670      1.03199e+8 
           6690      1.02195e+8 
           6710      1.02039e+8 
           6730      1.00943e+8 
           6750      1.00015e+8 
           6770      9.89972e+7 
           6790      9.73526e+7 
           6810      9.67897e+7 
           6830      9.56584e+7 
           6850      9.48758e+7 
           6870      9.38932e+7 
           6890      9.29045e+7 
           6910      9.19414e+7 
           6930      9.07918e+7 
           6950      9.00984e+7 
           6970      8.91943e+7 
           6990      8.82143e+7 
           7010      8.72594e+7 
           7030      8.63901e+7 
           7050      8.54231e+7 
           7070      8.33125e+7 
           7090      8.38924e+7 
           7110      8.27429e+7 
           7130      8.19681e+7 
           7150      8.12375e+7 
           7170      8.04991e+7 
           7190      7.97604e+7 
           7210      7.89852e+7 
           7230      7.71939e+7 
           7250      7.72416e+7 
           7270      7.66533e+7 
           7290      7.53401e+7 
           7310      7.51258e+7 
           7330      7.44079e+7 
           7350      7.37176e+7 
           7370       7.2999e+7 
           7390       7.2287e+7 
           7410      7.15886e+7 
           7430      7.06987e+7 
           7450      7.01296e+7 
           7470      6.93022e+7 
           7490      6.87379e+7 
           7510      6.81385e+7 
           7530      6.74913e+7 
           7550      6.68897e+7 
           7570      6.62803e+7 
           7590      6.55783e+7 
           7610      6.50279e+7 
           7630      6.44137e+7 
           7650      6.38057e+7 
           7670      6.32114e+7 
           7690      6.26149e+7 
           7710      6.20388e+7 
           7730      6.14244e+7 
           7750      6.08807e+7 
           7770      5.96049e+7 
           7790      5.97611e+7 
           7810      5.91849e+7 
           7830      5.86746e+7 
           7850      5.78698e+7 
           7870       5.7421e+7 
           7890      5.67078e+7 
           7910       5.6537e+7 
           7930      5.60641e+7 
           7950      5.52078e+7 
           7970      5.49536e+7 
           7990      5.40633e+7 
           8010      5.39939e+7 
           8030      5.34956e+7 
           8050      5.29697e+7 
           8070      5.25721e+7 
           8090      5.20184e+7 
           8110      5.15617e+7 
           8130      5.11464e+7 
           8150      5.06734e+7 
           8170      5.03082e+7 
           8190      4.97539e+7 
           8210       4.9149e+7 
           8230      4.86056e+7 
           8250      4.85446e+7 
           8270      4.78926e+7 
           8290      4.76667e+7 
           8310      4.72242e+7 
           8330      4.68772e+7 
           8350      4.62741e+7 
           8370      4.59258e+7 
           8390       4.5668e+7 
           8410       4.5245e+7 
           8430      4.47692e+7 
           8450      4.38495e+7 
           8470      4.38632e+7 
           8490       4.3535e+7 
           8510      4.28374e+7 
           8530      4.29909e+7 
           8550      4.13991e+7 
           8570      4.28665e+7 
