# Kurucz ODFNEW /NOVER (2003)
# teff = 7250 K (value for the effective temperature for the model. Temperatures are given in K)
# logg = 4.5 log(cm/s2) (value for Log(G) for the model.)
# meta = -2.5  (value for the Metallicity for the model.)
# lh = 1.25  (l/Hp where l is the  mixing length of the convective element and Hp is the pressure scale height)
# vtur = 2 km/s (Microturbulence velocity)
# alpha = 0  (Alpha)
#
# column 1: WAVELENGTH (ANGSTROM), Wavelength in Angstrom
# column 2: FLUX (ERG/CM2/S/A), Flux in erg/cm2/s/A
            318     1.21587e-23 
            328     2.40271e-22 
            338     2.53634e-21 
            348     2.30214e-20 
            357     1.50161e-19 
            366     1.42678e-20 
            375     7.11078e-20 
            385     3.85866e-19 
            395     1.91029e-18 
            405     8.69469e-18 
            414     3.18227e-17 
            422     9.59043e-17 
            430     2.76608e-16 
            441     1.10967e-15 
            451     3.68115e-15 
            460     1.03262e-14 
            470     3.09109e-14 
            480     8.80327e-14 
            490       2.395e-13 
            500     6.23352e-13 
            506     1.43676e-12 
            512     2.78037e-12 
            520     5.57738e-12 
            530     1.29895e-11 
            540     2.87444e-11 
            550       6.242e-11 
            560     1.30678e-10 
            570     2.65821e-10 
            580     5.20232e-10 
            590      1.01546e-9 
            600      1.91211e-9 
            610      3.51823e-9 
            620      6.33246e-9 
            630      1.11624e-8 
            640      1.92982e-8 
            650      3.27411e-8 
            658      4.93287e-8 
            665      6.99645e-8 
            675      1.13641e-7 
            685      1.81635e-7 
            695       2.8591e-7 
            705       4.4348e-7 
            716      7.07257e-7 
            726      1.06598e-6 
            735      1.52568e-6 
            745      2.24643e-6 
            755      3.26888e-6 
            765      4.70306e-6 
            775      6.69379e-6 
            785      9.42764e-6 
            795      1.31451e-5 
            805      1.81561e-5 
            815      2.48444e-5 
            825      3.36991e-5 
            835      4.53291e-5 
            845      6.04698e-5 
            855      8.00329e-5 
            865      0.00010512 
            875     0.000137047 
            885      0.00017743 
            895     0.000228142 
            905     0.000291398 
            915        0.448714 
            925          2.8345 
            935         4.90269 
            945         8.51899 
            955         11.9654 
            965         15.7424 
            975         13.6219 
            985         26.4484 
            995          32.681 
           1005         39.2833 
           1015         40.5024 
           1025         33.2278 
           1035         62.1877 
           1045         87.9498 
           1055         103.529 
           1065          128.76 
           1075         154.672 
           1085          188.13 
           1095         217.207 
           1105          268.79 
           1115         327.238 
           1125         372.078 
           1135         443.925 
           1145         505.227 
           1155         550.399 
           1165         615.519 
           1175         651.692 
           1185         790.227 
           1195         613.203 
           1205         444.128 
           1215         213.162 
           1225         523.084 
           1235         1022.82 
           1245         519.489 
           1255         1406.67 
           1265         2109.41 
           1275         2528.33 
           1285         3090.54 
           1295         3677.83 
           1305          4293.5 
           1315         5038.24 
           1325         5812.01 
           1335         6640.34 
           1345         7702.33 
           1355         8690.51 
           1365         9999.82 
           1375         11175.4 
           1385         12401.5 
           1395         13893.9 
           1405         15259.3 
           1415         17386.5 
           1425         18758.3 
           1435         20682.2 
           1442         22732.1 
           1447         22949.5 
           1455         25267.4 
           1465           26672 
           1475         29497.7 
           1485         32048.6 
           1495           35279 
           1505         38633.9 
           1512         41047.1 
           1517         41197.7 
           1525         44126.2 
           1535         47190.6 
           1545         49619.8 
           1555         52521.9 
           1565           53251 
           1575         58238.6 
           1585         61925.4 
           1595         66203.9 
           1605         70219.3 
           1615         77828.1 
           1625         87633.1 
           1635          103973 
           1645          154324 
           1655          265125 
           1665          875594 
           1672      1.33846e+6 
           1677      2.08517e+6 
           1685      3.19432e+6 
           1695      4.46459e+6 
           1705      5.94027e+6 
           1715      7.40734e+6 
           1725      8.22313e+6 
           1735      9.29989e+6 
           1745      9.48126e+6 
           1755      1.02953e+7 
           1765      9.64878e+6 
           1775       1.0598e+7 
           1785      1.08923e+7 
           1795      1.16232e+7 
           1805       1.1397e+7 
           1815      1.16282e+7 
           1825       1.1405e+7 
           1835      1.19579e+7 
           1845      1.13095e+7 
           1855      1.19401e+7 
           1865      1.24742e+7 
           1875      1.25611e+7 
           1885      1.27346e+7 
           1895      1.31262e+7 
           1905      1.29379e+7 
           1915      1.35068e+7 
           1925      1.39117e+7 
           1935      1.34182e+7 
           1945      1.42316e+7 
           1955      1.43357e+7 
           1967      1.47904e+7 
           1976      1.44167e+7 
           1984      1.44901e+7 
           1995      1.47331e+7 
           2005      1.44271e+7 
           2015      1.46953e+7 
           2025      1.41693e+7 
           2035      1.52539e+7 
           2045      1.56015e+7 
           2055      1.53608e+7 
           2065      1.54023e+7 
           2074      1.61763e+7 
           2078      1.61437e+7 
           2085      1.60762e+7 
           2095      1.59532e+7 
           2105       1.5904e+7 
           2115      1.62567e+7 
           2125      1.63586e+7 
           2135      1.58536e+7 
           2145      1.65634e+7 
           2155      1.64441e+7 
           2165       1.6041e+7 
           2175      1.62339e+7 
           2185      1.66474e+7 
           2195      1.71936e+7 
           2205      1.68907e+7 
           2215      1.63132e+7 
           2225      1.68206e+7 
           2235        1.773e+7 
           2245      1.73041e+7 
           2255      1.67086e+7 
           2265      1.63507e+7 
           2275      1.71651e+7 
           2285      1.74041e+7 
           2295      1.69517e+7 
           2305      1.73991e+7 
           2315      1.74164e+7 
           2325      1.74321e+7 
           2335      1.74938e+7 
           2345      1.64516e+7 
           2355       1.7848e+7 
           2365      1.68952e+7 
           2375      1.75714e+7 
           2385      1.62157e+7 
           2395       1.7444e+7 
           2405      1.73709e+7 
           2415      1.74547e+7 
           2425      1.82316e+7 
           2435      1.78147e+7 
           2445      1.81041e+7 
           2455      1.81063e+7 
           2465      1.78078e+7 
           2475       1.7575e+7 
           2485      1.76285e+7 
           2495      1.74469e+7 
           2505      1.85086e+7 
           2513      1.76476e+7 
           2518      1.74523e+7 
           2525      1.70153e+7 
           2535       1.7073e+7 
           2545      1.70862e+7 
           2555      1.81987e+7 
           2565      1.82025e+7 
           2575      1.87517e+7 
           2585      1.89176e+7 
           2595       1.8842e+7 
           2605      1.85066e+7 
           2615       1.8388e+7 
           2625      1.87205e+7 
           2635      1.88679e+7 
           2645      2.00308e+7 
           2655      2.00095e+7 
           2665      1.93472e+7 
           2675      1.96956e+7 
           2685      2.00603e+7 
           2695      1.96222e+7 
           2705      1.97148e+7 
           2715      1.90843e+7 
           2725      1.91444e+7 
           2735      1.94287e+7 
           2745      1.82859e+7 
           2755      1.85783e+7 
           2765      1.92898e+7 
           2775      1.97508e+7 
           2785       1.9531e+7 
           2795        1.696e+7 
           2805      1.82235e+7 
           2815      2.03292e+7 
           2825      2.02139e+7 
           2835      1.99023e+7 
           2845      1.97571e+7 
           2855      1.89492e+7 
           2865       1.9663e+7 
           2875      1.97056e+7 
           2885      1.99675e+7 
           2895      2.02034e+7 
           2910      2.04681e+7 
           2930      2.01238e+7 
           2950      1.99185e+7 
           2970      2.00107e+7 
           2990      2.00419e+7 
           3010      2.00375e+7 
           3030       2.0089e+7 
           3050       2.0148e+7 
           3070      2.01681e+7 
           3090       2.0164e+7 
           3110      2.01458e+7 
           3130      2.01768e+7 
           3150      2.02373e+7 
           3170      2.02343e+7 
           3190      1.98555e+7 
           3210      1.99682e+7 
           3230      1.97535e+7 
           3250      1.99577e+7 
           3270      2.01518e+7 
           3290      2.01731e+7 
           3310      2.01546e+7 
           3330       1.9971e+7 
           3350      1.97819e+7 
           3370      1.97565e+7 
           3390      1.96821e+7 
           3410       1.9794e+7 
           3430      1.97531e+7 
           3450      1.95991e+7 
           3470      1.95888e+7 
           3490      1.96142e+7 
           3510      1.96445e+7 
           3530      1.95879e+7 
           3550      1.96061e+7 
           3570      1.93341e+7 
           3590      1.92955e+7 
           3610      1.92624e+7 
           3630      1.92975e+7 
           3640      1.93315e+7 
           3650      1.93623e+7 
           3670      1.94153e+7 
           3690      1.87578e+7 
           3710      1.89111e+7 
           3730      1.84564e+7 
           3750      2.14221e+7 
           3770       2.2029e+7 
           3790      2.47144e+7 
           3810      2.75123e+7 
           3830      2.31748e+7 
           3850      2.93123e+7 
           3870      3.12237e+7 
           3890       2.1965e+7 
           3910      3.12806e+7 
           3930      3.16582e+7 
           3950      3.13215e+7 
           3970      2.14649e+7 
           3990      3.06091e+7 
           4010       3.2399e+7 
           4030      3.24702e+7 
           4050      3.22055e+7 
           4070      3.12393e+7 
           4090       2.7392e+7 
           4110      2.26701e+7 
           4130      3.05745e+7 
           4150      3.12255e+7 
           4170      3.12733e+7 
           4190      3.10699e+7 
           4210      3.08456e+7 
           4230      3.05567e+7 
           4250      3.04429e+7 
           4270      3.01274e+7 
           4290       2.9886e+7 
           4310      2.89968e+7 
           4330      2.47109e+7 
           4350       2.1906e+7 
           4370      2.84112e+7 
           4390      2.88762e+7 
           4410      2.88628e+7 
           4430      2.88312e+7 
           4450      2.86735e+7 
           4470      2.85174e+7 
           4490      2.83499e+7 
           4510       2.8186e+7 
           4530      2.79707e+7 
           4550      2.77745e+7 
           4570      2.76402e+7 
           4590      2.74481e+7 
           4610      2.72885e+7 
           4630      2.70972e+7 
           4650      2.69255e+7 
           4670      2.67559e+7 
           4690      2.65693e+7 
           4710      2.63543e+7 
           4730      2.62161e+7 
           4750      2.59991e+7 
           4770      2.57981e+7 
           4790      2.55667e+7 
           4810      2.52471e+7 
           4830      2.45766e+7 
           4850      2.14867e+7 
           4870      1.83894e+7 
           4890      2.37818e+7 
           4910      2.43526e+7 
           4930      2.43197e+7 
           4950       2.4262e+7 
           4970      2.41632e+7 
           4990      2.40243e+7 
           5010      2.38389e+7 
           5030      2.37227e+7 
           5050      2.35558e+7 
           5070      2.34129e+7 
           5090       2.3254e+7 
           5110      2.31011e+7 
           5130      2.29428e+7 
           5150      2.27778e+7 
           5170      2.24694e+7 
           5190      2.23889e+7 
           5210      2.23075e+7 
           5230      2.21524e+7 
           5250      2.20468e+7 
           5270      2.18445e+7 
           5290      2.17483e+7 
           5310      2.16035e+7 
           5330      2.14284e+7 
           5350      2.13172e+7 
           5370      2.11613e+7 
           5390      2.10253e+7 
           5410      2.08727e+7 
           5430      2.07422e+7 
           5450       2.0603e+7 
           5470      2.04765e+7 
           5490      2.03476e+7 
           5510      2.02125e+7 
           5530      2.00752e+7 
           5550      1.99467e+7 
           5570      1.98073e+7 
           5590      1.96719e+7 
           5610      1.95451e+7 
           5630      1.94219e+7 
           5650      1.92941e+7 
           5670      1.91641e+7 
           5690      1.90389e+7 
           5710      1.89127e+7 
           5730      1.87901e+7 
           5750      1.86641e+7 
           5770      1.85418e+7 
           5790      1.84195e+7 
           5810      1.82974e+7 
           5830      1.81776e+7 
           5850      1.80557e+7 
           5870      1.79373e+7 
           5890      1.77581e+7 
           5910      1.77017e+7 
           5930      1.75858e+7 
           5950      1.74709e+7 
           5970      1.73562e+7 
           5990      1.72415e+7 
           6010       1.7128e+7 
           6030      1.70156e+7 
           6050      1.69053e+7 
           6070      1.67952e+7 
           6090       1.6685e+7 
           6110       1.6576e+7 
           6130       1.6463e+7 
           6150      1.63581e+7 
           6170      1.62482e+7 
           6190      1.61483e+7 
           6210      1.60445e+7 
           6230      1.59387e+7 
           6250       1.5832e+7 
           6270      1.57341e+7 
           6290      1.56323e+7 
           6310      1.55295e+7 
           6330      1.54297e+7 
           6350      1.53298e+7 
           6370      1.52309e+7 
           6390       1.5133e+7 
           6410      1.50323e+7 
           6430      1.49362e+7 
           6450      1.48156e+7 
           6470       1.4699e+7 
           6490      1.45701e+7 
           6510      1.44078e+7 
           6530      1.40961e+7 
           6550      1.29187e+7 
           6570      1.08668e+7 
           6590      1.35691e+7 
           6610      1.38915e+7 
           6630      1.39132e+7 
           6650      1.38672e+7 
           6670      1.37977e+7 
           6690      1.37414e+7 
           6710      1.36546e+7 
           6730      1.35685e+7 
           6750      1.34825e+7 
           6770      1.33972e+7 
           6790      1.33126e+7 
           6810      1.32281e+7 
           6830      1.31442e+7 
           6850      1.30612e+7 
           6870      1.29797e+7 
           6890      1.28981e+7 
           6910      1.28164e+7 
           6930      1.27363e+7 
           6950       1.2656e+7 
           6970      1.25765e+7 
           6990      1.24977e+7 
           7010      1.24196e+7 
           7030      1.23422e+7 
           7050      1.22655e+7 
           7070      1.21886e+7 
           7090      1.21125e+7 
           7110      1.20362e+7 
           7130      1.19621e+7 
           7150      1.18872e+7 
           7170      1.18136e+7 
           7190      1.17407e+7 
           7210      1.16677e+7 
           7230      1.15967e+7 
           7250       1.1525e+7 
           7270      1.14538e+7 
           7290      1.13825e+7 
           7310      1.13126e+7 
           7330      1.12425e+7 
           7350      1.11744e+7 
           7370      1.11056e+7 
           7390      1.10372e+7 
           7410      1.09688e+7 
           7430      1.09017e+7 
           7450      1.08351e+7 
           7470       1.0769e+7 
           7490      1.07029e+7 
           7510      1.06379e+7 
           7530      1.05735e+7 
           7550      1.05096e+7 
           7570      1.04456e+7 
           7590      1.03821e+7 
           7610      1.03192e+7 
           7630      1.02567e+7 
           7650      1.01942e+7 
           7670      1.01321e+7 
           7690      1.00718e+7 
           7710      1.00101e+7 
           7730      9.95085e+6 
           7750      9.89015e+6 
           7770      9.82682e+6 
           7790       9.7727e+6 
           7810      9.71406e+6 
           7830      9.65529e+6 
           7850      9.59759e+6 
           7870      9.54036e+6 
           7890      9.48358e+6 
           7910      9.42725e+6 
           7930      9.37017e+6 
           7950      9.31474e+6 
           7970      9.26034e+6 
           7990      9.20519e+6 
           8010      9.15047e+6 
           8030      9.09677e+6 
           8050      9.04232e+6 
           8070      8.98946e+6 
           8090      8.93586e+6 
           8110      8.88382e+6 
           8130      8.83161e+6 
           8150      8.77925e+6 
           8170      8.72785e+6 
           8190      8.67404e+6 
           8210      8.62848e+6 
           8230      8.57825e+6 
           8250      8.53007e+6 
           8270       8.4828e+6 
           8290      8.43479e+6 
           8310       8.3866e+6 
           8330      8.33552e+6 
           8350      8.29078e+6 
           8370      8.24045e+6 
           8390       8.1905e+6 
           8410      8.14094e+6 
           8430        8.096e+6 
           8450      8.04875e+6 
           8470      7.97192e+6 
           8490       7.9689e+6 
           8510      7.80976e+6 
           8530      7.88968e+6 
           8550      7.62915e+6 
           8570      7.82595e+6 
           8590      7.65374e+6 
           8610      7.55978e+6 
           8630      7.72813e+6 
           8650      7.61439e+6 
           8670      7.12223e+6 
           8690      7.58387e+6 
           8710      7.60221e+6 
           8730      7.49031e+6 
           8750      6.82775e+6 
           8770      7.32368e+6 
           8790      7.45471e+6 
           8810      7.43498e+6 
           8830      7.36027e+6 
           8850      7.06441e+6 
           8870      6.48289e+6 
           8890      7.16496e+6 
           8910      7.23818e+6 
           8930      7.22705e+6 
           8950      7.18962e+6 
           8970      7.12341e+6 
           8990      6.97941e+6 
           9010      6.22498e+6 
           9030      6.57629e+6 
           9050      6.90834e+6 
           9070      6.93972e+6 
           9090       6.9188e+6 
           9110      6.89889e+6 
           9130      6.86463e+6 
           9150      6.82205e+6 
           9170      6.76858e+6 
           9190      6.68563e+6 
           9210      6.48119e+6 
           9230      5.65318e+6 
           9250      6.35261e+6 
           9270      6.52821e+6 
           9290      6.54815e+6 
           9310      6.53221e+6 
           9330       6.5051e+6 
