# Kurucz ODFNEW /NOVER (2003)
# teff = 27000 K (value for the effective temperature for the model. Temperatures are given in K)
# logg = 5 log(cm/s2) (value for Log(G) for the model.)
# meta = 0.2  (value for the Metallicity for the model.)
# lh = 1.25  (l/Hp where l is the  mixing length of the convective element and Hp is the pressure scale height)
# vtur = 2 km/s (Microturbulence velocity)
# alpha = 0.4  (Alpha)
#
# column 1: WAVELENGTH (ANGSTROM), Wavelength in Angstrom
# column 2: FLUX (ERG/CM2/S/A), Flux in erg/cm2/s/A
          147.2     1.61643e-11 
            151     5.72356e-11 
          155.2     2.15915e-10 
          158.8     6.38623e-10 
            162      1.61234e-9 
            166      4.89136e-9 
          170.3      1.51798e-8 
          173.4      3.35137e-8 
          176.8      7.71061e-8 
          180.2      1.72238e-7 
          181.7      2.43098e-7 
          186.1      6.50736e-7 
            191      1.85726e-6 
          193.9      3.37659e-6 
          198.4      8.25755e-6 
          201.8      1.58312e-5 
            205      2.86798e-5 
          210.5      7.66828e-5 
          216.2     0.000202314 
          219.8     0.000364533 
            223     0.000606211 
          226.8      0.00109515 
            230       0.0341877 
            234       0.0738378 
            240        0.159822 
          246.5        0.354513 
          252.4        0.713947 
          256.8         1.13288 
            260         1.71813 
            264         2.54277 
          268.5          4.0965 
          273.5         6.71142 
          278.5         10.7959 
            284         19.5413 
            290         32.8068 
            296         54.3492 
            301          81.104 
            308         148.191 
            318         323.784 
            328         625.233 
            338         1247.34 
            348         2303.57 
            357         10276.9 
            366         20768.8 
            375         30261.6 
            385         49119.1 
            395         92182.5 
            405          133500 
            414          195770 
            422          255928 
            430          348347 
            441          498649 
            451          669238 
            460          848193 
            470      1.14543e+6 
            480        1.494e+6 
            490      1.96022e+6 
            500       2.5054e+6 
            506      9.46959e+6 
            512       6.7616e+7 
            520      7.30192e+7 
            530       8.4117e+7 
            540      8.40523e+7 
            550      1.19039e+8 
            560      1.37321e+8 
            570      1.57962e+8 
            580       1.4993e+8 
            590      1.90118e+8 
            600      1.99698e+8 
            610      2.28822e+8 
            620      2.43384e+8 
            630      2.51162e+8 
            640      2.29956e+8 
            650      2.17344e+8 
            658      2.64898e+8 
            665      3.05839e+8 
            675      3.21889e+8 
            685      3.23093e+8 
            695      4.21603e+8 
            705      4.19354e+8 
            716      4.75123e+8 
            726      4.83459e+8 
            735      5.03554e+8 
            745      5.63039e+8 
            755      5.90461e+8 
            765      6.28034e+8 
            775      6.62918e+8 
            785      7.02442e+8 
            795      7.13493e+8 
            805      7.35873e+8 
            815       7.5241e+8 
            825      8.09058e+8 
            835      7.01831e+8 
            845      8.22075e+8 
            855      8.35321e+8 
            865      8.81876e+8 
            875       9.2216e+8 
            885       9.8566e+8 
            895      1.02193e+9 
            905      1.00435e+9 
            915      1.15373e+9 
            925      4.49676e+9 
            935     1.04496e+10 
            945     2.45289e+10 
            955     3.48655e+10 
            965     4.55486e+10 
            975      8.10625e+9 
            985     4.28712e+10 
            995     3.86499e+10 
           1005     4.47887e+10 
           1015     4.40238e+10 
           1025     1.64529e+10 
           1035     3.48597e+10 
           1045     5.51075e+10 
           1055     5.09166e+10 
           1065     3.72104e+10 
           1075     4.44887e+10 
           1085     4.08243e+10 
           1095     4.58821e+10 
           1105     3.98011e+10 
           1115     3.69237e+10 
           1125     2.75127e+10 
           1135     3.97515e+10 
           1145     3.37958e+10 
           1155     3.55994e+10 
           1165     3.57931e+10 
           1175     2.12101e+10 
           1185     3.36802e+10 
           1195     2.95838e+10 
           1205     1.81502e+10 
           1215      1.2313e+10 
           1225     2.48284e+10 
           1235     3.14677e+10 
           1245     3.09521e+10 
           1255     3.02814e+10 
           1265     3.08592e+10 
           1275     3.16122e+10 
           1285      3.1332e+10 
           1295     1.99652e+10 
           1305      2.1375e+10 
           1315     3.00974e+10 
           1325     2.76363e+10 
           1335     2.70716e+10 
           1345     2.63353e+10 
           1355      2.6699e+10 
           1365     2.35412e+10 
           1375     2.26899e+10 
           1385     2.19157e+10 
           1395     1.39584e+10 
           1405     1.60022e+10 
           1415     1.95776e+10 
           1425      1.9211e+10 
           1435     1.99339e+10 
           1442     2.07373e+10 
           1447     2.03784e+10 
           1455      1.9605e+10 
           1465     1.80007e+10 
           1475     1.82735e+10 
           1485     1.77907e+10 
           1495     1.74811e+10 
           1505     1.53343e+10 
           1512     1.40843e+10 
           1517     1.45202e+10 
           1525     1.50057e+10 
           1535      1.2594e+10 
           1545     1.21278e+10 
           1555     1.17757e+10 
           1565     1.27239e+10 
           1575     1.35209e+10 
           1585     1.33949e+10 
           1595     1.34232e+10 
           1605     1.35822e+10 
           1615     1.31499e+10 
           1625     1.29347e+10 
           1635     1.36283e+10 
           1645     1.36178e+10 
           1655     1.33602e+10 
           1665     1.35523e+10 
           1672      1.2901e+10 
           1677     1.41257e+10 
           1685     1.36535e+10 
           1695     1.28872e+10 
           1705     1.23992e+10 
           1715     1.17858e+10 
           1725     1.13913e+10 
           1735      1.1896e+10 
           1745     1.16944e+10 
           1755     1.16648e+10 
           1765     1.14374e+10 
           1775     1.06843e+10 
           1785     1.08105e+10 
           1795     1.11945e+10 
           1805     1.12351e+10 
           1815     1.00825e+10 
           1825      1.0453e+10 
           1835     1.00239e+10 
           1845      9.09146e+9 
           1855      9.23643e+9 
           1865      9.33509e+9 
           1875      9.64567e+9 
           1885      8.61705e+9 
           1895      8.03873e+9 
           1905      8.68081e+9 
           1915        8.143e+9 
           1925      7.69588e+9 
           1935      8.17546e+9 
           1945      8.34247e+9 
           1955      7.50546e+9 
           1967      8.13431e+9 
           1976      8.54357e+9 
           1984      7.81634e+9 
           1995      7.72224e+9 
           2005      7.95203e+9 
           2015      7.81865e+9 
           2025      8.01935e+9 
           2035      7.34605e+9 
           2045      7.46077e+9 
           2055      7.11259e+9 
           2065      7.14061e+9 
           2074      7.30876e+9 
           2078      6.76189e+9 
           2085      7.06615e+9 
           2095      6.67388e+9 
           2105      6.96644e+9 
           2115      6.98502e+9 
           2125       7.0268e+9 
           2135      6.86691e+9 
           2145       6.5425e+9 
           2155      6.78961e+9 
           2165      6.72519e+9 
           2175      6.61379e+9 
           2185      6.41972e+9 
           2195       6.4702e+9 
           2205      6.43366e+9 
           2215      6.31864e+9 
           2225      6.13246e+9 
           2235      6.04942e+9 
           2245      6.08482e+9 
           2255      5.87273e+9 
           2265      5.94156e+9 
           2275      5.84082e+9 
           2285      5.79075e+9 
           2295      5.29908e+9 
           2305      5.58589e+9 
           2315      5.43623e+9 
           2325      5.37737e+9 
           2335      5.20808e+9 
           2345      5.24459e+9 
           2355      5.20545e+9 
           2365      5.14643e+9 
           2375      5.03072e+9 
           2385      4.99624e+9 
           2395      4.93621e+9 
           2405      4.84164e+9 
           2415      4.78316e+9 
           2425      4.77582e+9 
           2435      4.62523e+9 
           2445      4.62169e+9 
           2455      4.60599e+9 
           2465      4.53844e+9 
           2475      4.46506e+9 
           2485       4.3688e+9 
           2495      3.72026e+9 
           2505      4.21737e+9 
           2513      4.05252e+9 
           2518      4.17269e+9 
           2525      4.15213e+9 
           2535      4.11574e+9 
           2545      3.92793e+9 
           2555      3.99356e+9 
           2565      3.92091e+9 
           2575      3.94506e+9 
           2585      3.90163e+9 
           2595        3.863e+9 
           2605      3.82252e+9 
           2615      3.76959e+9 
           2625      3.73934e+9 
           2635      3.69935e+9 
           2645      3.65355e+9 
           2655      3.62341e+9 
           2665      3.47586e+9 
           2675      3.49456e+9 
           2685      3.48374e+9 
           2695      3.35424e+9 
           2705      3.29669e+9 
           2715       3.2954e+9 
           2725       3.2709e+9 
           2735      3.25101e+9 
           2745      3.16747e+9 
           2755      3.15796e+9 
           2765      3.11471e+9 
           2775       3.1446e+9 
           2785      3.08651e+9 
           2795      2.94858e+9 
           2805      2.99046e+9 
           2815      3.00377e+9 
           2825      2.94751e+9 
           2835      2.83845e+9 
           2845      2.88695e+9 
           2855      2.83385e+9 
           2865      2.82631e+9 
           2875       2.7906e+9 
           2885      2.75816e+9 
           2895      2.71769e+9 
           2910      2.64891e+9 
           2930      2.62029e+9 
           2950      2.53856e+9 
           2970      2.50623e+9 
           2990       2.4397e+9 
           3010      2.34855e+9 
           3030      2.33369e+9 
           3050      2.29767e+9 
           3070      2.26592e+9 
           3090      2.16455e+9 
           3110      2.16029e+9 
           3130      2.10108e+9 
           3150      2.06963e+9 
           3170      2.01454e+9 
           3190      1.96756e+9 
           3210      1.94721e+9 
           3230      1.89685e+9 
           3250      1.86943e+9 
           3270      1.82641e+9 
           3290      1.78917e+9 
           3310      1.75634e+9 
           3330      1.71726e+9 
           3350      1.68671e+9 
           3370      1.64984e+9 
           3390      1.62593e+9 
           3410      1.59451e+9 
           3430       1.5606e+9 
           3450      1.52398e+9 
           3470      1.49554e+9 
           3490      1.46487e+9 
           3510      1.44095e+9 
           3530      1.41944e+9 
           3550      1.39198e+9 
           3570      1.37391e+9 
           3590       1.3286e+9 
           3610      1.31204e+9 
           3630       1.2871e+9 
           3640      1.28848e+9 
           3650      1.26848e+9 
           3670      1.25438e+9 
           3690      1.23366e+9 
           3710      1.18607e+9 
           3730      1.14937e+9 
           3750      1.13535e+9 
           3770      1.09791e+9 
           3790       1.1364e+9 
           3810      1.17762e+9 
           3830      1.02962e+9 
           3850      1.19816e+9 
           3870      1.20724e+9 
           3890      9.63054e+8 
           3910      1.21224e+9 
           3930      1.18415e+9 
           3950      1.15975e+9 
           3970      8.94777e+8 
           3990      1.11558e+9 
           4010      1.12936e+9 
           4030      1.05084e+9 
           4050      1.09421e+9 
           4070      1.02967e+9 
           4090      9.39273e+8 
           4110      8.32047e+8 
           4130       9.8566e+8 
           4150      9.86092e+8 
           4170      9.88333e+8 
           4190      9.75852e+8 
           4210      9.70321e+8 
           4230      9.46366e+8 
           4250      9.12869e+8 
           4270      8.85266e+8 
           4290      8.74595e+8 
           4310      8.42627e+8 
           4330      7.57361e+8 
           4350      6.92119e+8 
           4370      8.01065e+8 
           4390       7.9345e+8 
           4410      7.97195e+8 
           4430       7.9391e+8 
           4450      7.78533e+8 
           4470      7.29951e+8 
           4490      7.51661e+8 
           4510      7.52362e+8 
           4530      7.39584e+8 
           4550      7.28911e+8 
           4570       7.1578e+8 
           4590      7.03065e+8 
           4610      6.84942e+8 
           4630      6.75241e+8 
           4650      6.52876e+8 
           4670      6.55639e+8 
           4690      6.50693e+8 
           4710      6.18907e+8 
           4730      6.28654e+8 
           4750      6.18078e+8 
           4770      6.18685e+8 
           4790      6.06534e+8 
           4810      5.90038e+8 
           4830      5.74503e+8 
           4850      5.23217e+8 
           4870      4.66224e+8 
           4890      5.50487e+8 
           4910      5.48793e+8 
           4930      5.26276e+8 
           4950      5.32918e+8 
           4970      5.31688e+8 
           4990      5.22578e+8 
           5010      4.97986e+8 
           5030      5.05514e+8 
           5050      4.91901e+8 
           5070      4.93597e+8 
           5090       4.8407e+8 
           5110      4.76176e+8 
           5130      4.66172e+8 
           5150      4.60726e+8 
           5170      4.57281e+8 
           5190      4.51595e+8 
           5210      4.42458e+8 
           5230       4.3937e+8 
           5250      4.33446e+8 
           5270      4.26065e+8 
           5290      4.21625e+8 
           5310      4.15355e+8 
           5330      4.09286e+8 
           5350       4.0252e+8 
           5370      3.98953e+8 
           5390      3.92976e+8 
           5410      3.87914e+8 
           5430      3.81867e+8 
           5450      3.76368e+8 
           5470      3.71216e+8 
           5490      3.67141e+8 
           5510      3.62892e+8 
           5530      3.57242e+8 
           5550      3.53339e+8 
           5570      3.48377e+8 
           5590      3.44297e+8 
           5610      3.39118e+8 
           5630      3.35417e+8 
           5650      3.28373e+8 
           5670      3.22955e+8 
           5690      3.18595e+8 
           5710      3.16494e+8 
           5730      3.13439e+8 
           5750      3.08118e+8 
           5770      3.06065e+8 
           5790      3.01931e+8 
           5810      2.97981e+8 
           5830      2.93635e+8 
           5850      2.90309e+8 
           5870      2.76264e+8 
           5890      2.79745e+8 
           5910      2.78394e+8 
           5930      2.74933e+8 
           5950      2.70928e+8 
           5970      2.69634e+8 
           5990      2.64907e+8 
           6010      2.62771e+8 
           6030      2.59031e+8 
           6050      2.56138e+8 
           6070      2.53349e+8 
           6090      2.50194e+8 
           6110      2.47257e+8 
           6130      2.44473e+8 
           6150      2.39678e+8 
           6170      2.37712e+8 
           6190      2.35559e+8 
           6210      2.32901e+8 
           6230      2.30243e+8 
           6250      2.26727e+8 
           6270      2.24382e+8 
           6290      2.21986e+8 
           6310      2.18982e+8 
           6330      2.16886e+8 
           6350      2.13093e+8 
           6370      2.11451e+8 
           6390       2.0916e+8 
           6410      2.06702e+8 
           6430      2.04698e+8 
           6450      2.02145e+8 
           6470        1.988e+8 
           6490      1.96897e+8 
           6510      1.94498e+8 
           6530      1.90693e+8 
           6550      1.80012e+8 
           6570      1.57858e+8 
           6590      1.81876e+8 
           6610      1.83329e+8 
           6630      1.82096e+8 
           6650      1.80057e+8 
           6670      1.75921e+8 
           6690      1.74173e+8 
           6710      1.74449e+8 
           6730      1.72025e+8 
           6750      1.70784e+8 
           6770      1.68913e+8 
           6790      1.65509e+8 
           6810      1.64888e+8 
           6830      1.62882e+8 
           6850      1.61555e+8 
           6870      1.59761e+8 
           6890       1.5778e+8 
           6910      1.55787e+8 
           6930      1.54614e+8 
           6950      1.53078e+8 
           6970      1.51457e+8 
           6990      1.49766e+8 
           7010      1.48123e+8 
           7030      1.46535e+8 
           7050      1.45007e+8 
           7070      1.40811e+8 
           7090      1.41884e+8 
           7110      1.39828e+8 
           7130      1.38422e+8 
           7150      1.37331e+8 
           7170      1.36105e+8 
           7190      1.34773e+8 
           7210      1.33374e+8 
           7230      1.29898e+8 
           7250      1.30265e+8 
           7270      1.29271e+8 
           7290      1.26777e+8 
           7310      1.26599e+8 
           7330      1.25285e+8 
           7350      1.24046e+8 
           7370      1.22812e+8 
           7390      1.21561e+8 
           7410      1.20337e+8 
           7430      1.18953e+8 
           7450       1.1786e+8 
           7470      1.15819e+8 
           7490      1.15389e+8 
           7510      1.14328e+8 
           7530      1.13077e+8 
           7550      1.12128e+8 
           7570      1.11037e+8 
           7590      1.09903e+8 
           7610      1.08598e+8 
           7630      1.07744e+8 
           7650      1.06693e+8 
           7670      1.05669e+8 
           7690       1.0463e+8 
           7710        1.036e+8 
           7730       1.0251e+8 
           7750      1.01617e+8 
           7770      9.98157e+7 
           7790      9.96639e+7 
           7810        9.866e+7 
           7830      9.77634e+7 
           7850      9.66667e+7 
           7870      9.56164e+7 
           7890      9.44061e+7 
           7910      9.40257e+7 
           7930      9.31266e+7 
           7950       9.1997e+7 
           7970      9.12809e+7 
           7990      9.01871e+7 
           8010      8.95905e+7 
           8030      8.87183e+7 
           8050      8.78827e+7 
           8070      8.70774e+7 
           8090      8.62157e+7 
           8110      8.47886e+7 
           8130      8.46968e+7 
           8150       8.3913e+7 
           8170      8.32148e+7 
           8190      8.19047e+7 
           8210      8.12769e+7 
           8230      8.03373e+7 
           8250      8.01475e+7 
           8270      7.84934e+7 
           8290       7.8603e+7 
           8310      7.80015e+7 
           8330      7.73233e+7 
           8350      7.62563e+7 
           8370      7.57041e+7 
           8390      7.52527e+7 
           8410      7.45276e+7 
           8430      7.38776e+7 
           8450      7.24255e+7 
           8470      7.25933e+7 
           8490      7.17186e+7 
           8510       7.1205e+7 
           8530      7.04832e+7 
           8550      6.97312e+7 
           8570       6.9519e+7 
