# Kurucz ODFNEW /NOVER (2003)
# teff = 7750 K (value for the effective temperature for the model. Temperatures are given in K)
# logg = 5 log(cm/s2) (value for Log(G) for the model.)
# meta = -4  (value for the Metallicity for the model.)
# lh = 1.25  (l/Hp where l is the  mixing length of the convective element and Hp is the pressure scale height)
# vtur = 2 km/s (Microturbulence velocity)
# alpha = 0.4  (Alpha)
#
# column 1: WAVELENGTH (ANGSTROM), Wavelength in Angstrom
# column 2: FLUX (ERG/CM2/S/A), Flux in erg/cm2/s/A
          147.2     1.73866e-35 
            151     1.65225e-35 
          155.2     1.56403e-35 
          158.8     1.49392e-35 
            162     1.43549e-35 
            166     1.36714e-35 
          170.3     1.29897e-35 
          173.4     1.25294e-35 
          176.8     1.20522e-35 
          180.2     1.16017e-35 
          181.7     1.14109e-35 
          186.1     1.08777e-35 
            191     1.03267e-35 
          193.9     1.00201e-35 
          198.4     9.57076e-36 
          201.8     9.25097e-36 
            205     8.96441e-36 
          210.5     8.50208e-36 
          216.2     8.05969e-36 
          219.8     7.79784e-36 
            223     7.57565e-36 
          226.8     7.32392e-36 
            230     7.12154e-36 
            234     6.88015e-36 
            240     6.54044e-36 
          246.5     6.20006e-36 
          252.4     5.91358e-36 
          256.8     5.71267e-36 
            260     5.57292e-36 
            264     5.40532e-36 
          268.5     5.22566e-36 
          273.5     5.03634e-36 
          278.5     4.85712e-36 
            284     4.55293e-23 
            290     2.83524e-22 
            296     1.44322e-21 
            301     5.28081e-21 
            308     3.01133e-20 
            318     3.15502e-19 
            328     2.85058e-18 
            338      2.2509e-17 
            348      1.5717e-16 
            357     8.20476e-16 
            366     3.93671e-15 
            375     1.74671e-14 
            385     8.40051e-14 
            395     3.71912e-13 
            405     1.52506e-12 
            414     5.11014e-12 
            422     1.43083e-11 
            430       3.849e-11 
            441      1.4112e-10 
            451     4.34015e-10 
            460      1.14185e-9 
            470      3.19563e-9 
            480      8.54917e-9 
            490      2.19244e-8 
            500      5.40351e-8 
            506      8.96578e-8 
            512      1.51874e-7 
            520      2.94097e-7 
            530      6.52215e-7 
            540      1.40188e-6 
            550      2.92566e-6 
            560      5.93757e-6 
            570      1.17367e-5 
            580       2.2625e-5 
            590      4.25961e-5 
            600      7.84079e-5 
            610     0.000141276 
            620     0.000249441 
            630     0.000431972 
            640     0.000734448 
            650      0.00122702 
            658      0.00182777 
            665      0.00256846 
            675      0.00412131 
            685       0.0065151 
            695        0.010154 
            705       0.0156111 
            716       0.0246824 
            726       0.0369485 
            735       0.0525835 
            745       0.0769851 
            755        0.111481 
            765        0.159743 
            775        0.226586 
            785        0.318293 
            795         0.44295 
            805        0.610941 
            815         0.83533 
            825         1.13264 
            835         1.52356 
            845         2.03363 
            855         2.69437 
            865         3.54417 
            875         4.62984 
            885         6.00766 
            895         7.74552 
            905         9.92438 
            915         13.2342 
            925         27.0972 
            935         40.2768 
            945         62.0932 
            955          84.514 
            965         109.274 
            975         103.639 
            985         179.759 
            995         229.502 
           1005         258.993 
           1015         270.085 
           1025         250.057 
           1035         399.052 
           1045         533.722 
           1055         631.524 
           1065         781.409 
           1075         910.214 
           1085         1088.08 
           1095         1239.69 
           1105         1406.95 
           1115         1596.86 
           1125         1838.31 
           1135         2087.85 
           1145         2338.26 
           1155         2574.93 
           1165         2796.55 
           1175         2984.09 
           1185         3701.77 
           1195         3658.01 
           1205         3436.95 
           1215         2755.37 
           1225         4195.27 
           1235         5779.54 
           1245         5780.15 
           1255         7276.38 
           1265         8745.72 
           1275         10219.7 
           1285         12197.7 
           1295         14076.9 
           1305         16706.6 
           1315         19111.6 
           1325         21964.8 
           1335           24850 
           1345           28399 
           1355         32606.3 
           1365         36916.2 
           1375         40701.2 
           1385         44383.3 
           1395         49297.5 
           1405         54123.2 
           1415         62550.4 
           1425         66465.8 
           1435         73852.1 
           1442         80387.5 
           1447         79152.8 
           1455         86365.6 
           1465         89508.6 
           1475           97641 
           1485          105793 
           1495          115777 
           1505          124878 
           1512          132401 
           1517          129581 
           1525          137483 
           1535          144522 
           1545          147447 
           1555          155374 
           1565          157815 
           1575          165993 
           1585          173532 
           1595          182217 
           1605          192853 
           1615          216355 
           1625          256971 
           1635          346962 
           1645          795176 
           1655      1.72614e+6 
           1665      4.31301e+6 
           1672      6.25954e+6 
           1677      7.88387e+6 
           1685      1.00053e+7 
           1695      1.27853e+7 
           1705      1.50483e+7 
           1715      1.69419e+7 
           1725      1.81273e+7 
           1735      1.91116e+7 
           1745      1.95143e+7 
           1755      2.01377e+7 
           1765      2.04483e+7 
           1775      2.08153e+7 
           1785      2.11845e+7 
           1795      2.16507e+7 
           1805       2.1571e+7 
           1815      2.19652e+7 
           1825       2.2069e+7 
           1835       2.2609e+7 
           1845      2.23513e+7 
           1855       2.2897e+7 
           1865      2.34071e+7 
           1875      2.36199e+7 
           1885      2.38481e+7 
           1895      2.40849e+7 
           1905      2.41774e+7 
           1915      2.45203e+7 
           1925      2.47451e+7 
           1935      2.45705e+7 
           1945       2.5136e+7 
           1955      2.53231e+7 
           1967      2.55535e+7 
           1976      2.55721e+7 
           1984      2.55769e+7 
           1995      2.60159e+7 
           2005      2.61235e+7 
           2015       2.6287e+7 
           2025      2.62743e+7 
           2035      2.66516e+7 
           2045      2.68024e+7 
           2055      2.67866e+7 
           2065      2.69501e+7 
           2074      2.72369e+7 
           2078      2.72884e+7 
           2085      2.73455e+7 
           2095      2.74859e+7 
           2105      2.75944e+7 
           2115        2.774e+7 
           2125      2.76305e+7 
           2135      2.79401e+7 
           2145       2.8092e+7 
           2155      2.81824e+7 
           2165      2.80858e+7 
           2175      2.82884e+7 
           2185       2.8472e+7 
           2195      2.86017e+7 
           2205      2.85227e+7 
           2215      2.81221e+7 
           2225        2.871e+7 
           2235      2.89627e+7 
           2245      2.90095e+7 
           2255       2.8938e+7 
           2265       2.8907e+7 
           2275      2.90676e+7 
           2285       2.9233e+7 
           2295      2.92162e+7 
           2305      2.93745e+7 
           2315      2.93814e+7 
           2325      2.93627e+7 
           2335      2.91269e+7 
           2345      2.86858e+7 
           2355      2.94073e+7 
           2365      2.88143e+7 
           2375      2.93008e+7 
           2385      2.86357e+7 
           2395      2.92798e+7 
           2405      2.93364e+7 
           2415      2.93608e+7 
           2425      2.99218e+7 
           2435      2.98208e+7 
           2445      2.98912e+7 
           2455      2.99888e+7 
           2465       2.9914e+7 
           2475      2.98948e+7 
           2485      2.96907e+7 
           2495      2.96795e+7 
           2505      2.99479e+7 
           2513      2.95547e+7 
           2518      2.93804e+7 
           2525        2.946e+7 
           2535      2.97416e+7 
           2545      2.99382e+7 
           2555      3.01094e+7 
           2565      2.97915e+7 
           2575      2.99497e+7 
           2585      2.98498e+7 
           2595      2.97763e+7 
           2605       2.9693e+7 
           2615      2.96603e+7 
           2625      2.96796e+7 
           2635      2.97332e+7 
           2645      3.02336e+7 
           2655      3.02227e+7 
           2665      3.01459e+7 
           2675      3.01489e+7 
           2685      3.01907e+7 
           2695      3.01517e+7 
           2705      3.01444e+7 
           2715      2.99412e+7 
           2725      2.98928e+7 
           2735      2.99234e+7 
           2745      2.92863e+7 
           2755      2.94533e+7 
           2765      2.98591e+7 
           2775       2.9996e+7 
           2785      2.99102e+7 
           2795       2.8732e+7 
           2805      2.92994e+7 
           2815      2.99673e+7 
           2825      2.99358e+7 
           2835      2.98539e+7 
           2845       2.9845e+7 
           2855      2.93881e+7 
           2865       2.9758e+7 
           2875      2.97578e+7 
           2885      2.96034e+7 
           2895      2.97198e+7 
           2910      2.96802e+7 
           2930      2.95379e+7 
           2950      2.94505e+7 
           2970      2.94122e+7 
           2990      2.93129e+7 
           3010      2.92594e+7 
           3030      2.91699e+7 
           3050       2.9098e+7 
           3070      2.89963e+7 
           3090      2.89129e+7 
           3110      2.88328e+7 
           3130      2.87416e+7 
           3150      2.86375e+7 
           3170       2.8548e+7 
           3190      2.84055e+7 
           3210      2.83374e+7 
           3230      2.81887e+7 
           3250      2.81357e+7 
           3270      2.80512e+7 
           3290      2.79523e+7 
           3310      2.78477e+7 
           3330      2.77262e+7 
           3350      2.75985e+7 
           3370      2.74955e+7 
           3390        2.739e+7 
           3410      2.72971e+7 
           3430      2.71856e+7 
           3450      2.70669e+7 
           3470      2.69589e+7 
           3490      2.68499e+7 
           3510      2.67402e+7 
           3530      2.66273e+7 
           3550      2.65147e+7 
           3570      2.63896e+7 
           3590      2.62776e+7 
           3610      2.61647e+7 
           3630      2.60539e+7 
           3640      2.59982e+7 
           3650      2.60389e+7 
           3670      2.60085e+7 
           3690      2.54556e+7 
           3710      2.52098e+7 
           3730      2.41027e+7 
           3750      2.71888e+7 
           3770      2.76804e+7 
           3790      3.12575e+7 
           3810      3.53318e+7 
           3830      2.97014e+7 
           3850      3.82486e+7 
           3870      4.16551e+7 
           3890      2.71466e+7 
           3910      4.16672e+7 
           3930       4.3898e+7 
           3950      4.15302e+7 
           3970      2.65966e+7 
           3990      4.01811e+7 
           4010      4.38531e+7 
           4030      4.42261e+7 
           4050      4.37789e+7 
           4070      4.22672e+7 
           4090      3.48982e+7 
           4110      2.82166e+7 
           4130      4.05974e+7 
           4150      4.21889e+7 
           4170      4.23658e+7 
           4190      4.22155e+7 
           4210      4.19578e+7 
           4230      4.16378e+7 
           4250      4.12802e+7 
           4270       4.0822e+7 
           4290      4.01209e+7 
           4310      3.84819e+7 
           4330      3.09901e+7 
           4350      2.71341e+7 
           4370      3.72155e+7 
           4390      3.85641e+7 
           4410      3.87285e+7 
           4430      3.86099e+7 
           4450       3.8393e+7 
           4470      3.81445e+7 
           4490      3.79138e+7 
           4510      3.76616e+7 
           4530      3.73757e+7 
           4550      3.70915e+7 
           4570      3.68091e+7 
           4590      3.65301e+7 
           4610      3.62546e+7 
           4630       3.5979e+7 
           4650       3.5705e+7 
           4670      3.54344e+7 
           4690      3.51619e+7 
           4710      3.48198e+7 
           4730      3.45327e+7 
           4750      3.42325e+7 
           4770      3.38997e+7 
           4790       3.3494e+7 
           4810      3.28806e+7 
           4830      3.15576e+7 
           4850      2.63554e+7 
           4870      2.22382e+7 
           4890      3.02696e+7 
           4910      3.15174e+7 
           4930      3.17195e+7 
           4950      3.16513e+7 
           4970      3.14931e+7 
           4990      3.12956e+7 
           5010      3.10943e+7 
           5030       3.0913e+7 
           5050       3.0679e+7 
           5070      3.04492e+7 
           5090      3.02205e+7 
           5110      2.99931e+7 
           5130      2.97683e+7 
           5150      2.95446e+7 
           5170      2.93108e+7 
           5190      2.90966e+7 
           5210      2.88847e+7 
           5230       2.8667e+7 
           5250      2.84544e+7 
           5270      2.82402e+7 
           5290      2.80311e+7 
           5310      2.78217e+7 
           5330      2.76133e+7 
           5350      2.74072e+7 
           5370      2.72022e+7 
           5390      2.69994e+7 
           5410      2.67975e+7 
           5430      2.65979e+7 
           5450      2.64005e+7 
           5470      2.62041e+7 
           5490      2.60097e+7 
           5510      2.58163e+7 
           5530      2.56262e+7 
           5550       2.5437e+7 
           5570      2.52485e+7 
           5590      2.50622e+7 
           5610      2.48778e+7 
           5630      2.46942e+7 
           5650      2.45126e+7 
           5670       2.4333e+7 
           5690      2.41541e+7 
           5710      2.39771e+7 
           5730       2.3802e+7 
           5750      2.36276e+7 
           5770       2.3455e+7 
           5790      2.32831e+7 
           5810      2.31131e+7 
           5830      2.29448e+7 
           5850      2.27771e+7 
           5870      2.26113e+7 
           5890      2.24449e+7 
           5910      2.22847e+7 
           5930      2.21228e+7 
           5950      2.19626e+7 
           5970      2.18041e+7 
           5990      2.16461e+7 
           6010      2.14898e+7 
           6030       2.1335e+7 
           6050      2.11819e+7 
           6070      2.10302e+7 
           6090      2.08791e+7 
           6110      2.07295e+7 
           6130      2.05815e+7 
           6150      2.04349e+7 
           6170      2.02888e+7 
           6190      2.01441e+7 
           6210      1.99999e+7 
           6230      1.98571e+7 
           6250      1.97168e+7 
           6270      1.95758e+7 
           6290      1.94373e+7 
           6310         1.93e+7 
           6330      1.91632e+7 
           6350      1.90278e+7 
           6370      1.88936e+7 
           6390      1.87598e+7 
           6410      1.86008e+7 
           6430      1.84461e+7 
           6450      1.82956e+7 
           6470      1.81305e+7 
           6490      1.79313e+7 
           6510      1.76461e+7 
           6530      1.70806e+7 
           6550      1.51991e+7 
           6570      1.26551e+7 
           6590      1.62609e+7 
           6610      1.69093e+7 
           6630      1.70277e+7 
           6650      1.70047e+7 
           6670      1.69316e+7 
           6690       1.6839e+7 
           6710      1.67429e+7 
           6730       1.6656e+7 
           6750      1.65418e+7 
           6770      1.64277e+7 
           6790      1.63148e+7 
           6810      1.62028e+7 
           6830      1.60919e+7 
           6850       1.5982e+7 
           6870      1.58732e+7 
           6890      1.57645e+7 
           6910      1.56568e+7 
           6930      1.55501e+7 
           6950      1.54451e+7 
           6970      1.53403e+7 
           6990      1.52357e+7 
           7010      1.51328e+7 
           7030      1.50308e+7 
           7050       1.4929e+7 
           7070      1.48288e+7 
           7090      1.47288e+7 
           7110      1.46296e+7 
           7130      1.45313e+7 
           7150       1.4434e+7 
           7170      1.43374e+7 
           7190       1.4241e+7 
           7210      1.41462e+7 
           7230      1.40522e+7 
           7250      1.39583e+7 
           7270      1.38652e+7 
           7290      1.37729e+7 
           7310      1.36814e+7 
           7330      1.35907e+7 
           7350      1.35001e+7 
           7370       1.3411e+7 
           7390       1.3322e+7 
           7410      1.32344e+7 
           7430      1.31468e+7 
           7450        1.306e+7 
           7470      1.29747e+7 
           7490      1.28894e+7 
           7510      1.28048e+7 
           7530      1.27209e+7 
           7550      1.26377e+7 
           7570      1.25553e+7 
           7590      1.24735e+7 
           7610      1.23924e+7 
           7630      1.23113e+7 
           7650      1.22316e+7 
           7670      1.21519e+7 
           7690      1.20735e+7 
           7710      1.19957e+7 
           7730      1.19179e+7 
           7750      1.18408e+7 
           7770      1.17644e+7 
           7790      1.16891e+7 
           7810      1.16139e+7 
           7830      1.15393e+7 
           7850      1.14659e+7 
           7870      1.13925e+7 
           7890      1.13197e+7 
           7910      1.12474e+7 
           7930      1.11758e+7 
           7950      1.11047e+7 
           7970      1.10342e+7 
           7990      1.09637e+7 
           8010      1.08944e+7 
           8030      1.08256e+7 
           8050      1.07573e+7 
           8070       1.0689e+7 
           8090      1.06218e+7 
           8110      1.05546e+7 
           8130      1.04885e+7 
           8150      1.04223e+7 
           8170      1.03573e+7 
           8190      1.02921e+7 
           8210      1.02331e+7 
           8230      1.01706e+7 
           8250      1.01098e+7 
           8270      1.00494e+7 
           8290      9.98887e+6 
           8310      9.92939e+6 
           8330      9.86928e+6 
           8350      9.80963e+6 
           8370      9.74883e+6 
           8390      9.68796e+6 
           8410      9.62542e+6 
           8430      9.56708e+6 
           8450      9.50971e+6 
           8470      9.42389e+6 
           8490      9.40097e+6 
           8510      9.27465e+6 
           8530      9.29489e+6 
           8550      9.06026e+6 
           8570      9.20987e+6 
           8590      9.00927e+6 
