# Kurucz ODFNEW /NOVER (2003)
# teff = 20000 K (value for the effective temperature for the model. Temperatures are given in K)
# logg = 4.5 log(cm/s2) (value for Log(G) for the model.)
# meta = 0  (value for the Metallicity for the model.)
# lh = 1.25  (l/Hp where l is the  mixing length of the convective element and Hp is the pressure scale height)
# vtur = 2 km/s (Microturbulence velocity)
# alpha = 0.4  (Alpha)
#
# column 1: WAVELENGTH (ANGSTROM), Wavelength in Angstrom
# column 2: FLUX (ERG/CM2/S/A), Flux in erg/cm2/s/A
          147.2     1.93652e-19 
            151     1.13372e-18 
          155.2     7.23162e-18 
          158.8     3.27169e-17 
            162     1.18415e-16 
            166     5.51806e-16 
          170.3      2.6577e-15 
          173.4     7.90582e-15 
          176.8     2.49178e-14 
          180.2     7.52681e-14 
          181.7      1.2091e-13 
          186.1     4.66055e-13 
            191     1.94948e-12 
          193.9     4.38632e-12 
          198.4     1.47543e-11 
          201.8     3.56801e-11 
            205     7.98944e-11 
          210.5     3.01076e-10 
          216.2      1.11095e-9 
          219.8      2.44992e-9 
            223      4.83978e-9 
          226.8      1.06102e-8 
            230      5.43815e-8 
            234       1.3677e-7 
            240      4.17529e-7 
          246.5      1.30164e-6 
          252.4      3.48647e-6 
          256.8      6.92548e-6 
            260      1.15917e-5 
            264      2.11872e-5 
          268.5      4.07863e-5 
          273.5      8.21427e-5 
          278.5     0.000162247 
            284     0.000335603 
            290     0.000710634 
            296      0.00145634 
            301      0.00259541 
            308      0.00561536 
            318       0.0162603 
            328       0.0428786 
            338        0.109282 
            348        0.260389 
            357        0.573419 
            366          1.1685 
            375         2.24543 
            385         4.52075 
            395         8.72568 
            405         16.3032 
            414         27.9938 
            422         43.8344 
            430         67.7848 
            441         120.757 
            451         199.143 
            460         304.197 
            470         479.465 
            480         738.399 
            490         1118.86 
            500         1665.45 
            506         15899.9 
            512         79479.3 
            520          100977 
            530          142806 
            540          166014 
            550          247408 
            560          306753 
            570          400140 
            580          426665 
            590          595094 
            600          745527 
            610          938493 
            620      1.09863e+6 
            630      1.30825e+6 
            640       1.4498e+6 
            650      1.50362e+6 
            658      1.99953e+6 
            665        2.222e+6 
            675      2.51451e+6 
            685      2.86458e+6 
            695      3.46877e+6 
            705      3.87678e+6 
            716       4.5085e+6 
            726        5.018e+6 
            735      5.56755e+6 
            745      6.41327e+6 
            755       7.2243e+6 
            765      8.08337e+6 
            775      9.06848e+6 
            785      1.00928e+7 
            795      1.09563e+7 
            805      1.20386e+7 
            815      1.31011e+7 
            825        1.456e+7 
            835       1.5074e+7 
            845      1.68145e+7 
            855      1.82726e+7 
            865      1.99617e+7 
            875       2.1771e+7 
            885      2.39614e+7 
            895      2.58261e+7 
            905      2.66444e+7 
            915       4.1709e+7 
            925      1.68295e+8 
            935      4.69972e+8 
            945      1.77809e+9 
            955      3.91201e+9 
            965      5.64432e+9 
            975      9.30861e+8 
            985      7.51576e+9 
            995      7.14017e+9 
           1005      8.69366e+9 
           1015      7.38411e+9 
           1025      1.23576e+9 
           1035      4.69775e+9 
           1045     1.07655e+10 
           1055     1.04172e+10 
           1065      7.99312e+9 
           1075      9.96179e+9 
           1085      8.93673e+9 
           1095     1.01859e+10 
           1105      8.35946e+9 
           1115      7.55565e+9 
           1125       7.2847e+9 
           1135      9.57802e+9 
           1145      7.93128e+9 
           1155      8.73521e+9 
           1165      9.11218e+9 
           1175      6.68065e+9 
           1185      9.04489e+9 
           1195      5.43056e+9 
           1205      2.62435e+9 
           1215      1.14724e+9 
           1225      3.99443e+9 
           1235      7.93658e+9 
           1245      8.55867e+9 
           1255      8.28863e+9 
           1265      7.49021e+9 
           1275      8.10758e+9 
           1285      8.50389e+9 
           1295      4.82148e+9 
           1305       4.1829e+9 
           1315      7.86083e+9 
           1325      7.47504e+9 
           1335      6.74624e+9 
           1345      7.42661e+9 
           1355      7.26672e+9 
           1365      6.38118e+9 
           1375      6.46027e+9 
           1385       6.5482e+9 
           1395      5.36242e+9 
           1405      5.71499e+9 
           1415      5.84825e+9 
           1425      6.04344e+9 
           1435      6.02957e+9 
           1442      6.36723e+9 
           1447      6.26914e+9 
           1455       6.1043e+9 
           1465       5.7095e+9 
           1475      5.61486e+9 
           1485      5.44588e+9 
           1495      5.49227e+9 
           1505      4.98076e+9 
           1512      4.57501e+9 
           1517      4.82369e+9 
           1525      4.90864e+9 
           1535      4.37003e+9 
           1545      4.50256e+9 
           1555      4.25398e+9 
           1565      4.33207e+9 
           1575      4.59418e+9 
           1585      4.57823e+9 
           1595      4.63444e+9 
           1605      4.55595e+9 
           1615      4.54203e+9 
           1625      4.35562e+9 
           1635      4.54222e+9 
           1645      4.51041e+9 
           1655      4.23339e+9 
           1665       4.5193e+9 
           1672      4.34543e+9 
           1677      4.45043e+9 
           1685      4.48749e+9 
           1695      4.25269e+9 
           1705      4.03332e+9 
           1715      3.80197e+9 
           1725      3.76043e+9 
           1735      3.92082e+9 
           1745      3.78941e+9 
           1755       3.8804e+9 
           1765      3.62856e+9 
           1775      3.61337e+9 
           1785       3.6132e+9 
           1795      3.77486e+9 
           1805       3.7557e+9 
           1815      3.41652e+9 
           1825      3.54625e+9 
           1835      3.37199e+9 
           1845      3.11652e+9 
           1855      3.03954e+9 
           1865      3.08112e+9 
           1875      3.30145e+9 
           1885      2.99308e+9 
           1895      2.80956e+9 
           1905      3.02129e+9 
           1915      2.84795e+9 
           1925      2.76089e+9 
           1935      2.86847e+9 
           1945      2.88356e+9 
           1955      2.68164e+9 
           1967      2.89254e+9 
           1976      2.99747e+9 
           1984      2.77944e+9 
           1995      2.71139e+9 
           2005      2.78394e+9 
           2015      2.66183e+9 
           2025      2.83423e+9 
           2035      2.61677e+9 
           2045      2.64745e+9 
           2055      2.53218e+9 
           2065      2.58749e+9 
           2074      2.65748e+9 
           2078      2.49197e+9 
           2085      2.58055e+9 
           2095       2.4365e+9 
           2105      2.48898e+9 
           2115      2.48024e+9 
           2125      2.51619e+9 
           2135      2.43019e+9 
           2145       2.3587e+9 
           2155      2.43267e+9 
           2165      2.38758e+9 
           2175      2.35492e+9 
           2185      2.29254e+9 
           2195      2.32081e+9 
           2205      2.27106e+9 
           2215       2.2228e+9 
           2225      2.14206e+9 
           2235      2.18395e+9 
           2245      2.16267e+9 
           2255      2.08123e+9 
           2265      2.12171e+9 
           2275      2.10958e+9 
           2285      2.11186e+9 
           2295      2.02061e+9 
           2305      2.01198e+9 
           2315      1.95555e+9 
           2325        1.932e+9 
           2335      1.84653e+9 
           2345      1.82657e+9 
           2355      1.83928e+9 
           2365      1.78604e+9 
           2375      1.79334e+9 
           2385      1.74601e+9 
           2395      1.78532e+9 
           2405      1.72003e+9 
           2415      1.72222e+9 
           2425      1.73373e+9 
           2435       1.6671e+9 
           2445      1.68891e+9 
           2455      1.67718e+9 
           2465      1.64612e+9 
           2475      1.61703e+9 
           2485      1.63711e+9 
           2495      1.56894e+9 
           2505      1.60621e+9 
           2513      1.53432e+9 
           2518      1.57767e+9 
           2525      1.52627e+9 
           2535      1.51085e+9 
           2545      1.46253e+9 
           2555      1.50206e+9 
           2565      1.48001e+9 
           2575      1.50303e+9 
           2585        1.497e+9 
           2595      1.48571e+9 
           2605       1.4615e+9 
           2615       1.4493e+9 
           2625      1.43593e+9 
           2635      1.42749e+9 
           2645      1.44165e+9 
           2655       1.4284e+9 
           2665      1.37877e+9 
           2675      1.39265e+9 
           2685      1.38098e+9 
           2695      1.34835e+9 
           2705      1.34463e+9 
           2715      1.32324e+9 
           2725      1.30127e+9 
           2735      1.31373e+9 
           2745      1.25618e+9 
           2755      1.25258e+9 
           2765      1.25049e+9 
           2775      1.26385e+9 
           2785      1.24741e+9 
           2795      1.18068e+9 
           2805      1.21163e+9 
           2815      1.21953e+9 
           2825      1.19723e+9 
           2835      1.15448e+9 
           2845      1.15723e+9 
           2855      1.15634e+9 
           2865      1.16206e+9 
           2875      1.14323e+9 
           2885       1.1355e+9 
           2895      1.12605e+9 
           2910      1.11113e+9 
           2930      1.08487e+9 
           2950      1.05887e+9 
           2970      1.04901e+9 
           2990      1.02466e+9 
           3010      1.00967e+9 
           3030      9.96963e+8 
           3050       9.7656e+8 
           3070      9.58722e+8 
           3090      9.36961e+8 
           3110      9.21131e+8 
           3130      9.07475e+8 
           3150      8.90369e+8 
           3170      8.72833e+8 
           3190      8.47263e+8 
           3210      8.40796e+8 
           3230      8.26877e+8 
           3250      8.13664e+8 
           3270      8.00395e+8 
           3290      7.85785e+8 
           3310      7.73842e+8 
           3330      7.59547e+8 
           3350       7.4463e+8 
           3370      7.33065e+8 
           3390      7.21162e+8 
           3410      7.09391e+8 
           3430      6.94994e+8 
           3450      6.81262e+8 
           3470      6.71023e+8 
           3490      6.59828e+8 
           3510      6.50036e+8 
           3530      6.40545e+8 
           3550      6.30239e+8 
           3570      6.22724e+8 
           3590      6.07737e+8 
           3610      5.99114e+8 
           3630      5.89472e+8 
           3640      5.88512e+8 
           3650      5.82775e+8 
           3670      5.76021e+8 
           3690      5.65477e+8 
           3710      5.45766e+8 
           3730      5.21733e+8 
           3750      5.47071e+8 
           3770      5.49049e+8 
           3790      5.93861e+8 
           3810      6.28778e+8 
           3830      5.36989e+8 
           3850      6.54209e+8 
           3870      6.74958e+8 
           3890      5.02601e+8 
           3910      6.73293e+8 
           3930      6.60336e+8 
           3950       6.5171e+8 
           3970      4.69499e+8 
           3990      6.20345e+8 
           4010      6.31182e+8 
           4030      5.86032e+8 
           4050      6.19465e+8 
           4070      5.96175e+8 
           4090      5.31557e+8 
           4110      4.53603e+8 
           4130      5.57135e+8 
           4150      5.58997e+8 
           4170      5.57547e+8 
           4190      5.52902e+8 
           4210      5.46875e+8 
           4230      5.36789e+8 
           4250      5.25659e+8 
           4270      5.08989e+8 
           4290      5.06875e+8 
           4310      4.93136e+8 
           4330      4.27226e+8 
           4350      3.85141e+8 
           4370      4.66767e+8 
           4390      4.52339e+8 
           4410      4.61534e+8 
           4430      4.53325e+8 
           4450       4.5023e+8 
           4470        4.184e+8 
           4490      4.31293e+8 
           4510      4.31459e+8 
           4530      4.22701e+8 
           4550        4.169e+8 
           4570      4.11148e+8 
           4590      4.04927e+8 
           4610      3.98159e+8 
           4630      3.91212e+8 
           4650      3.84125e+8 
           4670      3.80635e+8 
           4690      3.76642e+8 
           4710      3.61325e+8 
           4730        3.623e+8 
           4750      3.56785e+8 
           4770      3.55653e+8 
           4790      3.49094e+8 
           4810      3.40807e+8 
           4830      3.32694e+8 
           4850      2.96515e+8 
           4870      2.60743e+8 
           4890      3.17852e+8 
           4910      3.17565e+8 
           4930      3.04764e+8 
           4950      3.11101e+8 
           4970      3.07931e+8 
           4990      3.03001e+8 
           5010      2.90966e+8 
           5030      2.93436e+8 
           5050      2.84366e+8 
           5070      2.86685e+8 
           5090      2.82299e+8 
           5110      2.77713e+8 
           5130      2.73347e+8 
           5150      2.69538e+8 
           5170      2.67344e+8 
           5190      2.63525e+8 
           5210      2.56967e+8 
           5230      2.56837e+8 
           5250      2.53518e+8 
           5270      2.49603e+8 
           5290      2.47181e+8 
           5310      2.43665e+8 
           5330      2.39772e+8 
           5350      2.36034e+8 
           5370      2.34358e+8 
           5390      2.31299e+8 
           5410      2.27841e+8 
           5430      2.24147e+8 
           5450      2.21617e+8 
           5470      2.18325e+8 
           5490        2.167e+8 
           5510      2.13665e+8 
           5530      2.10854e+8 
           5550      2.08456e+8 
           5570      2.05602e+8 
           5590      2.03314e+8 
           5610      2.00322e+8 
           5630      1.98521e+8 
           5650      1.93767e+8 
           5670      1.91699e+8 
           5690      1.90261e+8 
           5710      1.88549e+8 
           5730      1.86397e+8 
           5750      1.83941e+8 
           5770      1.81944e+8 
           5790        1.797e+8 
           5810      1.77315e+8 
           5830       1.7517e+8 
           5850      1.73127e+8 
           5870       1.6517e+8 
           5890      1.67742e+8 
           5910      1.66782e+8 
           5930      1.64984e+8 
           5950      1.62216e+8 
           5970       1.6111e+8 
           5990      1.58787e+8 
           6010      1.57471e+8 
           6030      1.55516e+8 
           6050      1.53749e+8 
           6070      1.51929e+8 
           6090      1.49999e+8 
           6110      1.48463e+8 
           6130      1.46784e+8 
           6150      1.44138e+8 
           6170      1.43254e+8 
           6190       1.4177e+8 
           6210      1.40116e+8 
           6230      1.38499e+8 
           6250      1.36476e+8 
           6270      1.35262e+8 
           6290      1.33717e+8 
           6310      1.31982e+8 
           6330      1.30801e+8 
           6350      1.28353e+8 
           6370      1.27335e+8 
           6390      1.26317e+8 
           6410      1.24843e+8 
           6430      1.23776e+8 
           6450       1.2223e+8 
           6470      1.20819e+8 
           6490      1.19512e+8 
           6510      1.17774e+8 
           6530      1.15729e+8 
           6550      1.08095e+8 
           6570      9.44597e+7 
           6590      1.10309e+8 
           6610      1.11427e+8 
           6630      1.10661e+8 
           6650      1.09682e+8 
           6670      1.07246e+8 
           6690      1.06219e+8 
           6710      1.06206e+8 
           6730      1.05093e+8 
           6750       1.0405e+8 
           6770      1.02984e+8 
           6790      1.01495e+8 
           6810      1.00738e+8 
           6830      9.95914e+7 
           6850      9.87056e+7 
           6870      9.76847e+7 
           6890      9.66581e+7 
           6910      9.56497e+7 
           6930      9.45101e+7 
           6950      9.37095e+7 
           6970      9.27615e+7 
           6990      9.17611e+7 
           7010      9.07859e+7 
           7030      8.98661e+7 
           7050      8.89022e+7 
           7070      8.66438e+7 
           7090      8.72349e+7 
           7110      8.62604e+7 
           7130      8.54066e+7 
           7150      8.45242e+7 
           7170      8.37308e+7 
           7190      8.29304e+7 
           7210      8.21159e+7 
           7230      8.04659e+7 
           7250      8.03737e+7 
           7270      7.96898e+7 
           7290      7.83103e+7 
           7310       7.8115e+7 
           7330      7.73598e+7 
           7350      7.66186e+7 
           7370      7.58704e+7 
           7390      7.51291e+7 
           7410      7.44017e+7 
           7430      7.35376e+7 
           7450      7.29193e+7 
           7470      7.21108e+7 
           7490      7.14777e+7 
           7510       7.0837e+7 
           7530      7.01689e+7 
           7550      6.95201e+7 
           7570      6.88705e+7 
           7590      6.81745e+7 
           7610      6.75694e+7 
           7630      6.69309e+7 
           7650      6.62982e+7 
           7670      6.56775e+7 
           7690      6.50624e+7 
           7710      6.44528e+7 
           7730      6.38297e+7 
           7750       6.3256e+7 
           7770      6.20447e+7 
           7790      6.20866e+7 
           7810      6.14911e+7 
           7830      6.09506e+7 
           7850      6.01734e+7 
           7870        5.968e+7 
           7890       5.8979e+7 
           7910      5.87444e+7 
           7930      5.82447e+7 
           7950      5.74525e+7 
           7970      5.71373e+7 
           7990       5.6311e+7 
           8010      5.61365e+7 
           8030      5.56001e+7 
           8050      5.50643e+7 
           8070      5.46176e+7 
           8090      5.40589e+7 
           8110      5.35876e+7 
           8130      5.31362e+7 
           8150      5.26466e+7 
           8170      5.22407e+7 
           8190      5.16887e+7 
           8210      5.11041e+7 
           8230      5.05902e+7 
           8250      5.04238e+7 
           8270      4.97852e+7 
           8290       4.9531e+7 
           8310        4.909e+7 
           8330      4.86955e+7 
           8350       4.8088e+7 
           8370      4.77499e+7 
           8390      4.74582e+7 
           8410      4.70378e+7 
           8430      4.65758e+7 
           8450      4.56745e+7 
           8470      4.57289e+7 
           8490      4.52378e+7 
           8510      4.47689e+7 
           8530      4.45287e+7 
           8550       4.3509e+7 
           8570      4.41843e+7 
