# Kurucz ODFNEW /NOVER (2003)
# teff = 7500 K (value for the effective temperature for the model. Temperatures are given in K)
# logg = 3 log(cm/s2) (value for Log(G) for the model.)
# meta = -1.5  (value for the Metallicity for the model.)
# lh = 1.25  (l/Hp where l is the  mixing length of the convective element and Hp is the pressure scale height)
# vtur = 2 km/s (Microturbulence velocity)
# alpha = 0  (Alpha)
#
# column 1: WAVELENGTH (ANGSTROM), Wavelength in Angstrom
# column 2: FLUX (ERG/CM2/S/A), Flux in erg/cm2/s/A
            348     2.59166e-23 
            357     2.30376e-22 
            366     1.62232e-21 
            375     1.02532e-20 
            385     4.59802e-21 
            395     2.64465e-20 
            405     1.38693e-19 
            414     5.73306e-19 
            422     1.91665e-18 
            430     6.10897e-18 
            441     2.79504e-17 
            451     1.03917e-16 
            460     3.21627e-16 
            470     1.06919e-15 
            480     3.36686e-15 
            490     1.00867e-14 
            500     2.87957e-14 
            506     7.02045e-14 
            512     1.43054e-13 
            520     3.07179e-13 
            530       7.765e-13 
            540     1.86026e-12 
            550      4.3591e-12 
            560     9.82296e-12 
            570     2.14535e-11 
            580     4.49724e-11 
            590     9.37798e-11 
            600      1.8826e-10 
            610     3.68539e-10 
            620      7.0431e-10 
            630      1.31566e-9 
            640      2.40606e-9 
            650      4.31103e-9 
            658       6.7763e-9 
            665      9.96547e-9 
            675      1.70255e-8 
            685      2.85784e-8 
            695      4.71816e-8 
            705      7.66382e-8 
            716      1.28431e-7 
            726      2.02204e-7 
            735      3.00679e-7 
            745      4.61435e-7 
            755      6.99034e-7 
            765        1.046e-6 
            775      1.54681e-6 
            785      2.26132e-6 
            795      3.26806e-6 
            805       4.6783e-6 
            815       6.6274e-6 
            825      9.29833e-6 
            835      1.29257e-5 
            845      1.78064e-5 
            855      2.43181e-5 
            865      3.29348e-5 
            875      4.42387e-5 
            885      5.89847e-5 
            895      7.80431e-5 
            905     0.000102491 
            915        0.254154 
            925         1.48724 
            935         2.19977 
            945         3.22924 
            955         4.54335 
            965          5.7673 
            975         5.58857 
            985         9.24947 
            995         11.0337 
           1005          14.121 
           1015         15.4294 
           1025         14.6851 
           1035         23.3073 
           1045         31.5245 
           1055         38.5927 
           1065         45.7898 
           1075         55.9866 
           1085         67.4719 
           1095         78.6182 
           1105         172.234 
           1115         365.752 
           1125         450.334 
           1135         569.499 
           1145         636.865 
           1155         625.574 
           1165         690.547 
           1175         658.487 
           1185         914.335 
           1195         320.241 
           1205         192.744 
           1215         49.7125 
           1225         219.482 
           1235         560.985 
           1245         705.785 
           1255         1267.42 
           1265         1932.23 
           1275         2785.57 
           1285         3920.33 
           1295         5113.51 
           1305         6004.13 
           1315         7827.94 
           1325         9950.27 
           1335         12417.8 
           1345         16485.5 
           1355         19741.1 
           1365         25207.3 
           1375         28914.9 
           1385         30297.8 
           1395         35742.4 
           1405         50331.1 
           1415         77664.9 
           1425         91678.5 
           1435         98557.3 
           1442          137139 
           1447          124406 
           1455          158353 
           1465          147552 
           1475          167128 
           1485          194632 
           1495          222259 
           1505          258585 
           1512          259047 
           1517          244246 
           1525          269455 
           1535          412428 
           1545          429738 
           1555          378315 
           1565          265378 
           1575          282704 
           1585          271485 
           1595          261028 
           1605          272848 
           1615          456673 
           1625          901440 
           1635      1.75355e+6 
           1645      3.38496e+6 
           1655      2.88933e+6 
           1665      5.73175e+6 
           1672      4.28546e+6 
           1677      6.44893e+6 
           1685      7.77774e+6 
           1695      7.62461e+6 
           1705      7.90373e+6 
           1715      9.00841e+6 
           1725      9.12836e+6 
           1735      1.01545e+7 
           1745      9.92318e+6 
           1755       1.1049e+7 
           1765      9.29324e+6 
           1775      1.07196e+7 
           1785      1.09582e+7 
           1795      1.22208e+7 
           1805      1.14224e+7 
           1815      1.17322e+7 
           1825      1.09134e+7 
           1835      1.13783e+7 
           1845      1.03134e+7 
           1855      1.09504e+7 
           1865      1.14333e+7 
           1875      1.16289e+7 
           1885      1.18058e+7 
           1895      1.21358e+7 
           1905      1.15157e+7 
           1915      1.24127e+7 
           1925      1.27772e+7 
           1935      1.17248e+7 
           1945      1.32447e+7 
           1955       1.3218e+7 
           1967      1.38322e+7 
           1976      1.34335e+7 
           1984      1.33024e+7 
           1995      1.30756e+7 
           2005      1.26119e+7 
           2015       1.2745e+7 
           2025      1.19221e+7 
           2035      1.30943e+7 
           2045      1.38187e+7 
           2055      1.33839e+7 
           2065      1.31583e+7 
           2074      1.43099e+7 
           2078      1.44669e+7 
           2085      1.42703e+7 
           2095      1.38211e+7 
           2105      1.34733e+7 
           2115      1.37032e+7 
           2125      1.40117e+7 
           2135      1.20055e+7 
           2145       1.3547e+7 
           2155      1.35164e+7 
           2165      1.28509e+7 
           2175      1.27864e+7 
           2185      1.33167e+7 
           2195      1.42465e+7 
           2205      1.37526e+7 
           2215      1.26966e+7 
           2225      1.29716e+7 
           2235       1.4481e+7 
           2245      1.31608e+7 
           2255      1.27265e+7 
           2265      1.25123e+7 
           2275      1.35439e+7 
           2285      1.38946e+7 
           2295      1.29884e+7 
           2305      1.33624e+7 
           2315      1.34159e+7 
           2325      1.33384e+7 
           2335      1.28188e+7 
           2345       1.1395e+7 
           2355      1.35448e+7 
           2365      1.18766e+7 
           2375       1.2983e+7 
           2385       1.0906e+7 
           2395      1.21162e+7 
           2405      1.17767e+7 
           2415      1.19997e+7 
           2425      1.32283e+7 
           2435      1.28391e+7 
           2445      1.34842e+7 
           2455      1.31933e+7 
           2465      1.31937e+7 
           2475      1.25781e+7 
           2485       1.2956e+7 
           2495      1.26296e+7 
           2505      1.41205e+7 
           2513      1.27619e+7 
           2518      1.28884e+7 
           2525      1.20595e+7 
           2535      1.17623e+7 
           2545      1.17939e+7 
           2555      1.27729e+7 
           2565      1.28384e+7 
           2575       1.3757e+7 
           2585      1.38644e+7 
           2595      1.36929e+7 
           2605      1.31699e+7 
           2615      1.28474e+7 
           2625      1.39164e+7 
           2635      1.40747e+7 
           2645      1.56948e+7 
           2655      1.56837e+7 
           2665      1.46141e+7 
           2675      1.51416e+7 
           2685      1.53885e+7 
           2695      1.44939e+7 
           2705      1.47509e+7 
           2715       1.4044e+7 
           2725      1.41648e+7 
           2735      1.50818e+7 
           2745      1.29198e+7 
           2755      1.34952e+7 
           2765      1.41473e+7 
           2775      1.50318e+7 
           2785      1.47676e+7 
           2795      1.07805e+7 
           2805       1.2158e+7 
           2815      1.57239e+7 
           2825      1.56614e+7 
           2835      1.52745e+7 
           2845      1.48988e+7 
           2855      1.42677e+7 
           2865      1.51215e+7 
           2875      1.48967e+7 
           2885      1.53105e+7 
           2895      1.49482e+7 
           2910       1.6126e+7 
           2930      1.57052e+7 
           2950      1.56164e+7 
           2970      1.58368e+7 
           2990      1.59409e+7 
           3010      1.60744e+7 
           3030      1.61206e+7 
           3050      1.61294e+7 
           3070      1.61074e+7 
           3090      1.63004e+7 
           3110      1.60996e+7 
           3130      1.61045e+7 
           3150      1.63844e+7 
           3170      1.63721e+7 
           3190      1.58472e+7 
           3210       1.6122e+7 
           3230      1.58172e+7 
           3250      1.61435e+7 
           3270       1.6331e+7 
           3290      1.65228e+7 
           3310      1.66043e+7 
           3330      1.63657e+7 
           3350      1.61786e+7 
           3370      1.62018e+7 
           3390      1.61721e+7 
           3410      1.64113e+7 
           3430      1.64696e+7 
           3450      1.63745e+7 
           3470      1.62711e+7 
           3490      1.62967e+7 
           3510      1.64864e+7 
           3530      1.65114e+7 
           3550      1.66227e+7 
           3570      1.63099e+7 
           3590      1.62842e+7 
           3610      1.63225e+7 
           3630      1.64122e+7 
           3640      1.63343e+7 
           3650      1.65846e+7 
           3670      1.64507e+7 
           3690      1.60327e+7 
           3710      1.86075e+7 
           3730      2.09167e+7 
           3750      2.75558e+7 
           3770      2.92602e+7 
           3790        3.489e+7 
           3810      3.99254e+7 
           3830      3.21413e+7 
           3850      4.33445e+7 
           3870      4.73701e+7 
           3890      2.95118e+7 
           3910      4.71599e+7 
           3930      4.64591e+7 
           3950      4.72575e+7 
           3970      2.82268e+7 
           3990      4.59479e+7 
           4010      4.95626e+7 
           4030      4.95126e+7 
           4050      4.89467e+7 
           4070      4.70704e+7 
           4090      3.92492e+7 
           4110      3.08483e+7 
           4130      4.55316e+7 
           4150      4.67781e+7 
           4170      4.66598e+7 
           4190      4.61253e+7 
           4210      4.56944e+7 
           4230      4.49686e+7 
           4250      4.47341e+7 
           4270      4.41548e+7 
           4290      4.36479e+7 
           4310      4.14652e+7 
           4330      3.37167e+7 
           4350       2.9129e+7 
           4370      4.10209e+7 
           4390      4.15726e+7 
           4410      4.13222e+7 
           4430      4.14625e+7 
           4450      4.10964e+7 
           4470      4.07747e+7 
           4490      4.03637e+7 
           4510      4.01232e+7 
           4530      3.95604e+7 
           4550      3.89422e+7 
           4570      3.90675e+7 
           4590      3.85883e+7 
           4610      3.86016e+7 
           4630       3.8007e+7 
           4650      3.78846e+7 
           4670      3.75591e+7 
           4690       3.7075e+7 
           4710      3.62853e+7 
           4730      3.65298e+7 
           4750      3.62028e+7 
           4770      3.58054e+7 
           4790      3.53921e+7 
           4810      3.48476e+7 
           4830      3.36682e+7 
           4850      2.79618e+7 
           4870      2.30165e+7 
           4890      3.21665e+7 
           4910      3.31973e+7 
           4930      3.28557e+7 
           4950      3.29105e+7 
           4970      3.28246e+7 
           4990      3.24576e+7 
           5010      3.19198e+7 
           5030      3.19539e+7 
           5050      3.16259e+7 
           5070      3.14443e+7 
           5090      3.11483e+7 
           5110       3.0902e+7 
           5130      3.05771e+7 
           5150      3.02619e+7 
           5170      2.95674e+7 
           5190      2.94098e+7 
           5210      2.94079e+7 
           5230      2.90306e+7 
           5250      2.90859e+7 
           5270       2.8479e+7 
           5290      2.85629e+7 
           5310      2.82412e+7 
           5330      2.78997e+7 
           5350      2.78653e+7 
           5370      2.75379e+7 
           5390      2.73404e+7 
           5410      2.70331e+7 
           5430      2.68586e+7 
           5450       2.6658e+7 
           5470      2.64723e+7 
           5490      2.62872e+7 
           5510      2.60719e+7 
           5530      2.58073e+7 
           5550      2.56583e+7 
           5570      2.54076e+7 
           5590      2.51767e+7 
           5610      2.49951e+7 
           5630      2.48226e+7 
           5650      2.46106e+7 
           5670      2.43974e+7 
           5690      2.42169e+7 
           5710      2.40152e+7 
           5730      2.38421e+7 
           5750      2.36401e+7 
           5770      2.34516e+7 
           5790      2.32584e+7 
           5810      2.30751e+7 
           5830      2.28916e+7 
           5850      2.26979e+7 
           5870      2.25183e+7 
           5890      2.21593e+7 
           5910      2.21628e+7 
           5930      2.19846e+7 
           5950      2.18105e+7 
           5970      2.16392e+7 
           5990      2.14624e+7 
           6010      2.12864e+7 
           6030      2.11216e+7 
           6050      2.09616e+7 
           6070      2.08012e+7 
           6090      2.06343e+7 
           6110      2.04692e+7 
           6130      2.02817e+7 
           6150      2.01082e+7 
           6170      1.99612e+7 
           6190      1.98432e+7 
           6210      1.96922e+7 
           6230      1.95291e+7 
           6250      1.93368e+7 
           6270      1.92414e+7 
           6290      1.90935e+7 
           6310       1.8932e+7 
           6330      1.87947e+7 
           6350      1.86363e+7 
           6370       1.8499e+7 
           6390      1.83687e+7 
           6410      1.82074e+7 
           6430      1.80825e+7 
           6450      1.78981e+7 
           6470      1.77633e+7 
           6490      1.75708e+7 
           6510       1.7383e+7 
           6530      1.69816e+7 
           6550      1.52817e+7 
           6570      1.24317e+7 
           6590      1.62453e+7 
           6610      1.66765e+7 
           6630      1.66832e+7 
           6650      1.66043e+7 
           6670      1.65125e+7 
           6690      1.64097e+7 
           6710      1.62878e+7 
           6730      1.61686e+7 
           6750      1.60448e+7 
           6770      1.59338e+7 
           6790      1.58163e+7 
           6810      1.57008e+7 
           6830      1.55832e+7 
           6850      1.54698e+7 
           6870      1.53591e+7 
           6890      1.52479e+7 
           6910      1.51376e+7 
           6930      1.50276e+7 
           6950      1.49186e+7 
           6970      1.48107e+7 
           6990      1.47052e+7 
           7010      1.45923e+7 
           7030      1.44903e+7 
           7050        1.439e+7 
           7070      1.42869e+7 
           7090      1.41854e+7 
           7110      1.40543e+7 
           7130       1.3977e+7 
           7150      1.38791e+7 
           7170       1.3782e+7 
           7190      1.36813e+7 
           7210      1.35852e+7 
           7230      1.34907e+7 
           7250      1.33963e+7 
           7270      1.33049e+7 
           7290      1.32058e+7 
           7310      1.31139e+7 
           7330      1.30221e+7 
           7350      1.29353e+7 
           7370      1.28464e+7 
           7390      1.27528e+7 
           7410      1.26573e+7 
           7430      1.25715e+7 
           7450      1.24872e+7 
           7470      1.23941e+7 
           7490      1.23092e+7 
           7510      1.22297e+7 
           7530      1.21488e+7 
           7550       1.2068e+7 
           7570       1.1984e+7 
           7590      1.19026e+7 
           7610      1.18212e+7 
           7630      1.17406e+7 
           7650      1.16593e+7 
           7670      1.15755e+7 
           7690      1.15001e+7 
           7710      1.14177e+7 
           7730      1.13467e+7 
           7750      1.12675e+7 
           7770      1.11166e+7 
           7790      1.11192e+7 
           7810      1.10438e+7 
           7830      1.09666e+7 
           7850      1.08906e+7 
           7870      1.08165e+7 
           7890      1.07435e+7 
           7910      1.06754e+7 
           7930      1.05995e+7 
           7950      1.05301e+7 
           7970      1.04679e+7 
           7990      1.03925e+7 
           8010      1.03272e+7 
           8030      1.02588e+7 
           8050      1.01916e+7 
           8070       1.0125e+7 
           8090      1.00572e+7 
           8110      9.99329e+6 
           8130      9.92823e+6 
           8150      9.86311e+6 
           8170      9.79795e+6 
           8190      9.71252e+6 
           8210      9.67588e+6 
           8230      9.61222e+6 
           8250      9.54962e+6 
           8270        9.509e+6 
           8290      9.45002e+6 
           8310      9.38713e+6 
           8330      9.28998e+6 
           8350      9.25958e+6 
           8370      9.17021e+6 
           8390      9.09443e+6 
           8410      9.01448e+6 
           8430      8.99402e+6 
           8450      8.92089e+6 
           8470      8.66666e+6 
           8490      8.97292e+6 
           8510      8.38302e+6 
           8530      8.97025e+6 
           8550      7.98783e+6 
           8570       9.0129e+6 
           8590      8.45531e+6 
           8610      8.20315e+6 
           8630      9.04178e+6 
           8650        8.781e+6 
           8670      7.41291e+6 
           8690      8.87246e+6 
           8710      9.04876e+6 
           8730      8.80369e+6 
           8750       7.2519e+6 
           8770      8.48209e+6 
           8790      8.90821e+6 
           8810      8.90518e+6 
           8830      8.76825e+6 
           8850      8.13511e+6 
           8870      7.03116e+6 
           8890      8.44771e+6 
           8910      8.63998e+6 
           8930      8.63911e+6 
           8950      8.61559e+6 
           8970      8.51026e+6 
           8990      8.24497e+6 
           9010      6.89138e+6 
           9030      7.49847e+6 
           9050      8.18568e+6 
           9070      8.21373e+6 
           9090      8.14662e+6 
           9110      8.19714e+6 
           9130      8.18432e+6 
           9150      8.12788e+6 
           9170      8.05035e+6 
           9190        7.919e+6 
           9210      7.53334e+6 
           9230      6.18869e+6 
           9250      7.33139e+6 
           9270      7.67681e+6 
           9290      7.75729e+6 
           9310      7.74182e+6 
           9330       7.7065e+6 
           9350      7.67443e+6 
           9370      7.63312e+6 
           9390      7.58312e+6 
           9410      7.47136e+6 
