# Kurucz ODFNEW /NOVER (2003)
# teff = 8250 K (value for the effective temperature for the model. Temperatures are given in K)
# logg = 4.5 log(cm/s2) (value for Log(G) for the model.)
# meta = -4  (value for the Metallicity for the model.)
# lh = 1.25  (l/Hp where l is the  mixing length of the convective element and Hp is the pressure scale height)
# vtur = 2 km/s (Microturbulence velocity)
# alpha = 0.4  (Alpha)
#
# column 1: WAVELENGTH (ANGSTROM), Wavelength in Angstrom
# column 2: FLUX (ERG/CM2/S/A), Flux in erg/cm2/s/A
          147.2     1.73866e-35 
            151     1.65225e-35 
          155.2     1.56403e-35 
          158.8     1.49392e-35 
            162     1.43549e-35 
            166     1.36714e-35 
          170.3     1.29897e-35 
          173.4     1.25294e-35 
          176.8     1.20522e-35 
          180.2     1.16017e-35 
          181.7     1.14109e-35 
          186.1     1.08777e-35 
            191     1.03267e-35 
          193.9     1.00201e-35 
          198.4     9.57076e-36 
          201.8     9.25097e-36 
            205     8.96441e-36 
          210.5     8.50208e-36 
          216.2     8.05969e-36 
          219.8     7.79784e-36 
            223     7.57565e-36 
          226.8     7.32392e-36 
            230     7.12154e-36 
            234     6.88015e-36 
            240     6.54044e-36 
          246.5     6.20006e-36 
          252.4     5.91358e-36 
          256.8     5.71267e-36 
            260     5.57292e-36 
            264     5.40532e-36 
          268.5     5.22566e-36 
          273.5     1.61012e-23 
          278.5     1.13186e-22 
            284     5.67504e-22 
            290     2.92407e-21 
            296     1.40018e-20 
            301     4.91572e-20 
            308     2.65741e-19 
            318      2.5933e-18 
            328      2.1932e-17 
            338     1.62812e-16 
            348     1.07288e-15 
            357     5.33219e-15 
            366     2.44201e-14 
            375     1.03665e-13 
            385     4.75839e-13 
            395     2.01561e-12 
            405     7.92596e-12 
            414       2.562e-11 
            422     6.95711e-11 
            430     1.81704e-10 
            441     6.40871e-10 
            451      1.90586e-9 
            460      4.87095e-9 
            470      1.32174e-8 
            480      3.43291e-8 
            490      8.55714e-8 
            500      2.05242e-7 
            506      3.40995e-7 
            512      5.59222e-7 
            520      1.06139e-6 
            530      2.29739e-6 
            540      4.82397e-6 
            550      9.84316e-6 
            560      1.95476e-5 
            570      3.78399e-5 
            580       7.1489e-5 
            590     0.000131991 
            600     0.000238417 
            610     0.000421824 
            620     0.000731731 
            630       0.0012457 
            640      0.00208323 
            650      0.00342507 
            658      0.00503867 
            665      0.00700548 
            675       0.0110747 
            685        0.017257 
            695        0.026521 
            705       0.0402231 
            716       0.0626783 
            726       0.0926249 
            735         0.13035 
            745        0.188533 
            755        0.269786 
            765        0.382134 
            775         0.53598 
            785        0.744686 
            795          1.0253 
            805         1.39943 
            815         1.89413 
            825         2.54302 
            835         3.38774 
            845         4.47934 
            855         5.88008 
            865         7.66525 
            875         9.92524 
            885          12.769 
            895         16.3244 
            905         20.7443 
            915         34.7069 
            925         90.9214 
            935         143.435 
            945          244.18 
            955         353.938 
            965         468.148 
            975         380.682 
            985         844.843 
            995         1179.29 
           1005         1245.27 
           1015         1085.15 
           1025         820.387 
           1035         1551.37 
           1045         2449.34 
           1055         3168.75 
           1065         4593.93 
           1075         5867.28 
           1085         8536.71 
           1095          9490.3 
           1105         9356.64 
           1115         8837.15 
           1125         9277.85 
           1135         9751.73 
           1145         10077.8 
           1155           10272 
           1165         10313.5 
           1175         10170.1 
           1185         12819.4 
           1195           10878 
           1205         9104.66 
           1215         5800.65 
           1225         10633.7 
           1235         16327.1 
           1245         16217.3 
           1255         21891.1 
           1265         27925.9 
           1275         34532.2 
           1285         48858.6 
           1295         63229.8 
           1305          104385 
           1315          146101 
           1325          215228 
           1335          312274 
           1345          446176 
           1355          613634 
           1365          752822 
           1375          707738 
           1385          609531 
           1395          608199 
           1405      1.09117e+6 
           1415      2.14253e+6 
           1425      2.34706e+6 
           1435      2.75884e+6 
           1442      3.09918e+6 
           1447      2.64976e+6 
           1455      3.10651e+6 
           1465      2.80622e+6 
           1475      3.03496e+6 
           1485      3.25833e+6 
           1495      3.49756e+6 
           1505      3.72218e+6 
           1512      3.93135e+6 
           1517      3.29044e+6 
           1525      3.37653e+6 
           1535      3.22524e+6 
           1545       2.5749e+6 
           1555      2.29681e+6 
           1565      1.68274e+6 
           1575      1.39212e+6 
           1585      1.22026e+6 
           1595      1.08947e+6 
           1605      1.15631e+6 
           1615      2.01435e+6 
           1625      4.35733e+6 
           1635      7.86964e+6 
           1645       1.3787e+7 
           1655      1.66604e+7 
           1665      2.34513e+7 
           1672      2.57537e+7 
           1677       2.7453e+7 
           1685      2.89736e+7 
           1695        3.066e+7 
           1705      3.17736e+7 
           1715      3.29962e+7 
           1725      3.34896e+7 
           1735      3.41885e+7 
           1745      3.42431e+7 
           1755      3.47151e+7 
           1765      3.49275e+7 
           1775      3.51891e+7 
           1785      3.53422e+7 
           1795      3.57493e+7 
           1805      3.54329e+7 
           1815      3.58246e+7 
           1825      3.57441e+7 
           1835      3.63122e+7 
           1845      3.59705e+7 
           1855      3.64684e+7 
           1865      3.68203e+7 
           1875      3.69461e+7 
           1885      3.70747e+7 
           1895       3.7209e+7 
           1905      3.72118e+7 
           1915      3.74261e+7 
           1925      3.75558e+7 
           1935      3.71686e+7 
           1945      3.77474e+7 
           1955      3.78225e+7 
           1967      3.79155e+7 
           1976      3.78903e+7 
           1984      3.78562e+7 
           1995      3.80684e+7 
           2005      3.80682e+7 
           2015      3.80819e+7 
           2025        3.802e+7 
           2035      3.82376e+7 
           2045      3.82673e+7 
           2055      3.80893e+7 
           2065      3.81798e+7 
           2074      3.83712e+7 
           2078      3.83806e+7 
           2085      3.83712e+7 
           2095      3.83843e+7 
           2105      3.83818e+7 
           2115      3.83844e+7 
           2125      3.82442e+7 
           2135      3.83604e+7 
           2145      3.83982e+7 
           2155      3.83752e+7 
           2165      3.81759e+7 
           2175      3.82589e+7 
           2185      3.83269e+7 
           2195      3.83538e+7 
           2205      3.81927e+7 
           2215       3.7748e+7 
           2225      3.81012e+7 
           2235      3.82633e+7 
           2245      3.81952e+7 
           2255      3.80187e+7 
           2265      3.78901e+7 
           2275       3.7969e+7 
           2285      3.79924e+7 
           2295      3.78752e+7 
           2305      3.79216e+7 
           2315      3.78457e+7 
           2325       3.7762e+7 
           2335        3.729e+7 
           2345      3.67274e+7 
           2355      3.74445e+7 
           2365      3.66921e+7 
           2375      3.71171e+7 
           2385      3.63171e+7 
           2395      3.68807e+7 
           2405       3.6843e+7 
           2415      3.67743e+7 
           2425       3.7314e+7 
           2435      3.71524e+7 
           2445      3.71031e+7 
           2455       3.7129e+7 
           2465      3.70081e+7 
           2475      3.69249e+7 
           2485      3.67638e+7 
           2495      3.65895e+7 
           2505      3.67819e+7 
           2513      3.64407e+7 
           2518      3.62878e+7 
           2525      3.62889e+7 
           2535       3.6277e+7 
           2545       3.6424e+7 
           2555      3.65105e+7 
           2565      3.60987e+7 
           2575      3.62143e+7 
           2585      3.60305e+7 
           2595      3.58647e+7 
           2605      3.57109e+7 
           2615      3.56107e+7 
           2625      3.55717e+7 
           2635        3.556e+7 
           2645      3.60229e+7 
           2655      3.59471e+7 
           2665      3.58099e+7 
           2675      3.57559e+7 
           2685       3.5732e+7 
           2695      3.56385e+7 
           2705      3.55742e+7 
           2715      3.53729e+7 
           2725       3.5266e+7 
           2735      3.52423e+7 
           2745      3.45485e+7 
           2755      3.46396e+7 
           2765      3.50011e+7 
           2775      3.50643e+7 
           2785      3.49567e+7 
           2795      3.38785e+7 
           2805      3.43058e+7 
           2815      3.48089e+7 
           2825      3.47338e+7 
           2835      3.46144e+7 
           2845      3.45581e+7 
           2855      3.42194e+7 
           2865      3.43921e+7 
           2875      3.43443e+7 
           2885      3.42189e+7 
           2895      3.42247e+7 
           2910      3.41295e+7 
           2930      3.39245e+7 
           2950      3.37812e+7 
           2970      3.36754e+7 
           2990      3.35197e+7 
           3010      3.33976e+7 
           3030      3.32552e+7 
           3050      3.31153e+7 
           3070      3.29595e+7 
           3090      3.28285e+7 
           3110      3.26912e+7 
           3130       3.2547e+7 
           3150      3.24008e+7 
           3170      3.22673e+7 
           3190       3.2095e+7 
           3210      3.19829e+7 
           3230      3.18123e+7 
           3250      3.17048e+7 
           3270        3.158e+7 
           3290      3.14443e+7 
           3310      3.13065e+7 
           3330      3.11606e+7 
           3350      3.10085e+7 
           3370       3.0877e+7 
           3390      3.07432e+7 
           3410      3.06192e+7 
           3430      3.04828e+7 
           3450      3.03457e+7 
           3470      3.02109e+7 
           3490      3.00766e+7 
           3510      2.99412e+7 
           3530      2.98072e+7 
           3550      2.96723e+7 
           3570      2.95341e+7 
           3590      2.94003e+7 
           3610      2.92663e+7 
           3630      2.91334e+7 
           3640      2.90673e+7 
           3650      2.91486e+7 
           3670      2.90835e+7 
           3690      2.81936e+7 
           3710      2.84324e+7 
           3730      2.83368e+7 
           3750        3.428e+7 
           3770      3.58469e+7 
           3790      4.21182e+7 
           3810      4.89309e+7 
           3830      4.01413e+7 
           3850      5.42277e+7 
           3870      6.09432e+7 
           3890      3.54719e+7 
           3910      6.11368e+7 
           3930      6.67507e+7 
           3950      6.09069e+7 
           3970      3.46088e+7 
           3990       5.8149e+7 
           4010      6.64591e+7 
           4030      6.74364e+7 
           4050      6.64849e+7 
           4070      6.30699e+7 
           4090      4.80908e+7 
           4110      3.74564e+7 
           4130      5.95323e+7 
           4150      6.32866e+7 
           4170      6.37989e+7 
           4190      6.35561e+7 
           4210      6.30642e+7 
           4230      6.24419e+7 
           4250      6.17179e+7 
           4270      6.07857e+7 
           4290      5.92991e+7 
           4310      5.56999e+7 
           4330      4.13462e+7 
           4350      3.55476e+7 
           4370      5.31965e+7 
           4390      5.63273e+7 
           4410      5.68094e+7 
           4430      5.66393e+7 
           4450      5.62626e+7 
           4470      5.58074e+7 
           4490      5.53188e+7 
           4510      5.48792e+7 
           4530      5.43921e+7 
           4550      5.38713e+7 
           4570      5.33575e+7 
           4590      5.28488e+7 
           4610      5.23487e+7 
           4630        5.185e+7 
           4650      5.13579e+7 
           4670      5.08671e+7 
           4690      5.02783e+7 
           4710       4.9769e+7 
           4730       4.9253e+7 
           4750      4.87056e+7 
           4770      4.80927e+7 
           4790      4.73241e+7 
           4810      4.61156e+7 
           4830      4.33752e+7 
           4850      3.38844e+7 
           4870       2.7955e+7 
           4890      4.09766e+7 
           4910      4.37109e+7 
           4930       4.4239e+7 
           4950      4.41897e+7 
           4970      4.39446e+7 
           4990      4.36248e+7 
           5010      4.32697e+7 
           5030      4.29412e+7 
           5050      4.25914e+7 
           5070      4.22018e+7 
           5090      4.18155e+7 
           5110      4.14355e+7 
           5130      4.10586e+7 
           5150      4.06849e+7 
           5170      4.03073e+7 
           5190      3.99483e+7 
           5210      3.95909e+7 
           5230      3.92336e+7 
           5250      3.88819e+7 
           5270      3.85317e+7 
           5290      3.81871e+7 
           5310      3.78438e+7 
           5330      3.75047e+7 
           5350      3.71695e+7 
           5370      3.68383e+7 
           5390      3.65109e+7 
           5410      3.61874e+7 
           5430      3.58664e+7 
           5450      3.55504e+7 
           5470      3.52367e+7 
           5490      3.49267e+7 
           5510      3.46203e+7 
           5530      3.43173e+7 
           5550      3.40166e+7 
           5570      3.37194e+7 
           5590      3.34255e+7 
           5610      3.31337e+7 
           5630      3.28464e+7 
           5650      3.25612e+7 
           5670      3.22791e+7 
           5690      3.20003e+7 
           5710      3.17245e+7 
           5730      3.14518e+7 
           5750      3.11821e+7 
           5770      3.09154e+7 
           5790      3.06505e+7 
           5810      3.03896e+7 
           5830      3.01305e+7 
           5850      2.98753e+7 
           5870      2.96195e+7 
           5890      2.93699e+7 
           5910      2.91229e+7 
           5930      2.88775e+7 
           5950      2.86347e+7 
           5970      2.83935e+7 
           5990      2.81549e+7 
           6010      2.79198e+7 
           6030      2.76862e+7 
           6050      2.74551e+7 
           6070      2.72275e+7 
           6090      2.70012e+7 
           6110      2.67763e+7 
           6130      2.65547e+7 
           6150      2.63355e+7 
           6170      2.61175e+7 
           6190      2.59028e+7 
           6210      2.56903e+7 
           6230       2.5479e+7 
           6250      2.52709e+7 
           6270      2.50639e+7 
           6290        2.486e+7 
           6310      2.46573e+7 
           6330      2.44566e+7 
           6350      2.42589e+7 
           6370      2.40622e+7 
           6390      2.38592e+7 
           6410      2.36198e+7 
           6430      2.34084e+7 
           6450      2.31865e+7 
           6470       2.2939e+7 
           6490      2.26332e+7 
           6510      2.21779e+7 
           6530      2.12409e+7 
           6550      1.83392e+7 
           6570       1.5023e+7 
           6590      1.99754e+7 
           6610      2.10895e+7 
           6630      2.13258e+7 
           6650       2.1317e+7 
           6670      2.12232e+7 
           6690      2.10965e+7 
           6710      2.09534e+7 
           6730      2.08257e+7 
           6750      2.06793e+7 
           6770      2.05187e+7 
           6790      2.03587e+7 
           6810      2.02003e+7 
           6830      2.00434e+7 
           6850      1.98888e+7 
           6870      1.97349e+7 
           6890      1.95824e+7 
           6910      1.94313e+7 
           6930      1.92825e+7 
           6950      1.91342e+7 
           6970      1.89881e+7 
           6990      1.88426e+7 
           7010      1.86992e+7 
           7030      1.85571e+7 
           7050      1.84156e+7 
           7070      1.82761e+7 
           7090       1.8138e+7 
           7110      1.80003e+7 
           7130      1.78646e+7 
           7150      1.77302e+7 
           7170       1.7597e+7 
           7190      1.74649e+7 
           7210      1.73341e+7 
           7230      1.72045e+7 
           7250       1.7076e+7 
           7270      1.69487e+7 
           7290      1.68225e+7 
           7310      1.66974e+7 
           7330      1.65735e+7 
           7350      1.64506e+7 
           7370      1.63289e+7 
           7390      1.62082e+7 
           7410      1.60886e+7 
           7430        1.597e+7 
           7450      1.58531e+7 
           7470      1.57366e+7 
           7490      1.56211e+7 
           7510      1.55073e+7 
           7530      1.53945e+7 
           7550       1.5282e+7 
           7570      1.51711e+7 
           7590      1.50612e+7 
           7610      1.49522e+7 
           7630      1.48435e+7 
           7650      1.47364e+7 
           7670      1.46308e+7 
           7690      1.45255e+7 
           7710      1.44211e+7 
           7730      1.43175e+7 
           7750      1.42149e+7 
           7770      1.41125e+7 
           7790      1.40128e+7 
           7810      1.39133e+7 
           7830      1.38141e+7 
           7850      1.37163e+7 
           7870      1.36187e+7 
           7890      1.35225e+7 
           7910      1.34271e+7 
           7930      1.33325e+7 
           7950      1.32387e+7 
           7970      1.31456e+7 
           7990      1.30533e+7 
           8010      1.29618e+7 
           8030       1.2871e+7 
           8050       1.2781e+7 
           8070      1.26923e+7 
           8090      1.26037e+7 
           8110      1.25164e+7 
           8130      1.24292e+7 
           8150      1.23434e+7 
           8170      1.22582e+7 
           8190      1.21731e+7 
           8210      1.21038e+7 
           8230       1.2025e+7 
           8250       1.1948e+7 
           8270      1.18721e+7 
           8290      1.17962e+7 
           8310       1.1721e+7 
           8330      1.16441e+7 
           8350      1.15673e+7 
           8370      1.14868e+7 
           8390      1.14048e+7 
           8410      1.13198e+7 
           8430      1.12401e+7 
           8450      1.11706e+7 
           8470      1.10082e+7 
           8490      1.10374e+7 
           8510      1.07765e+7 
           8530      1.09253e+7 
           8550       1.0395e+7 
           8570      1.08718e+7 
