# Kurucz ODFNEW /NOVER (2003)
# teff = 21000 K (value for the effective temperature for the model. Temperatures are given in K)
# logg = 3 log(cm/s2) (value for Log(G) for the model.)
# meta = -2.5  (value for the Metallicity for the model.)
# lh = 1.25  (l/Hp where l is the  mixing length of the convective element and Hp is the pressure scale height)
# vtur = 2 km/s (Microturbulence velocity)
# alpha = 0.4  (Alpha)
#
# column 1: WAVELENGTH (ANGSTROM), Wavelength in Angstrom
# column 2: FLUX (ERG/CM2/S/A), Flux in erg/cm2/s/A
          147.2     1.38578e-18 
            151     9.00806e-18 
          155.2     6.39346e-17 
          158.8     3.15158e-16 
            162     1.22403e-15 
            166     6.18659e-15 
          170.3     3.23496e-14 
          173.4     1.01144e-13 
          176.8     3.36713e-13 
          180.2     1.06944e-12 
          181.7     1.75545e-12 
          186.1     7.16002e-12 
            191     3.16525e-11 
          193.9     7.35228e-11 
          198.4     2.58401e-10 
          201.8     6.42489e-10 
            205      1.47115e-9 
          210.5      5.74494e-9 
          216.2      2.18361e-8 
          219.8      4.88831e-8 
            223      9.77865e-8 
          226.8      2.16912e-7 
            230       7.3594e-7 
            234      1.73146e-6 
            240      5.11731e-6 
          246.5      1.55869e-5 
          252.4      4.09445e-5 
          256.8      7.98232e-5 
            260     0.000131749 
            264     0.000237007 
          268.5     0.000448565 
          273.5     0.000888158 
          278.5      0.00171651 
            284      0.00344426 
            290      0.00713233 
            296       0.0143079 
            301       0.0250003 
            308       0.0523054 
            318        0.145612 
            328        0.374895 
            338        0.910035 
            348         2.09241 
            357         4.24175 
            366         8.29077 
            375         15.6379 
            385         30.5043 
            395         57.3382 
            405         104.221 
            414         173.759 
            422         268.177 
            430         406.477 
            441         701.928 
            451         1123.89 
            460         1683.59 
            470         2585.77 
            480         3892.71 
            490         5753.24 
            500         8354.05 
            506         60708.2 
            512          175241 
            520          223028 
            530          328327 
            540          358035 
            550          530858 
            560          652297 
            570          807783 
            580          809677 
            590      1.09426e+6 
            600      1.41671e+6 
            610      1.70404e+6 
            620      2.00341e+6 
            630       2.3682e+6 
            640      2.72522e+6 
            650      3.19752e+6 
            658      3.61864e+6 
            665      3.98483e+6 
            675      4.49892e+6 
            685      5.11657e+6 
            695      5.95147e+6 
            705      6.68726e+6 
            716      7.63885e+6 
            726      8.54845e+6 
            735      9.53217e+6 
            745      1.06783e+7 
            755      1.18797e+7 
            765      1.31348e+7 
            775      1.45624e+7 
            785      1.60467e+7 
            795      1.75768e+7 
            805      1.92665e+7 
            815       2.0987e+7 
            825      2.29135e+7 
            835      2.45465e+7 
            845      2.68956e+7 
            855      2.89809e+7 
            865      3.14011e+7 
            875      3.38676e+7 
            885      3.64543e+7 
            895      3.90775e+7 
            905      4.13658e+7 
            915      9.41615e+7 
            925      1.69052e+9 
            935      4.42823e+9 
            945      8.83539e+9 
            955     1.01235e+10 
            965     1.19578e+10 
            975      6.13427e+9 
            985     1.19962e+10 
            995     1.15033e+10 
           1005     1.18551e+10 
           1015     1.13766e+10 
           1025      6.14062e+9 
           1035     1.06028e+10 
           1045     1.19888e+10 
           1055     1.16905e+10 
           1065     1.09153e+10 
           1075     1.13016e+10 
           1085     1.07083e+10 
           1095     1.12165e+10 
           1105     1.07278e+10 
           1115     1.06935e+10 
           1125     1.01884e+10 
           1135     1.05203e+10 
           1145     1.00928e+10 
           1155     1.02901e+10 
           1165     1.02022e+10 
           1175      9.15256e+9 
           1185      9.90822e+9 
           1195       9.2925e+9 
           1205      8.22019e+9 
           1215      4.18422e+9 
           1225      8.68602e+9 
           1235      9.15305e+9 
           1245      9.04452e+9 
           1255      8.89426e+9 
           1265      8.74572e+9 
           1275      8.78103e+9 
           1285      8.63462e+9 
           1295       7.9577e+9 
           1305      8.03995e+9 
           1315      8.26496e+9 
           1325      8.04476e+9 
           1335      7.77271e+9 
           1345       7.8604e+9 
           1355       7.8279e+9 
           1365      7.64812e+9 
           1375      7.54306e+9 
           1385      7.47282e+9 
           1395      7.10608e+9 
           1405       7.0925e+9 
           1415      7.11942e+9 
           1425      7.03748e+9 
           1435      6.96681e+9 
           1442      6.91854e+9 
           1447      6.86325e+9 
           1455      6.77785e+9 
           1465      6.67334e+9 
           1475      6.58126e+9 
           1485       6.4837e+9 
           1495       6.3841e+9 
           1505      6.23934e+9 
           1512      6.19224e+9 
           1517      6.16786e+9 
           1525      6.08728e+9 
           1535      5.90318e+9 
           1545       5.8701e+9 
           1555      5.74763e+9 
           1565      5.75179e+9 
           1575      5.69614e+9 
           1585      5.61594e+9 
           1595      5.54797e+9 
           1605      5.40476e+9 
           1615       5.3285e+9 
           1625      5.30021e+9 
           1635      5.24643e+9 
           1645      5.12047e+9 
           1655      5.10334e+9 
           1665      5.04073e+9 
           1672      4.95899e+9 
           1677      4.97836e+9 
           1685      4.91859e+9 
           1695      4.83345e+9 
           1705      4.75644e+9 
           1715      4.66668e+9 
           1725      4.61805e+9 
           1735      4.56785e+9 
           1745      4.50092e+9 
           1755      4.46152e+9 
           1765      4.33891e+9 
           1775      4.30989e+9 
           1785       4.2706e+9 
           1795      4.22993e+9 
           1805      4.18354e+9 
           1815      4.10886e+9 
           1825      4.06362e+9 
           1835      4.01072e+9 
           1845      3.89908e+9 
           1855      3.80526e+9 
           1865      3.78936e+9 
           1875      3.79106e+9 
           1885      3.66866e+9 
           1895      3.57088e+9 
           1905      3.61633e+9 
           1915      3.51425e+9 
           1925      3.46461e+9 
           1935      3.46371e+9 
           1945       3.4488e+9 
           1955       3.3316e+9 
           1967      3.35232e+9 
           1976      3.34269e+9 
           1984      3.26793e+9 
           1995      3.18325e+9 
           2005      3.20321e+9 
           2015      3.18476e+9 
           2025      3.15743e+9 
           2035      3.09573e+9 
           2045      3.05733e+9 
           2055      2.97715e+9 
           2065       2.9536e+9 
           2074      2.97225e+9 
           2078      2.91371e+9 
           2085      2.91298e+9 
           2095      2.85279e+9 
           2105      2.84769e+9 
           2115      2.82335e+9 
           2125      2.80001e+9 
           2135      2.76368e+9 
           2145      2.72175e+9 
           2155      2.69826e+9 
           2165      2.66784e+9 
           2175      2.63381e+9 
           2185      2.60479e+9 
           2195      2.57634e+9 
           2205      2.54551e+9 
           2215      2.51612e+9 
           2225      2.48473e+9 
           2235      2.45515e+9 
           2245      2.42959e+9 
           2255      2.39942e+9 
           2265      2.37403e+9 
           2275      2.34658e+9 
           2285      2.32053e+9 
           2295      2.27653e+9 
           2305      2.26724e+9 
           2315      2.23969e+9 
           2325      2.21488e+9 
           2335       2.1867e+9 
           2345      2.16267e+9 
           2355      2.14142e+9 
           2365      2.11648e+9 
           2375      2.09255e+9 
           2385      2.06809e+9 
           2395       2.0456e+9 
           2405      2.02335e+9 
           2415      1.99894e+9 
           2425      1.98025e+9 
           2435      1.95715e+9 
           2445      1.93613e+9 
           2455      1.91577e+9 
           2465       1.8943e+9 
           2475      1.87368e+9 
           2485       1.8532e+9 
           2495       1.8092e+9 
           2505      1.81304e+9 
           2513      1.79215e+9 
           2518      1.78599e+9 
           2525      1.77362e+9 
           2535      1.75467e+9 
           2545      1.72927e+9 
           2555      1.71726e+9 
           2565        1.698e+9 
           2575      1.68223e+9 
           2585      1.66433e+9 
           2595      1.64677e+9 
           2605      1.64226e+9 
           2615      1.62504e+9 
           2625      1.60618e+9 
           2635      1.58462e+9 
           2645      1.57083e+9 
           2655      1.55314e+9 
           2665      1.53557e+9 
           2675      1.51905e+9 
           2685      1.51157e+9 
           2695      1.48616e+9 
           2705       1.4805e+9 
           2715      1.46527e+9 
           2725      1.43997e+9 
           2735      1.43541e+9 
           2745      1.41927e+9 
           2755      1.40526e+9 
           2765      1.38127e+9 
           2775      1.37823e+9 
           2785      1.36417e+9 
           2795      1.33765e+9 
           2805      1.33186e+9 
           2815      1.32375e+9 
           2825      1.29947e+9 
           2835      1.29196e+9 
           2845      1.28462e+9 
           2855      1.27189e+9 
           2865       1.2594e+9 
           2875      1.24701e+9 
           2885       1.2348e+9 
           2895      1.22269e+9 
           2910      1.20478e+9 
           2930      1.18128e+9 
           2950      1.15194e+9 
           2970      1.13661e+9 
           2990      1.11479e+9 
           3010      1.09371e+9 
           3030      1.07329e+9 
           3050      1.05318e+9 
           3070      1.03351e+9 
           3090      1.01378e+9 
           3110      9.95565e+8 
           3130      9.78345e+8 
           3150      9.60152e+8 
           3170      9.42377e+8 
           3190      9.18639e+8 
           3210      9.08653e+8 
           3230        8.922e+8 
           3250      8.76117e+8 
           3270      8.61486e+8 
           3290      8.45058e+8 
           3310      8.31369e+8 
           3330      8.16792e+8 
           3350      8.01093e+8 
           3370      7.88594e+8 
           3390       7.7499e+8 
           3410      7.61649e+8 
           3430      7.45076e+8 
           3450      7.29815e+8 
           3470      7.19675e+8 
           3490      7.08326e+8 
           3510      7.00216e+8 
           3530      6.88797e+8 
           3550        6.775e+8 
           3570      6.68748e+8 
           3590      6.54741e+8 
           3610        6.445e+8 
           3630      6.33272e+8 
           3640      6.31474e+8 
           3650      6.25135e+8 
           3670      6.16662e+8 
           3690      5.95027e+8 
           3710      5.96593e+8 
           3730      6.00746e+8 
           3750      6.65991e+8 
           3770       6.6716e+8 
           3790      6.82247e+8 
           3810      7.06142e+8 
           3830      6.31371e+8 
           3850      7.11446e+8 
           3870      7.00515e+8 
           3890      6.06094e+8 
           3910      6.87339e+8 
           3930      6.72654e+8 
           3950      6.65231e+8 
           3970      5.63102e+8 
           3990      6.42353e+8 
           4010      6.31182e+8 
           4030      6.06422e+8 
           4050      6.15216e+8 
           4070      6.04522e+8 
           4090      5.79932e+8 
           4110      5.18078e+8 
           4130      5.70961e+8 
           4150      5.63153e+8 
           4170      5.57092e+8 
           4190      5.49791e+8 
           4210      5.41243e+8 
           4230      5.32789e+8 
           4250      5.24407e+8 
           4270      5.15849e+8 
           4290      5.08267e+8 
           4310      4.99991e+8 
           4330      4.73481e+8 
           4350      4.35392e+8 
           4370      4.77104e+8 
           4390      4.63247e+8 
           4410      4.63413e+8 
           4430      4.54804e+8 
           4450      4.49754e+8 
           4470      4.31296e+8 
           4490      4.36301e+8 
           4510      4.29995e+8 
           4530      4.23618e+8 
           4550      4.17318e+8 
           4570       4.1113e+8 
           4590      4.05195e+8 
           4610      3.99329e+8 
           4630      3.93532e+8 
           4650      3.87488e+8 
           4670       3.8219e+8 
           4690      3.76676e+8 
           4710      3.67371e+8 
           4730      3.65988e+8 
           4750      3.60692e+8 
           4770      3.55753e+8 
           4790      3.50736e+8 
           4810      3.45757e+8 
           4830      3.40558e+8 
           4850      3.25856e+8 
           4870       2.9491e+8 
           4890      3.26139e+8 
           4910      3.22331e+8 
           4930      3.12994e+8 
           4950       3.1353e+8 
           4970      3.09258e+8 
           4990      3.05044e+8 
           5010      2.97945e+8 
           5030      2.96802e+8 
           5050      2.91161e+8 
           5070      2.88854e+8 
           5090      2.84974e+8 
           5110      2.81161e+8 
           5130      2.77413e+8 
           5150      2.73714e+8 
           5170      2.70092e+8 
           5190      2.66532e+8 
           5210      2.62991e+8 
           5230      2.59578e+8 
           5250      2.56183e+8 
           5270      2.52845e+8 
           5290       2.4955e+8 
           5310      2.46324e+8 
           5330       2.4314e+8 
           5350      2.39996e+8 
           5370      2.36931e+8 
           5390      2.33905e+8 
           5410      2.30931e+8 
           5430      2.27981e+8 
           5450      2.25105e+8 
           5470      2.22266e+8 
           5490      2.19462e+8 
           5510      2.16718e+8 
           5530      2.14008e+8 
           5550       2.1133e+8 
           5570      2.08711e+8 
           5590      2.06123e+8 
           5610      2.03566e+8 
           5630      2.01065e+8 
           5650      1.98582e+8 
           5670      1.96152e+8 
           5690      1.93752e+8 
           5710      1.91415e+8 
           5730      1.89082e+8 
           5750      1.86789e+8 
           5770      1.84546e+8 
           5790       1.8233e+8 
           5810      1.80139e+8 
           5830      1.77985e+8 
           5850      1.75868e+8 
           5870      1.69697e+8 
           5890      1.71674e+8 
           5910      1.69694e+8 
           5930      1.67694e+8 
           5950      1.65717e+8 
           5970      1.63784e+8 
           5990      1.61874e+8 
           6010      1.59984e+8 
           6030      1.58127e+8 
           6050      1.56301e+8 
           6070      1.54496e+8 
           6090      1.52721e+8 
           6110      1.50976e+8 
           6130       1.4924e+8 
           6150      1.47544e+8 
           6170      1.45867e+8 
           6190      1.44208e+8 
           6210      1.42577e+8 
           6230      1.40974e+8 
           6250      1.39389e+8 
           6270       1.3783e+8 
           6290      1.36288e+8 
           6310      1.34764e+8 
           6330      1.33265e+8 
           6350      1.31772e+8 
           6370      1.30324e+8 
           6390      1.28901e+8 
           6410      1.27474e+8 
           6430      1.26081e+8 
           6450      1.24703e+8 
           6470      1.23339e+8 
           6490      1.21999e+8 
           6510      1.20681e+8 
           6530      1.19272e+8 
           6550      1.16068e+8 
           6570      1.04785e+8 
           6590      1.15149e+8 
           6610      1.14324e+8 
           6630      1.13113e+8 
           6650      1.11982e+8 
           6670      1.09982e+8 
           6690      1.08837e+8 
           6710      1.08465e+8 
           6730      1.07322e+8 
           6750      1.06199e+8 
           6770      1.05088e+8 
           6790      1.03988e+8 
           6810      1.02899e+8 
           6830      1.01828e+8 
           6850      1.00777e+8 
           6870      9.97361e+7 
           6890      9.87056e+7 
           6910      9.76932e+7 
           6930       9.6683e+7 
           6950      9.56984e+7 
           6970      9.47234e+7 
           6990      9.37427e+7 
           7010      9.28022e+7 
           7030      9.18633e+7 
           7050      9.09335e+7 
           7070      8.86712e+7 
           7090       8.9116e+7 
           7110      8.82203e+7 
           7130      8.73407e+7 
           7150      8.64696e+7 
           7170      8.55922e+7 
           7190      8.47596e+7 
           7210      8.39204e+7 
           7230       8.3046e+7 
           7250       8.2273e+7 
           7270      8.14646e+7 
           7290      8.00471e+7 
           7310      7.98564e+7 
           7330      7.90917e+7 
           7350      7.83271e+7 
           7370      7.75627e+7 
           7390      7.68123e+7 
           7410      7.60689e+7 
           7430      7.53392e+7 
           7450       7.4623e+7 
           7470      7.39066e+7 
           7490      7.32036e+7 
           7510      7.24735e+7 
           7530        7.181e+7 
           7550      7.11326e+7 
           7570      7.04549e+7 
           7590      6.97898e+7 
           7610      6.91307e+7 
           7630      6.84776e+7 
           7650      6.78367e+7 
           7670      6.72016e+7 
           7690      6.65722e+7 
           7710      6.59485e+7 
           7730      6.53428e+7 
           7750      6.47238e+7 
           7770      6.41289e+7 
           7790      6.35455e+7 
           7810      6.29055e+7 
           7830      6.23818e+7 
           7850      6.18748e+7 
           7870      6.13052e+7 
           7890      6.07104e+7 
           7910      6.01503e+7 
           7930      5.95094e+7 
           7950      5.89505e+7 
           7970      5.83792e+7 
           7990      5.78884e+7 
           8010      5.73549e+7 
           8030      5.68662e+7 
           8050      5.63939e+7 
           8070      5.59197e+7 
           8090      5.53046e+7 
           8110      5.48677e+7 
           8130      5.44676e+7 
           8150      5.38626e+7 
           8170      5.35196e+7 
           8190      5.29985e+7 
           8210      5.24075e+7 
           8230      5.21186e+7 
           8250      5.16636e+7 
           8270      5.09403e+7 
           8290       5.0685e+7 
           8310      5.02612e+7 
           8330      4.98144e+7 
           8350      4.91492e+7 
           8370      4.87667e+7 
           8390       4.8405e+7 
           8410      4.79401e+7 
           8430      4.74945e+7 
           8450      4.68985e+7 
           8470       4.6284e+7 
           8490      4.66118e+7 
           8510      4.52527e+7 
           8530      4.61151e+7 
           8550      4.37805e+7 
           8570      4.61186e+7 
