# Kurucz ODFNEW /NOVER (2003)
# teff = 9250 K (value for the effective temperature for the model. Temperatures are given in K)
# logg = 5 log(cm/s2) (value for Log(G) for the model.)
# meta = -1  (value for the Metallicity for the model.)
# lh = 1.25  (l/Hp where l is the  mixing length of the convective element and Hp is the pressure scale height)
# vtur = 2 km/s (Microturbulence velocity)
# alpha = 0  (Alpha)
#
# column 1: WAVELENGTH (ANGSTROM), Wavelength in Angstrom
# column 2: FLUX (ERG/CM2/S/A), Flux in erg/cm2/s/A
          273.5     1.21084e-23 
          278.5     1.05851e-22 
            284     5.23552e-22 
            290      2.6664e-21 
            296     1.26697e-20 
            301     4.42216e-20 
            308     2.37108e-19 
            318     2.29385e-18 
            328     1.92798e-17 
            338     1.42324e-16 
            348     9.35042e-16 
            357     4.63577e-15 
            366     2.11921e-14 
            375     8.99168e-14 
            385     4.12553e-13 
            395     1.74782e-12 
            405     6.87748e-12 
            414     2.22504e-11 
            422     6.04683e-11 
            430     1.58114e-10 
            441     5.58641e-10 
            451      1.66414e-9 
            460      4.26028e-9 
            470      1.15819e-8 
            480      3.01384e-8 
            490      7.52816e-8 
            500      1.80905e-7 
            506      2.97648e-7 
            512      4.97728e-7 
            520       9.4539e-7 
            530      2.04861e-6 
            540      4.30577e-6 
            550      8.79791e-6 
            560      1.74934e-5 
            570      3.39068e-5 
            580      6.41459e-5 
            590     0.000118592 
            600     0.000214537 
            610     0.000380101 
            620     0.000660296 
            630      0.00112573 
            640      0.00188521 
            650      0.00310363 
            658       0.0045709 
            665       0.0063611 
            675       0.0100693 
            685       0.0157107 
            695       0.0241765 
            705        0.036713 
            716       0.0572866 
            726       0.0847626 
            735        0.119408 
            745        0.172901 
            755        0.247705 
            765        0.351241 
            775        0.493178 
            785        0.685935 
            795        0.945422 
            805         1.29164 
            815         1.74995 
            825         2.35168 
            835         3.13579 
            845         4.15005 
            855         5.45286 
            865         7.11442 
            875         9.21963 
            885          11.871 
            895         15.1886 
            905         19.3166 
            915         61.7724 
            925         405.703 
            935          747.49 
            945         1409.05 
            955         2095.95 
            965         2850.15 
            975         2189.02 
            985         4377.59 
            995         5055.66 
           1005         6175.23 
           1015         6546.35 
           1025         4054.07 
           1035         8436.47 
           1045         10944.6 
           1055         12673.1 
           1065           14280 
           1075           16691 
           1085         19068.7 
           1095         21168.7 
           1105         31492.2 
           1115          232612 
           1125          379699 
           1135          476971 
           1145          298418 
           1155          182403 
           1165          130459 
           1175          112957 
           1185          107549 
           1195         67055.6 
           1205         49565.5 
           1215         14068.5 
           1225         53608.9 
           1235          106289 
           1245          152726 
           1255          230014 
           1265          313771 
           1275          665292 
           1285      2.61188e+6 
           1295      4.79677e+6 
           1305      6.30388e+6 
           1315         1.05e+7 
           1325      1.44203e+7 
           1335      1.81289e+7 
           1345      2.34906e+7 
           1355      2.32949e+7 
           1365      2.47625e+7 
           1375      2.24409e+7 
           1385       1.6627e+7 
           1395      1.58135e+7 
           1405      2.74833e+7 
           1415      4.34056e+7 
           1425      4.86778e+7 
           1435      4.50361e+7 
           1442      5.38054e+7 
           1447       5.2612e+7 
           1455      5.70782e+7 
           1465      5.16272e+7 
           1475      5.31668e+7 
           1485      5.42298e+7 
           1495      5.68307e+7 
           1505      5.91916e+7 
           1512      5.64795e+7 
           1517      5.71817e+7 
           1525      5.58317e+7 
           1535      5.63745e+7 
           1545      5.67945e+7 
           1555      4.59175e+7 
           1565      3.49992e+7 
           1575      4.46418e+7 
           1585      4.67016e+7 
           1595      4.70907e+7 
           1605      4.64721e+7 
           1615      5.40447e+7 
           1625      5.66972e+7 
           1635      6.54775e+7 
           1645      8.17896e+7 
           1655      6.54615e+7 
           1665      8.67726e+7 
           1672       7.2232e+7 
           1677      8.38902e+7 
           1685      9.12505e+7 
           1695      8.09587e+7 
           1705      8.34707e+7 
           1715      8.85509e+7 
           1725      8.67536e+7 
           1735      9.11354e+7 
           1745      8.79857e+7 
           1755      9.26172e+7 
           1765      8.19748e+7 
           1775      9.01018e+7 
           1785      8.94037e+7 
           1795      9.43278e+7 
           1805      8.95367e+7 
           1815      8.89199e+7 
           1825      8.53816e+7 
           1835      8.58499e+7 
           1845      8.00566e+7 
           1855      8.32171e+7 
           1865      8.48377e+7 
           1875      8.57237e+7 
           1885      8.55004e+7 
           1895      8.53274e+7 
           1905        8.212e+7 
           1915      8.43557e+7 
           1925      8.52078e+7 
           1935       8.0992e+7 
           1945      8.61931e+7 
           1955      8.53826e+7 
           1967      8.62573e+7 
           1976      8.34462e+7 
           1984      8.24521e+7 
           1995      8.15217e+7 
           2005      7.92242e+7 
           2015      7.82403e+7 
           2025      7.60685e+7 
           2035      7.96083e+7 
           2045      8.07126e+7 
           2055      7.80217e+7 
           2065      7.73218e+7 
           2074      7.97613e+7 
           2078      8.07143e+7 
           2085      7.99436e+7 
           2095      7.76647e+7 
           2105        7.658e+7 
           2115      7.67629e+7 
           2125      7.69573e+7 
           2135      7.07411e+7 
           2145      7.57303e+7 
           2155      7.47963e+7 
           2165      7.18629e+7 
           2175      7.13549e+7 
           2185      7.19761e+7 
           2195      7.47309e+7 
           2205      7.20896e+7 
           2215      6.79095e+7 
           2225      6.85523e+7 
           2235      7.33401e+7 
           2245      6.88836e+7 
           2255      6.69819e+7 
           2265      6.59923e+7 
           2275      6.92538e+7 
           2285      7.03879e+7 
           2295      6.69112e+7 
           2305      6.72026e+7 
           2315      6.63997e+7 
           2325      6.63246e+7 
           2335      6.56776e+7 
           2345      6.08834e+7 
           2355       6.5799e+7 
           2365      6.14941e+7 
           2375      6.37457e+7 
           2385      5.82046e+7 
           2395      6.21437e+7 
           2405      6.04477e+7 
           2415      6.09869e+7 
           2425      6.28399e+7 
           2435      6.02948e+7 
           2445      6.26371e+7 
           2455      6.12978e+7 
           2465      6.05429e+7 
           2475       5.8511e+7 
           2485      6.03502e+7 
           2495      5.88355e+7 
           2505      6.26179e+7 
           2513      5.92544e+7 
           2518      5.88987e+7 
           2525       5.6027e+7 
           2535      5.56181e+7 
           2545       5.5368e+7 
           2555      5.85175e+7 
           2565      5.84114e+7 
           2575      6.08335e+7 
           2585      6.11418e+7 
           2595      6.09903e+7 
           2605      5.90018e+7 
           2615      5.84468e+7 
           2625      5.97245e+7 
           2635      5.99557e+7 
           2645      6.37142e+7 
           2655      6.32031e+7 
           2665      6.05124e+7 
           2675      6.15982e+7 
           2685       6.2248e+7 
           2695      6.00441e+7 
           2705      6.02034e+7 
           2715      5.82684e+7 
           2725      5.82372e+7 
           2735       6.0285e+7 
           2745      5.53168e+7 
           2755      5.57399e+7 
           2765      5.75549e+7 
           2775      5.91515e+7 
           2785      5.81495e+7 
           2795      4.94781e+7 
           2805      5.34688e+7 
           2815      5.99451e+7 
           2825      5.95497e+7 
           2835      5.81742e+7 
           2845      5.68676e+7 
           2855      5.54162e+7 
           2865      5.72743e+7 
           2875      5.64983e+7 
           2885      5.73656e+7 
           2895       5.6988e+7 
           2910      5.90312e+7 
           2930      5.72276e+7 
           2950      5.68525e+7 
           2970      5.68069e+7 
           2990      5.66563e+7 
           3010      5.68331e+7 
           3030      5.65162e+7 
           3050      5.61176e+7 
           3070      5.56446e+7 
           3090      5.55698e+7 
           3110      5.50209e+7 
           3130      5.46392e+7 
           3150      5.46386e+7 
           3170      5.42962e+7 
           3190      5.28771e+7 
           3210      5.32293e+7 
           3230      5.24566e+7 
           3250      5.26547e+7 
           3270      5.27842e+7 
           3290      5.26804e+7 
           3310      5.25099e+7 
           3330      5.17485e+7 
           3350      5.10217e+7 
           3370      5.09122e+7 
           3390      5.04476e+7 
           3410      5.06254e+7 
           3430      5.03185e+7 
           3450       4.9971e+7 
           3470      4.95969e+7 
           3490      4.93827e+7 
           3510      4.93138e+7 
           3530       4.9065e+7 
           3550      4.88396e+7 
           3570      4.81993e+7 
           3590      4.79327e+7 
           3610      4.76516e+7 
           3630      4.74568e+7 
           3640      4.73186e+7 
           3650      4.75037e+7 
           3670      4.74684e+7 
           3690      4.64849e+7 
           3710      4.54541e+7 
           3730      4.32891e+7 
           3750      4.91054e+7 
           3770      5.07858e+7 
           3790      6.03277e+7 
           3810      7.05441e+7 
           3830      5.70016e+7 
           3850      7.93057e+7 
           3870      9.13267e+7 
           3890      5.03398e+7 
           3910      9.27476e+7 
           3930      1.04056e+8 
           3950      9.29696e+7 
           3970       4.8733e+7 
           3990      8.78493e+7 
           4010      1.09035e+8 
           4030      1.12869e+8 
           4050      1.10365e+8 
           4070      9.97424e+7 
           4090      6.96454e+7 
           4110      5.34202e+7 
           4130      9.22139e+7 
           4150      1.03537e+8 
           4170      1.06069e+8 
           4190      1.05812e+8 
           4210       1.0485e+8 
           4230      1.02898e+8 
           4250       1.0172e+8 
           4270      9.89589e+7 
           4290      9.53568e+7 
           4310       8.5007e+7 
           4330      5.83935e+7 
           4350      5.00315e+7 
           4370      8.05484e+7 
           4390       8.8857e+7 
           4410      9.09818e+7 
           4430      9.12314e+7 
           4450      9.10029e+7 
           4470      9.01489e+7 
           4490      8.85553e+7 
           4510      8.83032e+7 
           4530      8.71709e+7 
           4550      8.58439e+7 
           4570      8.53648e+7 
           4590      8.41826e+7 
           4610      8.35175e+7 
           4630      8.22739e+7 
           4650      8.15084e+7 
           4670      8.05319e+7 
           4690      7.91409e+7 
           4710        7.711e+7 
           4730      7.74005e+7 
           4750      7.62692e+7 
           4770      7.48793e+7 
           4790      7.30518e+7 
           4810      6.99754e+7 
           4830      6.34011e+7 
           4850      4.65785e+7 
           4870      3.82878e+7 
           4890       5.8729e+7 
           4910      6.53117e+7 
           4930      6.68289e+7 
           4950      6.74185e+7 
           4970      6.72872e+7 
           4990       6.6702e+7 
           5010      6.58268e+7 
           5030      6.54965e+7 
           5050      6.47246e+7 
           5070      6.42238e+7 
           5090      6.35936e+7 
           5110      6.29366e+7 
           5130      6.22221e+7 
           5150       6.1511e+7 
           5170      6.02242e+7 
           5190      5.97931e+7 
           5210      5.95334e+7 
           5230      5.87457e+7 
           5250      5.83686e+7 
           5270      5.74503e+7 
           5290      5.71137e+7 
           5310      5.64357e+7 
           5330       5.5769e+7 
           5350      5.53357e+7 
           5370      5.46839e+7 
           5390       5.4144e+7 
           5410      5.34934e+7 
           5430      5.30234e+7 
           5450      5.24942e+7 
           5470      5.19599e+7 
           5490      5.14483e+7 
           5510      5.09315e+7 
           5530      5.03654e+7 
           5550      4.99004e+7 
           5570      4.93666e+7 
           5590      4.88488e+7 
           5610      4.83802e+7 
           5630      4.79159e+7 
           5650      4.74309e+7 
           5670       4.6941e+7 
           5690      4.64848e+7 
           5710      4.60199e+7 
           5730      4.55799e+7 
           5750      4.51141e+7 
           5770      4.46718e+7 
           5790      4.42311e+7 
           5810      4.37999e+7 
           5830      4.33724e+7 
           5850      4.29431e+7 
           5870      4.25056e+7 
           5890      4.19003e+7 
           5910      4.17003e+7 
           5930      4.12984e+7 
           5950      4.08935e+7 
           5970      4.05048e+7 
           5990      4.01067e+7 
           6010      3.97129e+7 
           6030      3.93453e+7 
           6050      3.89734e+7 
           6070      3.86096e+7 
           6090      3.82417e+7 
           6110      3.78757e+7 
           6130      3.75026e+7 
           6150      3.71067e+7 
           6170      3.67864e+7 
           6190      3.64773e+7 
           6210      3.61372e+7 
           6230        3.579e+7 
           6250      3.54215e+7 
           6270      3.51403e+7 
           6290      3.48153e+7 
           6310      3.44757e+7 
           6330      3.41623e+7 
           6350      3.37541e+7 
           6370      3.34347e+7 
           6390      3.31409e+7 
           6410      3.27923e+7 
           6430      3.24538e+7 
           6450      3.20328e+7 
           6470      3.16361e+7 
           6490      3.10622e+7 
           6510      3.01943e+7 
           6530      2.84237e+7 
           6550      2.38213e+7 
           6570      1.95072e+7 
           6590      2.63375e+7 
           6610       2.8428e+7 
           6630       2.9022e+7 
           6650      2.91186e+7 
           6670       2.9029e+7 
           6690        2.887e+7 
           6710      2.86697e+7 
           6730      2.84496e+7 
           6750      2.82176e+7 
           6770      2.80306e+7 
           6790      2.77987e+7 
           6810      2.75601e+7 
           6830      2.73149e+7 
           6850       2.7081e+7 
           6870      2.68509e+7 
           6890      2.66207e+7 
           6910      2.63918e+7 
           6930      2.61644e+7 
           6950      2.59415e+7 
           6970      2.57192e+7 
           6990      2.55028e+7 
           7010      2.52778e+7 
           7030      2.50655e+7 
           7050      2.48576e+7 
           7070      2.46486e+7 
           7090      2.44422e+7 
           7110      2.41775e+7 
           7130      2.40235e+7 
           7150      2.38245e+7 
           7170      2.36302e+7 
           7190      2.34319e+7 
           7210      2.32383e+7 
           7230      2.30465e+7 
           7250      2.28514e+7 
           7270      2.26681e+7 
           7290      2.24758e+7 
           7310      2.22945e+7 
           7330      2.21106e+7 
           7350      2.19333e+7 
           7370      2.17547e+7 
           7390      2.15737e+7 
           7410      2.13922e+7 
           7430      2.12137e+7 
           7450      2.10484e+7 
           7470      2.08636e+7 
           7490      2.06999e+7 
           7510      2.05451e+7 
           7530      2.03816e+7 
           7550      2.02216e+7 
           7570      2.00583e+7 
           7590      1.98985e+7 
           7610        1.974e+7 
           7630      1.95823e+7 
           7650       1.9426e+7 
           7670      1.92672e+7 
           7690      1.91174e+7 
           7710      1.89664e+7 
           7730      1.88211e+7 
           7750      1.86714e+7 
           7770      1.83457e+7 
           7790      1.83814e+7 
           7810       1.8238e+7 
           7830      1.80908e+7 
           7850      1.79462e+7 
           7870      1.77943e+7 
           7890      1.76491e+7 
           7910      1.75311e+7 
           7930      1.73978e+7 
           7950      1.72556e+7 
           7970      1.71376e+7 
           7990      1.69776e+7 
           8010      1.68735e+7 
           8030      1.67428e+7 
           8050      1.66173e+7 
           8070      1.64899e+7 
           8090      1.63647e+7 
           8110      1.62423e+7 
           8130      1.61198e+7 
           8150      1.59982e+7 
           8170      1.58771e+7 
           8190        1.573e+7 
           8210      1.56523e+7 
           8230      1.55374e+7 
           8250      1.54245e+7 
           8270      1.53456e+7 
           8290      1.52382e+7 
           8310      1.51333e+7 
           8330      1.49912e+7 
           8350      1.49254e+7 
           8370      1.48225e+7 
           8390      1.47112e+7 
           8410      1.46041e+7 
           8430      1.44898e+7 
           8450       1.4321e+7 
           8470      1.42288e+7 
           8490       1.4165e+7 
           8510      1.38555e+7 
           8530      1.39672e+7 
           8550      1.33721e+7 
           8570       1.3854e+7 
           8590      1.33209e+7 
           8610      1.31381e+7 
           8630      1.36985e+7 
           8650      1.32108e+7 
           8670      1.19185e+7 
           8690      1.32865e+7 
           8710      1.35871e+7 
           8730      1.30172e+7 
           8750      1.09768e+7 
           8770      1.24055e+7 
           8790      1.33594e+7 
           8810       1.3474e+7 
           8830      1.30647e+7 
           8850      1.15694e+7 
           8870      1.01483e+7 
           8890      1.22902e+7 
           8910       1.3047e+7 
           8930      1.32485e+7 
           8950      1.32082e+7 
           8970        1.283e+7 
           8990      1.19279e+7 
           9010      9.69156e+6 
           9030      1.03981e+7 
           9050      1.19837e+7 
           9070      1.24653e+7 
           9090      1.25783e+7 
           9110      1.27265e+7 
           9130      1.27024e+7 
           9150      1.25439e+7 
           9170      1.22514e+7 
           9190      1.17114e+7 
           9210      1.05921e+7 
