# Kurucz ODFNEW /NOVER (2003)
# teff = 29000 K (value for the effective temperature for the model. Temperatures are given in K)
# logg = 5 log(cm/s2) (value for Log(G) for the model.)
# meta = -2.5  (value for the Metallicity for the model.)
# lh = 1.25  (l/Hp where l is the  mixing length of the convective element and Hp is the pressure scale height)
# vtur = 2 km/s (Microturbulence velocity)
# alpha = 0.4  (Alpha)
#
# column 1: WAVELENGTH (ANGSTROM), Wavelength in Angstrom
# column 2: FLUX (ERG/CM2/S/A), Flux in erg/cm2/s/A
          147.2      1.12373e-9 
            151      4.15656e-9 
          155.2      1.63739e-8 
          158.8      5.00719e-8 
            162      1.29688e-7 
            166      4.04127e-7 
          170.3       1.2908e-6 
          173.4      2.87475e-6 
          176.8      6.69233e-6 
          180.2      1.50775e-5 
          181.7      2.13692e-5 
          186.1      5.75093e-5 
            191     0.000163741 
          193.9     0.000296376 
          198.4     0.000718113 
          201.8      0.00136387 
            205      0.00244433 
          210.5      0.00639085 
          216.2       0.0163813 
          219.8       0.0289144 
            223       0.0471455 
          226.8       0.0826724 
            230         1.79655 
            234         4.28489 
            240         8.66805 
          246.5         17.9206 
          252.4         33.8529 
          256.8         49.0816 
            260         71.9408 
            264         104.593 
          268.5         158.175 
          273.5         245.542 
          278.5         375.567 
            284         589.037 
            290         940.614 
            296         1469.66 
            301         2083.92 
            308         3194.84 
            318         6529.17 
            328         11933.5 
            338         21109.2 
            348         35929.7 
            357         56416.7 
            366         86785.9 
            375          129346 
            385          198210 
            395          295106 
            405          430164 
            414          594736 
            422          779356 
            430      1.00896e+6 
            441       1.4236e+6 
            451       1.9142e+6 
            460      2.45818e+6 
            470      3.21371e+6 
            480      4.13977e+6 
            490      5.27139e+6 
            500      6.63948e+6 
            506      3.28253e+7 
            512      1.24045e+8 
            520      1.35613e+8 
            530      1.63661e+8 
            540      1.60885e+8 
            550      1.95439e+8 
            560      2.09111e+8 
            570      2.28438e+8 
            580      2.23496e+8 
            590      2.60053e+8 
            600      2.81176e+8 
            610      3.04208e+8 
            620      3.22994e+8 
            630      3.47836e+8 
            640      3.65573e+8 
            650      3.94955e+8 
            658      4.15081e+8 
            665      4.32345e+8 
            675      4.52257e+8 
            685      4.72388e+8 
            695      5.14884e+8 
            705      5.34694e+8 
            716      5.70838e+8 
            726      5.99607e+8 
            735      6.32656e+8 
            745      6.64758e+8 
            755      6.96258e+8 
            765      7.27098e+8 
            775      7.62773e+8 
            785      7.97018e+8 
            795      8.27759e+8 
            805      8.63363e+8 
            815      8.96358e+8 
            825      9.32213e+8 
            835      9.43195e+8 
            845      9.99512e+8 
            855      1.03234e+9 
            865      1.06938e+9 
            875      1.10535e+9 
            885      1.14083e+9 
            895      1.17544e+9 
            905      1.20237e+9 
            915      1.40752e+9 
            925      5.99729e+9 
            935     1.39018e+10 
            945     3.60874e+10 
            955     4.92172e+10 
            965     6.68199e+10 
            975      3.0153e+10 
            985     7.60545e+10 
            995     7.11734e+10 
           1005     7.52582e+10 
           1015     6.69006e+10 
           1025     2.31339e+10 
           1035     6.06228e+10 
           1045     6.92518e+10 
           1055     6.80298e+10 
           1065      6.4204e+10 
           1075     6.35888e+10 
           1085     5.81115e+10 
           1095      6.1306e+10 
           1105     5.87235e+10 
           1115     5.72386e+10 
           1125     5.43889e+10 
           1135     5.49467e+10 
           1145     5.26635e+10 
           1155     5.19165e+10 
           1165     5.07904e+10 
           1175     4.52798e+10 
           1185     4.78295e+10 
           1195     4.53545e+10 
           1205     3.98439e+10 
           1215        1.55e+10 
           1225     3.76974e+10 
           1235     4.17355e+10 
           1245     4.08951e+10 
           1255     4.04541e+10 
           1265     3.94757e+10 
           1275     3.87083e+10 
           1285     3.77887e+10 
           1295     3.56798e+10 
           1305      3.5332e+10 
           1315     3.51605e+10 
           1325      3.4121e+10 
           1335     3.29628e+10 
           1345     3.26765e+10 
           1355     3.20503e+10 
           1365     3.11902e+10 
           1375     3.05628e+10 
           1385     2.99031e+10 
           1395      2.8417e+10 
           1405     2.79795e+10 
           1415     2.78696e+10 
           1425     2.72869e+10 
           1435     2.67286e+10 
           1442     2.63719e+10 
           1447     2.60748e+10 
           1455      2.5618e+10 
           1465     2.50641e+10 
           1475     2.45297e+10 
           1485      2.4016e+10 
           1495     2.35053e+10 
           1505     2.28913e+10 
           1512     2.26353e+10 
           1517      2.2411e+10 
           1525     2.20242e+10 
           1535     2.14216e+10 
           1545     2.08485e+10 
           1555     2.04161e+10 
           1565     2.02298e+10 
           1575     1.98735e+10 
           1585     1.94901e+10 
           1595     1.91162e+10 
           1605     1.86374e+10 
           1615       1.826e+10 
           1625     1.79546e+10 
           1635     1.75426e+10 
           1645     1.67926e+10 
           1655     1.69946e+10 
           1665     1.66769e+10 
           1672      1.6446e+10 
           1677     1.63373e+10 
           1685     1.60817e+10 
           1695     1.57693e+10 
           1705     1.54604e+10 
           1715     1.51385e+10 
           1725      1.4852e+10 
           1735     1.46363e+10 
           1745     1.43626e+10 
           1755     1.41101e+10 
           1765     1.38092e+10 
           1775     1.35811e+10 
           1785     1.33525e+10 
           1795     1.31375e+10 
           1805     1.29149e+10 
           1815     1.26746e+10 
           1825      1.2458e+10 
           1835     1.22432e+10 
           1845     1.19747e+10 
           1855     1.16718e+10 
           1865     1.15167e+10 
           1875     1.14081e+10 
           1885     1.11517e+10 
           1895     1.08832e+10 
           1905     1.08149e+10 
           1915     1.05431e+10 
           1925     1.03677e+10 
           1935     1.02467e+10 
           1945     1.01267e+10 
           1955      9.87454e+9 
           1967      9.76514e+9 
           1976       9.6513e+9 
           1984      9.48615e+9 
           1995      9.26332e+9 
           2005      9.19814e+9 
           2015      9.06661e+9 
           2025      8.93218e+9 
           2035      8.77556e+9 
           2045       8.6377e+9 
           2055      8.28291e+9 
           2065      8.12019e+9 
           2074      8.07212e+9 
           2078      7.95496e+9 
           2085      7.95051e+9 
           2095      7.86999e+9 
           2105      7.86077e+9 
           2115      7.76985e+9 
           2125       7.6586e+9 
           2135      7.54091e+9 
           2145      7.42295e+9 
           2155      7.31763e+9 
           2165      7.20622e+9 
           2175      7.10276e+9 
           2185      6.99394e+9 
           2195      6.89783e+9 
           2205      6.79713e+9 
           2215      6.69021e+9 
           2225      6.60061e+9 
           2235      6.50472e+9 
           2245      6.41267e+9 
           2255      6.31161e+9 
           2265      6.23082e+9 
           2275      6.14253e+9 
           2285      6.05541e+9 
           2295      5.92157e+9 
           2305      5.87711e+9 
           2315      5.80367e+9 
           2325      5.72333e+9 
           2335      5.64297e+9 
           2345      5.56624e+9 
           2355      5.48999e+9 
           2365      5.41477e+9 
           2375      5.34055e+9 
           2385      5.25923e+9 
           2395      5.19623e+9 
           2405       5.1266e+9 
           2415      5.05723e+9 
           2425      4.99024e+9 
           2435      4.92278e+9 
           2445       4.8577e+9 
           2455      4.79358e+9 
           2465      4.73052e+9 
           2475      4.66808e+9 
           2485      4.60697e+9 
           2495      4.47637e+9 
           2505      4.48705e+9 
           2513      4.41988e+9 
           2518      4.41048e+9 
           2525      4.37229e+9 
           2535      4.31641e+9 
           2545      4.25545e+9 
           2555      4.20518e+9 
           2565      4.15276e+9 
           2575      4.10062e+9 
           2585      4.04906e+9 
           2595      3.99805e+9 
           2605      3.97052e+9 
           2615      3.92077e+9 
           2625      3.87181e+9 
           2635      3.82197e+9 
           2645      3.77315e+9 
           2655      3.72255e+9 
           2665      3.66957e+9 
           2675       3.6176e+9 
           2685        3.594e+9 
           2695       3.5237e+9 
           2705      3.50691e+9 
           2715      3.46452e+9 
           2725      3.39353e+9 
           2735      3.37702e+9 
           2745      3.34061e+9 
           2755      3.30076e+9 
           2765      3.23135e+9 
           2775      3.22293e+9 
           2785      3.18462e+9 
           2795      3.13767e+9 
           2805      3.10777e+9 
           2815      3.07365e+9 
           2825      3.00222e+9 
           2835      2.98103e+9 
           2845      2.96747e+9 
           2855      2.93294e+9 
           2865       2.8991e+9 
           2875      2.86584e+9 
           2885      2.83302e+9 
           2895      2.80063e+9 
           2910      2.75279e+9 
           2930      2.69072e+9 
           2950      2.60769e+9 
           2970      2.57209e+9 
           2990      2.51513e+9 
           3010      2.45977e+9 
           3030       2.4062e+9 
           3050      2.35397e+9 
           3070      2.30313e+9 
           3090      2.25258e+9 
           3110      2.20551e+9 
           3130      2.16042e+9 
           3150      2.11496e+9 
           3170       2.0704e+9 
           3190       2.0068e+9 
           3210       1.9834e+9 
           3230      1.94267e+9 
           3250      1.90239e+9 
           3270      1.86566e+9 
           3290      1.82505e+9 
           3310      1.79096e+9 
           3330      1.75497e+9 
           3350      1.71666e+9 
           3370      1.68576e+9 
           3390      1.65245e+9 
           3410      1.62001e+9 
           3430      1.58164e+9 
           3450      1.54512e+9 
           3470      1.51976e+9 
           3490      1.49054e+9 
           3510      1.46367e+9 
           3530      1.43715e+9 
           3550      1.41075e+9 
           3570      1.39381e+9 
           3590      1.35593e+9 
           3610      1.33704e+9 
           3630      1.30625e+9 
           3640      1.30577e+9 
           3650       1.2904e+9 
           3670      1.27215e+9 
           3690      1.24968e+9 
           3710      1.20895e+9 
           3730      1.16903e+9 
           3750      1.15287e+9 
           3770      1.11811e+9 
           3790      1.15722e+9 
           3810      1.20324e+9 
           3830      1.04891e+9 
           3850      1.23629e+9 
           3870      1.26291e+9 
           3890       9.8185e+8 
           3910      1.23986e+9 
           3930      1.23884e+9 
           3950      1.20099e+9 
           3970      9.10887e+8 
           3990      1.14651e+9 
           4010      1.15403e+9 
           4030      1.07492e+9 
           4050      1.13031e+9 
           4070       1.1024e+9 
           4090      9.87377e+8 
           4110       8.5736e+8 
           4130      1.02899e+9 
           4150      1.02435e+9 
           4170       1.0184e+9 
           4190      1.00409e+9 
           4210      9.87071e+8 
           4230        9.702e+8 
           4250      9.53352e+8 
           4270      9.35992e+8 
           4290      9.17828e+8 
           4310      8.93896e+8 
           4330      7.88104e+8 
           4350      7.17523e+8 
           4370      8.45944e+8 
           4390      8.13956e+8 
           4410      8.30881e+8 
           4430      8.15525e+8 
           4450      8.04977e+8 
           4470      7.46185e+8 
           4490      7.78028e+8 
           4510       7.6742e+8 
           4530      7.55096e+8 
           4550      7.42759e+8 
           4570      7.30969e+8 
           4590      7.19355e+8 
           4610      7.08075e+8 
           4630      6.96945e+8 
           4650      6.85248e+8 
           4670      6.75141e+8 
           4690      6.63435e+8 
           4710      6.44873e+8 
           4730      6.44314e+8 
           4750      6.34341e+8 
           4770      6.24712e+8 
           4790      6.14514e+8 
           4810      6.03276e+8 
           4830      5.88569e+8 
           4850      5.30504e+8 
           4870      4.72625e+8 
           4890      5.58617e+8 
           4910      5.57372e+8 
           4930      5.34584e+8 
           4950      5.44787e+8 
           4970      5.37011e+8 
           4990      5.29129e+8 
           5010      5.13941e+8 
           5030      5.13719e+8 
           5050      5.02995e+8 
           5070      4.98961e+8 
           5090      4.91762e+8 
           5110      4.84703e+8 
           5130      4.77753e+8 
           5150      4.70938e+8 
           5170      4.64229e+8 
           5190      4.57665e+8 
           5210      4.51202e+8 
           5230      4.44852e+8 
           5250      4.38626e+8 
           5270      4.32495e+8 
           5290      4.26485e+8 
           5310      4.20566e+8 
           5330       4.1475e+8 
           5350      4.09049e+8 
           5370      4.03434e+8 
           5390      3.97917e+8 
           5410      3.92432e+8 
           5430      3.87157e+8 
           5450      3.81923e+8 
           5470      3.76768e+8 
           5490      3.71703e+8 
           5510      3.66727e+8 
           5530      3.61825e+8 
           5550       3.5702e+8 
           5570      3.52275e+8 
           5590      3.47625e+8 
           5610      3.43044e+8 
           5630      3.38543e+8 
           5650      3.34109e+8 
           5670       3.2974e+8 
           5690      3.25448e+8 
           5710      3.21243e+8 
           5730      3.17099e+8 
           5750      3.12994e+8 
           5770      3.08995e+8 
           5790      3.05044e+8 
           5810      3.01162e+8 
           5830      2.97337e+8 
           5850      2.93568e+8 
           5870      2.79238e+8 
           5890      2.85381e+8 
           5910      2.82622e+8 
           5930       2.7909e+8 
           5950       2.7561e+8 
           5970      2.72192e+8 
           5990      2.68823e+8 
           6010      2.65504e+8 
           6030      2.62233e+8 
           6050       2.5902e+8 
           6070      2.55854e+8 
           6090      2.52733e+8 
           6110      2.49659e+8 
           6130      2.46639e+8 
           6150      2.43653e+8 
           6170       2.4072e+8 
           6190       2.3784e+8 
           6210      2.34991e+8 
           6230      2.32184e+8 
           6250      2.29428e+8 
           6270      2.26701e+8 
           6290      2.24024e+8 
           6310      2.21376e+8 
           6330      2.18776e+8 
           6350      2.16214e+8 
           6370      2.13688e+8 
           6390      2.11199e+8 
           6410      2.08737e+8 
           6430       2.0632e+8 
           6450      2.03938e+8 
           6470       2.0159e+8 
           6490      1.99258e+8 
           6510      1.96409e+8 
           6530      1.93034e+8 
           6550      1.81838e+8 
           6570      1.60773e+8 
           6590      1.84842e+8 
           6610      1.85226e+8 
           6630      1.83767e+8 
           6650      1.81999e+8 
           6670      1.77573e+8 
           6690      1.75671e+8 
           6710      1.75981e+8 
           6730      1.74021e+8 
           6750      1.72107e+8 
           6770      1.70204e+8 
           6790      1.68328e+8 
           6810       1.6648e+8 
           6830      1.64658e+8 
           6850      1.62863e+8 
           6870      1.61086e+8 
           6890      1.59343e+8 
           6910      1.57617e+8 
           6930      1.55916e+8 
           6950      1.54233e+8 
           6970      1.52581e+8 
           6990      1.50946e+8 
           7010      1.49335e+8 
           7030      1.47747e+8 
           7050      1.46174e+8 
           7070      1.42077e+8 
           7090      1.43098e+8 
           7110      1.41594e+8 
           7130      1.40104e+8 
           7150      1.38636e+8 
           7170      1.37175e+8 
           7190      1.35757e+8 
           7210      1.34345e+8 
           7230      1.32918e+8 
           7250      1.31577e+8 
           7270      1.30219e+8 
           7290      1.27712e+8 
           7310      1.27543e+8 
           7330      1.26252e+8 
           7350      1.24959e+8 
           7370      1.23686e+8 
           7390      1.22431e+8 
           7410      1.21187e+8 
           7430      1.19963e+8 
           7450       1.1877e+8 
           7470      1.17574e+8 
           7490      1.16396e+8 
           7510      1.15196e+8 
           7530       1.1408e+8 
           7550      1.12948e+8 
           7570      1.11826e+8 
           7590      1.10714e+8 
           7610      1.09619e+8 
           7630       1.0854e+8 
           7650      1.07471e+8 
           7670      1.06419e+8 
           7690      1.05375e+8 
           7710      1.04348e+8 
           7730      1.03329e+8 
           7750      1.02326e+8 
           7770      1.01332e+8 
           7790      1.00359e+8 
           7810      9.93394e+7 
           7830      9.84332e+7 
           7850      9.75838e+7 
           7870      9.66444e+7 
           7890       9.5683e+7 
           7910      9.48144e+7 
           7930      9.39114e+7 
           7950      9.30223e+7 
           7970      9.20281e+7 
           7990      9.12198e+7 
           8010      9.02599e+7 
           8030       8.9361e+7 
           8050      8.85164e+7 
           8070      8.76964e+7 
           8090      8.68028e+7 
           8110      8.60888e+7 
           8130      8.53352e+7 
           8150      8.44915e+7 
           8170      8.37849e+7 
           8190        8.291e+7 
           8210      8.20818e+7 
           8230      8.15109e+7 
           8250      8.07896e+7 
           8270      7.97218e+7 
           8290      7.92992e+7 
           8310      7.86179e+7 
           8330      7.78554e+7 
           8350      7.68129e+7 
           8370      7.63656e+7 
           8390      7.57878e+7 
           8410      7.51082e+7 
           8430      7.43918e+7 
           8450      7.32381e+7 
           8470      7.30816e+7 
           8490      7.22673e+7 
           8510      7.17564e+7 
           8530       7.0944e+7 
           8550      7.02466e+7 
           8570      7.00063e+7 
