# Kurucz ODFNEW /NOVER (2003)
# teff = 9000 K (value for the effective temperature for the model. Temperatures are given in K)
# logg = 4.5 log(cm/s2) (value for Log(G) for the model.)
# meta = -1.5  (value for the Metallicity for the model.)
# lh = 1.25  (l/Hp where l is the  mixing length of the convective element and Hp is the pressure scale height)
# vtur = 2 km/s (Microturbulence velocity)
# alpha = 0.4  (Alpha)
#
# column 1: WAVELENGTH (ANGSTROM), Wavelength in Angstrom
# column 2: FLUX (ERG/CM2/S/A), Flux in erg/cm2/s/A
          273.5     1.50118e-24 
          278.5     6.86894e-23 
            284     3.60634e-22 
            290     1.87993e-21 
            296     9.06393e-21 
            301      3.1978e-20 
            308     1.74044e-19 
            318     1.71421e-18 
            328     1.46284e-17 
            338     1.09539e-16 
            348     7.27988e-16 
            357     3.64465e-15 
            366     1.68133e-14 
            375      7.1882e-14 
            385     3.32493e-13 
            395     1.41884e-12 
            405     5.61999e-12 
            414     1.82817e-11 
            422     4.99143e-11 
            430     1.31071e-10 
            441     4.65621e-10 
            451      1.39345e-9 
            460      3.58107e-9 
            470      9.77518e-9 
            480      2.55355e-8 
            490      6.40111e-8 
            500      1.54354e-7 
            506      2.58288e-7 
            512      4.25542e-7 
            520      8.10512e-7 
            530      1.76214e-6 
            540      3.71562e-6 
            550      7.61379e-6 
            560      1.51821e-5 
            570      2.95064e-5 
            580      5.59573e-5 
            590     0.000103713 
            600      0.00018804 
            610     0.000333893 
            620     0.000581255 
            630     0.000992937 
            640      0.00166613 
            650       0.0027483 
            658      0.00405344 
            665      0.00564807 
            675      0.00895634 
            685       0.0139981 
            695       0.0215754 
            705       0.0328155 
            716       0.0512924 
            726       0.0760069 
            735        0.107212 
            745         0.15547 
            755         0.22304 
            765        0.316692 
            775        0.445251 
            785        0.620093 
            795        0.855714 
            805         1.17055 
            815         1.58774 
            825         2.13625 
            835         2.85174 
            845         3.77829 
            855         4.96967 
            865         6.49109 
            875         8.42103 
            885         10.8532 
            895         13.9005 
            905         17.6956 
            915         44.1379 
            925         258.661 
            935         485.141 
            945         952.765 
            955         1472.96 
            965         2023.33 
            975         1457.06 
            985          3348.7 
            995         4011.88 
           1005         4808.22 
           1015         4695.66 
           1025         2669.71 
           1035         6125.93 
           1045         8700.11 
           1055         10298.7 
           1065         11797.9 
           1075         13890.4 
           1085         16006.8 
           1095         17789.2 
           1105         39572.7 
           1115          668566 
           1125          844648 
           1135          915690 
           1145          501722 
           1155          213195 
           1165         95632.3 
           1175         67900.7 
           1185         68546.3 
           1195         38165.6 
           1205         27138.6 
           1215         8260.24 
           1225         29470.6 
           1235         59719.5 
           1245         83508.6 
           1255          127316 
           1265          185144 
           1275          476884 
           1285      2.14501e+6 
           1295      4.02333e+6 
           1305      5.39425e+6 
           1315      9.47104e+6 
           1325      1.32255e+7 
           1335      1.65894e+7 
           1345      2.08125e+7 
           1355      2.11774e+7 
           1365       2.2781e+7 
           1375       2.0781e+7 
           1385      1.62289e+7 
           1395      1.51931e+7 
           1405      2.53783e+7 
           1415      3.95465e+7 
           1425        4.319e+7 
           1435      4.06216e+7 
           1442      4.74444e+7 
           1447      4.60807e+7 
           1455      5.02804e+7 
           1465      4.64104e+7 
           1475      4.73209e+7 
           1485      4.81139e+7 
           1495      5.01457e+7 
           1505      5.20047e+7 
           1512      5.08816e+7 
           1517      4.70746e+7 
           1525      4.54886e+7 
           1535      4.47699e+7 
           1545      4.57831e+7 
           1555      3.87336e+7 
           1565      3.02094e+7 
           1575       3.7542e+7 
           1585      3.85888e+7 
           1595      3.87343e+7 
           1605      3.80294e+7 
           1615      4.42316e+7 
           1625      4.69844e+7 
           1635      5.32098e+7 
           1645      6.45237e+7 
           1655      5.55942e+7 
           1665      6.84486e+7 
           1672      6.05498e+7 
           1677      6.72863e+7 
           1685      7.11218e+7 
           1695       6.5019e+7 
           1705      6.63217e+7 
           1715      7.03973e+7 
           1725      6.92505e+7 
           1735      7.21339e+7 
           1745      6.98336e+7 
           1755      7.25749e+7 
           1765      6.58001e+7 
           1775      7.09594e+7 
           1785      7.03722e+7 
           1795      7.33459e+7 
           1805      6.97939e+7 
           1815      6.95347e+7 
           1825      6.74242e+7 
           1835      6.81368e+7 
           1845      6.40601e+7 
           1855      6.66328e+7 
           1865      6.75784e+7 
           1875      6.77885e+7 
           1885      6.78717e+7 
           1895      6.72989e+7 
           1905      6.46457e+7 
           1915      6.64285e+7 
           1925      6.72987e+7 
           1935       6.4995e+7 
           1945      6.77581e+7 
           1955      6.72303e+7 
           1967      6.74397e+7 
           1976      6.52734e+7 
           1984      6.46878e+7 
           1995      6.47469e+7 
           2005      6.32424e+7 
           2015      6.21374e+7 
           2025      6.11669e+7 
           2035      6.33291e+7 
           2045      6.34536e+7 
           2055      6.12005e+7 
           2065      6.13125e+7 
           2074      6.26374e+7 
           2078      6.33413e+7 
           2085      6.27573e+7 
           2095      6.15673e+7 
           2105      6.10194e+7 
           2115      6.08784e+7 
           2125      6.07664e+7 
           2135      5.73769e+7 
           2145      6.03902e+7 
           2155      5.94773e+7 
           2165      5.75982e+7 
           2175      5.75659e+7 
           2185      5.77977e+7 
           2195      5.95101e+7 
           2205      5.76164e+7 
           2215      5.47031e+7 
           2225      5.53563e+7 
           2235      5.84195e+7 
           2245      5.59455e+7 
           2255      5.43347e+7 
           2265      5.35711e+7 
           2275      5.58751e+7 
           2285      5.64745e+7 
           2295      5.42775e+7 
           2305      5.45798e+7 
           2315      5.39855e+7 
           2325      5.40476e+7 
           2335      5.34855e+7 
           2345       5.0192e+7 
           2355      5.32928e+7 
           2365      5.05948e+7 
           2375      5.21873e+7 
           2385      4.84066e+7 
           2395      5.12405e+7 
           2405      5.02186e+7 
           2415      5.05536e+7 
           2425       5.1682e+7 
           2435       4.9879e+7 
           2445       5.1249e+7 
           2455      5.05885e+7 
           2465      4.97437e+7 
           2475       4.8519e+7 
           2485      4.98186e+7 
           2495      4.87846e+7 
           2505      5.10129e+7 
           2513      4.89234e+7 
           2518      4.83936e+7 
           2525      4.65042e+7 
           2535      4.62559e+7 
           2545      4.64963e+7 
           2555      4.84899e+7 
           2565      4.83879e+7 
           2575      4.98696e+7 
           2585      5.01419e+7 
           2595      4.99878e+7 
           2605      4.87298e+7 
           2615      4.83986e+7 
           2625      4.88638e+7 
           2635      4.91062e+7 
           2645      5.16283e+7 
           2655      5.12786e+7 
           2665      4.95583e+7 
           2675      5.02346e+7 
           2685      5.07166e+7 
           2695      4.94856e+7 
           2705      4.94916e+7 
           2715      4.82123e+7 
           2725      4.81793e+7 
           2735      4.92579e+7 
           2745      4.61218e+7 
           2755      4.63331e+7 
           2765      4.75739e+7 
           2775      4.85995e+7 
           2785      4.78174e+7 
           2795      4.04896e+7 
           2805      4.37566e+7 
           2815      4.90058e+7 
           2825      4.87538e+7 
           2835      4.78433e+7 
           2845      4.70794e+7 
           2855      4.59363e+7 
           2865       4.7044e+7 
           2875      4.67127e+7 
           2885       4.7177e+7 
           2895      4.73551e+7 
           2910       4.8314e+7 
           2930      4.70906e+7 
           2950      4.68439e+7 
           2970      4.68216e+7 
           2990      4.66566e+7 
           3010      4.67913e+7 
           3030      4.66024e+7 
           3050      4.62726e+7 
           3070      4.57196e+7 
           3090      4.57689e+7 
           3110      4.54704e+7 
           3130      4.52026e+7 
           3150      4.50557e+7 
           3170      4.48676e+7 
           3190      4.39476e+7 
           3210      4.41731e+7 
           3230      4.35014e+7 
           3250      4.36881e+7 
           3270      4.37966e+7 
           3290      4.37773e+7 
           3310      4.36419e+7 
           3330      4.30105e+7 
           3350      4.24951e+7 
           3370      4.24965e+7 
           3390      4.21965e+7 
           3410       4.2393e+7 
           3430      4.21755e+7 
           3450      4.19063e+7 
           3470      4.16499e+7 
           3490      4.15048e+7 
           3510      4.13849e+7 
           3530      4.12317e+7 
           3550      4.10613e+7 
           3570      4.06646e+7 
           3590      4.04671e+7 
           3610      4.02715e+7 
           3630      4.00891e+7 
           3640       3.9963e+7 
           3650      4.01373e+7 
           3670      4.00591e+7 
           3690       3.8843e+7 
           3710      3.87565e+7 
           3730      3.83556e+7 
           3750      4.61854e+7 
           3770      4.84586e+7 
           3790      5.84577e+7 
           3810      6.89091e+7 
           3830      5.52501e+7 
           3850      7.76079e+7 
           3870      8.94301e+7 
           3890      4.84004e+7 
           3910      9.02045e+7 
           3930      1.00031e+8 
           3950      9.03571e+7 
           3970      4.67921e+7 
           3990      8.52771e+7 
           4010      1.03352e+8 
           4030      1.05785e+8 
           4050      1.03718e+8 
           4070      9.54372e+7 
           4090      6.75848e+7 
           4110      5.14353e+7 
           4130       8.8479e+7 
           4150       9.7277e+7 
           4170      9.85386e+7 
           4190      9.81517e+7 
           4210      9.71512e+7 
           4230      9.54262e+7 
           4250      9.43946e+7 
           4270      9.23388e+7 
           4290      8.92916e+7 
           4310      8.11213e+7 
           4330      5.64384e+7 
           4350      4.80784e+7 
           4370      7.69915e+7 
           4390      8.33621e+7 
           4410      8.46823e+7 
           4430      8.45971e+7 
           4450      8.39544e+7 
           4470      8.31614e+7 
           4490      8.16579e+7 
           4510       8.1352e+7 
           4530      8.03617e+7 
           4550      7.92911e+7 
           4570      7.86545e+7 
           4590      7.77005e+7 
           4610      7.69835e+7 
           4630      7.59385e+7 
           4650      7.51246e+7 
           4670      7.41768e+7 
           4690      7.31327e+7 
           4710      7.17029e+7 
           4730      7.14093e+7 
           4750      7.04386e+7 
           4770       6.9311e+7 
           4790      6.78763e+7 
           4810      6.55431e+7 
           4830       6.0307e+7 
           4850      4.48039e+7 
           4870      3.65612e+7 
           4890      5.61468e+7 
           4910      6.13675e+7 
           4930      6.23493e+7 
           4950      6.25169e+7 
           4970      6.21932e+7 
           4990      6.16306e+7 
           5010      6.08888e+7 
           5030      6.04324e+7 
           5050      5.97863e+7 
           5070      5.92789e+7 
           5090      5.86394e+7 
           5110      5.80197e+7 
           5130      5.73693e+7 
           5150      5.67413e+7 
           5170      5.56125e+7 
           5190      5.51903e+7 
           5210       5.4934e+7 
           5230      5.42639e+7 
           5250      5.38199e+7 
           5270      5.30879e+7 
           5290      5.26832e+7 
           5310      5.20947e+7 
           5330      5.14817e+7 
           5350      5.10541e+7 
           5370      5.04955e+7 
           5390      4.99827e+7 
           5410      4.94259e+7 
           5430      4.89552e+7 
           5450      4.84634e+7 
           5470      4.79736e+7 
           5490       4.7486e+7 
           5510      4.70116e+7 
           5530      4.65071e+7 
           5550       4.6071e+7 
           5570      4.55938e+7 
           5590      4.51138e+7 
           5610       4.4679e+7 
           5630       4.4248e+7 
           5650      4.38043e+7 
           5670      4.33611e+7 
           5690       4.2937e+7 
           5710      4.25108e+7 
           5730      4.21021e+7 
           5750      4.16809e+7 
           5770      4.12759e+7 
           5790      4.08733e+7 
           5810      4.04763e+7 
           5830      4.00838e+7 
           5850      3.96913e+7 
           5870      3.92956e+7 
           5890      3.88283e+7 
           5910      3.85562e+7 
           5930      3.81873e+7 
           5950      3.78171e+7 
           5970      3.74606e+7 
           5990      3.70996e+7 
           6010      3.67477e+7 
           6030      3.64028e+7 
           6050      3.60596e+7 
           6070      3.57242e+7 
           6090      3.53874e+7 
           6110      3.50552e+7 
           6130      3.47165e+7 
           6150      3.43606e+7 
           6170       3.4063e+7 
           6190      3.37714e+7 
           6210      3.34595e+7 
           6230       3.3147e+7 
           6250      3.28204e+7 
           6270      3.25472e+7 
           6290      3.22491e+7 
           6310      3.19485e+7 
           6330      3.16586e+7 
           6350      3.13109e+7 
           6370      3.10514e+7 
           6390      3.07577e+7 
           6410      3.04414e+7 
           6430      3.01412e+7 
           6450      2.97861e+7 
           6470       2.9451e+7 
           6490      2.90006e+7 
           6510      2.83329e+7 
           6530      2.69342e+7 
           6550      2.27825e+7 
           6570      1.85175e+7 
           6590      2.51022e+7 
           6610      2.67785e+7 
           6630       2.7152e+7 
           6650      2.71525e+7 
           6670      2.70246e+7 
           6690      2.68489e+7 
           6710      2.66498e+7 
           6730      2.64467e+7 
           6750      2.62505e+7 
           6770      2.60398e+7 
           6790      2.58147e+7 
           6810      2.55942e+7 
           6830      2.53719e+7 
           6850      2.51557e+7 
           6870      2.49424e+7 
           6890      2.47304e+7 
           6910      2.45203e+7 
           6930      2.43123e+7 
           6950      2.41071e+7 
           6970       2.3903e+7 
           6990      2.37024e+7 
           7010      2.34961e+7 
           7030      2.33039e+7 
           7050      2.31112e+7 
           7070      2.29181e+7 
           7090      2.27275e+7 
           7110      2.25179e+7 
           7130      2.23495e+7 
           7150      2.21612e+7 
           7170      2.19821e+7 
           7190      2.18009e+7 
           7210      2.16215e+7 
           7230      2.14451e+7 
           7250      2.12667e+7 
           7270      2.10964e+7 
           7290      2.09213e+7 
           7310      2.07534e+7 
           7330      2.05842e+7 
           7350        2.042e+7 
           7370      2.02552e+7 
           7390      2.00905e+7 
           7410      1.99239e+7 
           7430      1.97629e+7 
           7450      1.96081e+7 
           7470      1.94465e+7 
           7490      1.92937e+7 
           7510      1.91437e+7 
           7530      1.89923e+7 
           7550      1.88429e+7 
           7570      1.86935e+7 
           7590      1.85461e+7 
           7610      1.83993e+7 
           7630      1.82551e+7 
           7650      1.81102e+7 
           7670      1.79672e+7 
           7690      1.78261e+7 
           7710      1.76881e+7 
           7730      1.75519e+7 
           7750      1.74144e+7 
           7770      1.71183e+7 
           7790      1.71466e+7 
           7810      1.70138e+7 
           7830      1.68815e+7 
           7850      1.67498e+7 
           7870      1.66106e+7 
           7890      1.64745e+7 
           7910      1.63684e+7 
           7930      1.62398e+7 
           7950      1.61129e+7 
           7970      1.59989e+7 
           7990      1.58534e+7 
           8010      1.57561e+7 
           8030      1.56369e+7 
           8050      1.55191e+7 
           8070      1.54018e+7 
           8090       1.5286e+7 
           8110      1.51718e+7 
           8130      1.50585e+7 
           8150      1.49461e+7 
           8170      1.48341e+7 
           8190        1.471e+7 
           8210      1.46329e+7 
           8230      1.45274e+7 
           8250      1.44194e+7 
           8270      1.43458e+7 
           8290      1.42482e+7 
           8310      1.41502e+7 
           8330      1.40368e+7 
           8350      1.39556e+7 
           8370      1.38561e+7 
           8390      1.37474e+7 
           8410      1.36373e+7 
           8430      1.35265e+7 
           8450      1.33761e+7 
           8470      1.32242e+7 
           8490      1.32472e+7 
           8510       1.2838e+7 
           8530      1.31056e+7 
           8550      1.22873e+7 
           8570      1.30672e+7 
           8590       1.2359e+7 
           8610      1.21263e+7 
           8630       1.3004e+7 
           8650      1.24731e+7 
           8670      1.08174e+7 
           8690      1.26479e+7 
           8710      1.29996e+7 
           8730       1.2431e+7 
           8750      1.00852e+7 
           8770       1.1805e+7 
           8790       1.2826e+7 
           8810      1.29474e+7 
           8830      1.25738e+7 
           8850      1.10966e+7 
           8870      9.53448e+6 
           8890      1.18293e+7 
           8910      1.25388e+7 
           8930      1.27104e+7 
           8950      1.26739e+7 
           8970      1.23454e+7 
           8990      1.15317e+7 
           9010      9.24095e+6 
           9030       1.0016e+7 
           9050      1.15738e+7 
           9070      1.20101e+7 
           9090      1.20973e+7 
           9110      1.21754e+7 
           9130      1.21294e+7 
           9150      1.19936e+7 
           9170      1.17568e+7 
           9190      1.13051e+7 
