# Kurucz ODFNEW /NOVER (2003)
# teff = 25000 K (value for the effective temperature for the model. Temperatures are given in K)
# logg = 4.5 log(cm/s2) (value for Log(G) for the model.)
# meta = 0  (value for the Metallicity for the model.)
# lh = 1.25  (l/Hp where l is the  mixing length of the convective element and Hp is the pressure scale height)
# vtur = 2 km/s (Microturbulence velocity)
# alpha = 0.4  (Alpha)
#
# column 1: WAVELENGTH (ANGSTROM), Wavelength in Angstrom
# column 2: FLUX (ERG/CM2/S/A), Flux in erg/cm2/s/A
          147.2     6.29585e-14 
            151      2.5671e-13 
          155.2     1.12452e-12 
          158.8      3.7623e-12 
            162     1.05597e-11 
            166     3.64029e-11 
          170.3      1.2915e-10 
          173.4     3.12058e-10 
          176.8     7.91707e-10 
          180.2      1.94421e-9 
          181.7      2.86094e-9 
          186.1      8.61426e-9 
            191      2.78316e-8 
          193.9      5.42471e-8 
          198.4      1.47466e-7 
          201.8      3.05421e-7 
            205      5.93839e-7 
          210.5      1.78306e-6 
          216.2      5.27273e-6 
          219.8      1.01777e-5 
            223      1.79588e-5 
          226.8      3.45828e-5 
            230      0.00140793 
            234      0.00318461 
            240      0.00747115 
          246.5       0.0179616 
          252.4       0.0388197 
          256.8       0.0645075 
            260        0.100903 
            264        0.157873 
          268.5        0.263901 
          273.5        0.452162 
          278.5         0.76626 
            284         1.42423 
            290         2.52279 
            296         4.39394 
            301         6.82804 
            308         12.9014 
            318          30.193 
            328         62.5478 
            338          132.23 
            348         258.737 
            357         895.674 
            366          1687.6 
            375         2628.49 
            385            4429 
            395         7701.92 
            405         11898.5 
            414         17857.3 
            422         24260.1 
            430         33919.9 
            441           51184 
            451         72782.1 
            460         96883.2 
            470          135316 
            480          183427 
            490          249683 
            500          332305 
            506      1.72859e+6 
            512      1.12689e+7 
            520      1.28871e+7 
            530      1.57907e+7 
            540      1.66738e+7 
            550      2.36462e+7 
            560      2.75063e+7 
            570      3.30522e+7 
            580      3.21844e+7 
            590      4.20928e+7 
            600      4.68139e+7 
            610      5.49361e+7 
            620       5.9477e+7 
            630      6.37858e+7 
            640      6.05508e+7 
            650      5.13654e+7 
            658      7.14914e+7 
            665      8.50609e+7 
            675       9.1399e+7 
            685      9.59838e+7 
            695      1.20758e+8 
            705      1.24261e+8 
            716      1.40564e+8 
            726      1.46324e+8 
            735       1.5466e+8 
            745      1.74299e+8 
            755      1.86539e+8 
            765      2.00774e+8 
            775      2.15779e+8 
            785      2.31072e+8 
            795      2.39232e+8 
            805       2.5098e+8 
            815      2.60655e+8 
            825      2.82465e+8 
            835      2.57671e+8 
            845      2.97047e+8 
            855      3.07614e+8 
            865      3.27475e+8 
            875      3.46859e+8 
            885      3.73634e+8 
            895       3.9142e+8 
            905       3.9008e+8 
            915       5.0964e+8 
            925      2.63448e+9 
            935      6.92245e+9 
            945     1.69426e+10 
            955     2.39985e+10 
            965     3.04438e+10 
            975      5.11857e+9 
            985     2.86691e+10 
            995     2.65142e+10 
           1005      3.0909e+10 
           1015     3.01025e+10 
           1025      1.1293e+10 
           1035     2.30812e+10 
           1045     3.71029e+10 
           1055     3.42231e+10 
           1065     2.60466e+10 
           1075     3.08852e+10 
           1085     2.80704e+10 
           1095     3.15642e+10 
           1105     2.71332e+10 
           1115     2.50893e+10 
           1125     2.01152e+10 
           1135     2.80173e+10 
           1145     2.40703e+10 
           1155     2.54799e+10 
           1165     2.56608e+10 
           1175     1.59249e+10 
           1185     2.44135e+10 
           1195     2.08237e+10 
           1205     1.16647e+10 
           1215       8.4792e+9 
           1225      1.7971e+10 
           1235     2.26523e+10 
           1245     2.24559e+10 
           1255     2.19031e+10 
           1265      2.1985e+10 
           1275     2.26069e+10 
           1285     2.22993e+10 
           1295     1.37613e+10 
           1305     1.45942e+10 
           1315      2.1291e+10 
           1325     1.97263e+10 
           1335     1.90387e+10 
           1345     1.90118e+10 
           1355     1.90342e+10 
           1365     1.69959e+10 
           1375     1.65166e+10 
           1385     1.61132e+10 
           1395     1.09122e+10 
           1405     1.22666e+10 
           1415     1.43199e+10 
           1425     1.42338e+10 
           1435     1.46451e+10 
           1442     1.51743e+10 
           1447     1.48714e+10 
           1455     1.43807e+10 
           1465     1.32568e+10 
           1475     1.34025e+10 
           1485     1.30538e+10 
           1495      1.2842e+10 
           1505     1.14463e+10 
           1512     1.03935e+10 
           1517     1.07471e+10 
           1525     1.11216e+10 
           1535      9.48369e+9 
           1545      9.32486e+9 
           1555      8.98408e+9 
           1565      9.60964e+9 
           1575     1.01928e+10 
           1585     1.00795e+10 
           1595     1.00833e+10 
           1605     1.01653e+10 
           1615      9.92599e+9 
           1625      9.71418e+9 
           1635     1.02268e+10 
           1645     1.01683e+10 
           1655      9.93819e+9 
           1665     1.01349e+10 
           1672      9.70735e+9 
           1677     1.04205e+10 
           1685     1.01487e+10 
           1695      9.59281e+9 
           1705      9.21495e+9 
           1715      8.73213e+9 
           1725      8.55205e+9 
           1735      8.88151e+9 
           1745      8.68846e+9 
           1755       8.7096e+9 
           1765      8.48783e+9 
           1775      8.01139e+9 
           1785      8.07546e+9 
           1795      8.38047e+9 
           1805      8.40523e+9 
           1815      7.52229e+9 
           1825      7.83541e+9 
           1835      7.50858e+9 
           1845      6.84007e+9 
           1855       6.8818e+9 
           1865      6.96211e+9 
           1875      7.25549e+9 
           1885      6.48171e+9 
           1895      6.03004e+9 
           1905      6.52519e+9 
           1915      6.13024e+9 
           1925      5.82993e+9 
           1935      6.16022e+9 
           1945      6.25239e+9 
           1955       5.6719e+9 
           1967      6.14661e+9 
           1976      6.43008e+9 
           1984      5.91195e+9 
           1995      5.81551e+9 
           2005      5.99643e+9 
           2015      5.88612e+9 
           2025       6.0748e+9 
           2035      5.54893e+9 
           2045      5.64244e+9 
           2055       5.4327e+9 
           2065      5.46671e+9 
           2074      5.64182e+9 
           2078      5.18207e+9 
           2085      5.42525e+9 
           2095      5.11942e+9 
           2105      5.29246e+9 
           2115      5.29744e+9 
           2125       5.3464e+9 
           2135      5.22792e+9 
           2145      4.96484e+9 
           2155      5.16451e+9 
           2165      5.12872e+9 
           2175      5.04424e+9 
           2185      4.89236e+9 
           2195      4.93585e+9 
           2205      4.89839e+9 
           2215      4.81571e+9 
           2225      4.67611e+9 
           2235      4.62387e+9 
           2245      4.65273e+9 
           2255      4.49428e+9 
           2265      4.54985e+9 
           2275      4.47784e+9 
           2285      4.46045e+9 
           2295      4.14064e+9 
           2305      4.30312e+9 
           2315        4.183e+9 
           2325      4.13435e+9 
           2335      3.98949e+9 
           2345      4.00939e+9 
           2355       3.9981e+9 
           2365      3.94381e+9 
           2375      3.87287e+9 
           2385      3.84258e+9 
           2395      3.80984e+9 
           2405       3.7282e+9 
           2415      3.68847e+9 
           2425      3.69085e+9 
           2435      3.57768e+9 
           2445      3.57828e+9 
           2455      3.57207e+9 
           2465      3.51035e+9 
           2475      3.45812e+9 
           2485      3.40228e+9 
           2495      3.01715e+9 
           2505      3.30074e+9 
           2513      3.16474e+9 
           2518      3.26573e+9 
           2525      3.22407e+9 
           2535      3.18685e+9 
           2545      3.05518e+9 
           2555      3.11453e+9 
           2565      3.06011e+9 
           2575      3.07952e+9 
           2585      3.04373e+9 
           2595      3.01578e+9 
           2605       2.9889e+9 
           2615      2.94961e+9 
           2625      2.92466e+9 
           2635      2.89502e+9 
           2645      2.87091e+9 
           2655      2.84841e+9 
           2665      2.74613e+9 
           2675      2.75739e+9 
           2685      2.74634e+9 
           2695      2.65442e+9 
           2705      2.62412e+9 
           2715      2.61459e+9 
           2725      2.58595e+9 
           2735      2.57699e+9 
           2745      2.50166e+9 
           2755      2.49623e+9 
           2765      2.46826e+9 
           2775      2.48587e+9 
           2785      2.44304e+9 
           2795      2.34216e+9 
           2805      2.37428e+9 
           2815      2.37764e+9 
           2825      2.33526e+9 
           2835      2.25417e+9 
           2845      2.28676e+9 
           2855      2.25205e+9 
           2865      2.24664e+9 
           2875      2.21928e+9 
           2885      2.19668e+9 
           2895      2.16584e+9 
           2910      2.11901e+9 
           2930      2.08522e+9 
           2950       2.0254e+9 
           2970      2.00035e+9 
           2990      1.95088e+9 
           3010      1.89011e+9 
           3030      1.87562e+9 
           3050      1.84252e+9 
           3070      1.81236e+9 
           3090       1.7421e+9 
           3110      1.73211e+9 
           3130      1.69128e+9 
           3150        1.663e+9 
           3170      1.62266e+9 
           3190      1.58265e+9 
           3210      1.56613e+9 
           3230      1.52965e+9 
           3250      1.50578e+9 
           3270      1.47441e+9 
           3290      1.44439e+9 
           3310      1.41946e+9 
           3330      1.38993e+9 
           3350      1.36395e+9 
           3370      1.33702e+9 
           3390      1.31579e+9 
           3410      1.29159e+9 
           3430      1.26257e+9 
           3450      1.23437e+9 
           3470      1.21295e+9 
           3490      1.18916e+9 
           3510      1.17057e+9 
           3530      1.15384e+9 
           3550      1.13242e+9 
           3570      1.11802e+9 
           3590       1.0844e+9 
           3610      1.06866e+9 
           3630      1.05049e+9 
           3640      1.05067e+9 
           3650      1.03519e+9 
           3670       1.0238e+9 
           3690      1.00543e+9 
           3710       9.6697e+8 
           3730      9.27736e+8 
           3750      9.44898e+8 
           3770      9.31347e+8 
           3790      9.78692e+8 
           3810      1.01794e+9 
           3830      8.87885e+8 
           3850      1.03784e+9 
           3870      1.04314e+9 
           3890      8.36358e+8 
           3910      1.04152e+9 
           3930      1.01153e+9 
           3950       1.0001e+9 
           3970      7.77821e+8 
           3990      9.60654e+8 
           4010      9.64988e+8 
           4030      9.02894e+8 
           4050      9.36558e+8 
           4070      8.91079e+8 
           4090      8.21084e+8 
           4110      7.25488e+8 
           4130      8.46823e+8 
           4150      8.45024e+8 
           4170      8.43568e+8 
           4190      8.33838e+8 
           4210      8.27104e+8 
           4230        8.085e+8 
           4250      7.85641e+8 
           4270       7.6179e+8 
           4290      7.54274e+8 
           4310      7.31572e+8 
           4330      6.62681e+8 
           4350      6.04459e+8 
           4370      6.95248e+8 
           4390      6.83493e+8 
           4410      6.86586e+8 
           4430      6.80343e+8 
           4450      6.69904e+8 
           4470      6.30852e+8 
           4490      6.46398e+8 
           4510      6.44789e+8 
           4530       6.3305e+8 
           4550       6.2384e+8 
           4570      6.13142e+8 
           4590      6.02839e+8 
           4610      5.89696e+8 
           4630      5.81502e+8 
           4650      5.64541e+8 
           4670      5.64069e+8 
           4690      5.59645e+8 
           4710      5.34983e+8 
           4730      5.39275e+8 
           4750      5.30552e+8 
           4770      5.30102e+8 
           4790      5.20562e+8 
           4810      5.07677e+8 
           4830      4.96602e+8 
           4850       4.5736e+8 
           4870      4.07753e+8 
           4890      4.76046e+8 
           4910      4.72879e+8 
           4930      4.54418e+8 
           4950      4.59317e+8 
           4970      4.56665e+8 
           4990      4.49108e+8 
           5010      4.29965e+8 
           5030      4.35189e+8 
           5050      4.23284e+8 
           5070      4.24333e+8 
           5090      4.17079e+8 
           5110      4.10474e+8 
           5130      4.02355e+8 
           5150      3.97475e+8 
           5170      3.94236e+8 
           5190      3.89092e+8 
           5210      3.81128e+8 
           5230      3.78618e+8 
           5250      3.73579e+8 
           5270      3.67615e+8 
           5290      3.63508e+8 
           5310      3.58276e+8 
           5330      3.53033e+8 
           5350      3.47372e+8 
           5370      3.44266e+8 
           5390      3.39291e+8 
           5410      3.34895e+8 
           5430      3.29596e+8 
           5450      3.25178e+8 
           5470      3.20727e+8 
           5490      3.17282e+8 
           5510      3.13431e+8 
           5530      3.08828e+8 
           5550      3.05322e+8 
           5570      3.01069e+8 
           5590      2.97568e+8 
           5610      2.93164e+8 
           5630      2.89979e+8 
           5650      2.84036e+8 
           5670      2.79703e+8 
           5690      2.76286e+8 
           5710      2.74308e+8 
           5730      2.71398e+8 
           5750      2.67109e+8 
           5770      2.64955e+8 
           5790      2.61498e+8 
           5810      2.58116e+8 
           5830      2.54553e+8 
           5850      2.51648e+8 
           5870      2.40359e+8 
           5890      2.43127e+8 
           5910      2.41765e+8 
           5930      2.38723e+8 
           5950      2.35226e+8 
           5970      2.33822e+8 
           5990      2.30069e+8 
           6010       2.2805e+8 
           6030      2.24975e+8 
           6050       2.2244e+8 
           6070      2.19924e+8 
           6090      2.17212e+8 
           6110      2.14682e+8 
           6130      2.12241e+8 
           6150      2.08443e+8 
           6170      2.06717e+8 
           6190      2.04686e+8 
           6210      2.02344e+8 
           6230      2.00027e+8 
           6250      1.97148e+8 
           6270      1.95097e+8 
           6290      1.92963e+8 
           6310      1.90455e+8 
           6330      1.88577e+8 
           6350      1.85401e+8 
           6370      1.83811e+8 
           6390      1.81943e+8 
           6410      1.79846e+8 
           6430      1.78082e+8 
           6450      1.75911e+8 
           6470      1.73358e+8 
           6490      1.71603e+8 
           6510      1.69599e+8 
           6530      1.66733e+8 
           6550      1.58551e+8 
           6570      1.39556e+8 
           6590      1.59269e+8 
           6610      1.60005e+8 
           6630      1.58853e+8 
           6650      1.57038e+8 
           6670      1.53676e+8 
           6690      1.52102e+8 
           6710      1.52117e+8 
           6730       1.5015e+8 
           6750      1.48898e+8 
           6770      1.47296e+8 
           6790      1.44607e+8 
           6810      1.43897e+8 
           6830      1.42248e+8 
           6850      1.40969e+8 
           6870      1.39447e+8 
           6890      1.37821e+8 
           6910      1.36228e+8 
           6930      1.34956e+8 
           6950      1.33635e+8 
           6970      1.32225e+8 
           6990      1.30791e+8 
           7010      1.29386e+8 
           7030      1.28019e+8 
           7050      1.26679e+8 
           7070       1.2316e+8 
           7090      1.24085e+8 
           7110       1.2227e+8 
           7130      1.21051e+8 
           7150      1.20161e+8 
           7170      1.18994e+8 
           7190      1.17815e+8 
           7210      1.16612e+8 
           7230      1.13762e+8 
           7250      1.14003e+8 
           7270      1.13063e+8 
           7290      1.10933e+8 
           7310      1.10757e+8 
           7330      1.09635e+8 
           7350      1.08557e+8 
           7370      1.07477e+8 
           7390      1.06392e+8 
           7410      1.05331e+8 
           7430      1.04158e+8 
           7450      1.03206e+8 
           7470      1.01709e+8 
           7490      1.01106e+8 
           7510      1.00134e+8 
           7530      9.91175e+7 
           7550      9.82361e+7 
           7570      9.72839e+7 
           7590       9.6301e+7 
           7610      9.52686e+7 
           7630      9.44397e+7 
           7650      9.35282e+7 
           7670      9.26312e+7 
           7690      9.17359e+7 
           7710      9.08423e+7 
           7730      8.99315e+7 
           7750      8.91167e+7 
           7770      8.75852e+7 
           7790      8.74216e+7 
           7810      8.65421e+7 
           7830      8.57688e+7 
           7850      8.48371e+7 
           7870      8.39989e+7 
           7890      8.29745e+7 
           7910      8.25675e+7 
           7930      8.17981e+7 
           7950       8.0785e+7 
           7970      8.01132e+7 
           7990      7.91166e+7 
           8010      7.86398e+7 
           8030      7.79038e+7 
           8050      7.71742e+7 
           8070      7.65029e+7 
           8090       7.5705e+7 
           8110       7.4765e+7 
           8130      7.44318e+7 
           8150      7.37153e+7 
           8170       7.3146e+7 
           8190       7.2177e+7 
           8210       7.1496e+7 
           8230      7.07985e+7 
           8250       7.0511e+7 
           8270       6.9223e+7 
           8290      6.91799e+7 
           8310      6.86018e+7 
           8330      6.80013e+7 
           8350      6.70384e+7 
           8370      6.66054e+7 
           8390      6.61919e+7 
           8410      6.55792e+7 
           8430      6.49662e+7 
           8450      6.36724e+7 
           8470      6.38079e+7 
           8490      6.30425e+7 
           8510      6.25333e+7 
           8530      6.19763e+7 
           8550      6.09807e+7 
           8570      6.14145e+7 
