# Kurucz ODFNEW /NOVER (2003)
# teff = 21000 K (value for the effective temperature for the model. Temperatures are given in K)
# logg = 5 log(cm/s2) (value for Log(G) for the model.)
# meta = -0.5  (value for the Metallicity for the model.)
# lh = 1.25  (l/Hp where l is the  mixing length of the convective element and Hp is the pressure scale height)
# vtur = 2 km/s (Microturbulence velocity)
# alpha = 0.4  (Alpha)
#
# column 1: WAVELENGTH (ANGSTROM), Wavelength in Angstrom
# column 2: FLUX (ERG/CM2/S/A), Flux in erg/cm2/s/A
          147.2     4.22911e-18 
            151     2.33727e-17 
          155.2     1.40244e-16 
          158.8     6.03217e-16 
            162      2.0905e-15 
            166     9.24297e-15 
          170.3     4.22218e-14 
          173.4     1.20601e-13 
          176.8     3.65217e-13 
          180.2     1.06089e-12 
          181.7     1.67637e-12 
          186.1     6.15917e-12 
            191     2.44568e-11 
          193.9     5.34374e-11 
          198.4     1.71948e-10 
          201.8     4.02519e-10 
            205     8.74846e-10 
          210.5      3.13718e-9 
          216.2      1.10216e-8 
          219.8      2.35877e-8 
            223      4.54031e-8 
          226.8      9.65951e-8 
            230      4.44783e-7 
            234      1.07984e-6 
            240      3.15864e-6 
          246.5      9.42099e-6 
          252.4      2.42705e-5 
          256.8      4.69211e-5 
            260      7.67893e-5 
            264     0.000136993 
          268.5     0.000256773 
          273.5      0.00050305 
          278.5     0.000964916 
            284      0.00192466 
            290      0.00395024 
            296      0.00785441 
            301       0.0136598 
            308       0.0284116 
            318        0.078476 
            328        0.199493 
            338        0.484646 
            348         1.11046 
            357            2.27 
            366         4.45896 
            375         8.36828 
            385         16.3362 
            395         30.6478 
            405         55.7429 
            414         93.2658 
            422         143.631 
            430         217.378 
            441          377.56 
            451         607.691 
            460         911.753 
            470         1405.77 
            480         2122.86 
            490         3151.13 
            500          4596.4 
            506         40716.4 
            512          138718 
            520          176453 
            530          246490 
            540          286035 
            550          410205 
            560          504981 
            570          641797 
            580          684407 
            590          926456 
            600      1.14934e+6 
            610      1.41094e+6 
            620      1.65412e+6 
            630      1.96964e+6 
            640      2.22561e+6 
            650      2.56265e+6 
            658      3.02792e+6 
            665      3.32606e+6 
            675       3.7618e+6 
            685      4.29635e+6 
            695      5.07607e+6 
            705      5.70894e+6 
            716      6.57147e+6 
            726      7.32694e+6 
            735      8.16186e+6 
            745      9.25219e+6 
            755      1.03636e+7 
            765      1.14977e+7 
            775      1.28325e+7 
            785      1.42163e+7 
            795      1.54787e+7 
            805       1.7012e+7 
            815      1.85238e+7 
            825      2.03906e+7 
            835      2.16331e+7 
            845       2.3759e+7 
            855      2.56889e+7 
            865      2.79678e+7 
            875      3.02712e+7 
            885       3.2919e+7 
            895       3.5356e+7 
            905      3.69119e+7 
            915      5.17695e+7 
            925      1.69638e+8 
            935      4.04828e+8 
            945      1.68477e+9 
            955      4.59829e+9 
            965      6.80012e+9 
            975      1.48758e+9 
            985     1.18825e+10 
            995     1.22955e+10 
           1005     1.36716e+10 
           1015      9.61584e+9 
           1025      1.08642e+9 
           1035      6.65169e+9 
           1045     1.52041e+10 
           1055     1.52699e+10 
           1065     1.26621e+10 
           1075     1.47901e+10 
           1085     1.35094e+10 
           1095     1.47368e+10 
           1105     1.28551e+10 
           1115     1.22338e+10 
           1125     1.14999e+10 
           1135     1.33347e+10 
           1145     1.13971e+10 
           1155     1.23652e+10 
           1165     1.25871e+10 
           1175      9.94143e+9 
           1185     1.21207e+10 
           1195      8.57519e+9 
           1205      4.66493e+9 
           1215      1.07226e+9 
           1225       4.5023e+9 
           1235      9.62531e+9 
           1245     1.05847e+10 
           1255     1.03495e+10 
           1265      9.75215e+9 
           1275     1.04025e+10 
           1285     1.04644e+10 
           1295      7.48281e+9 
           1305      6.87527e+9 
           1315      9.80763e+9 
           1325      9.32047e+9 
           1335      8.72224e+9 
           1345      9.02764e+9 
           1355       8.9156e+9 
           1365      8.27512e+9 
           1375      8.22792e+9 
           1385      8.32459e+9 
           1395      7.27198e+9 
           1405      7.54308e+9 
           1415      7.65209e+9 
           1425      7.64544e+9 
           1435      7.58389e+9 
           1442      7.79887e+9 
           1447      7.67328e+9 
           1455      7.49304e+9 
           1465      7.17501e+9 
           1475      7.01381e+9 
           1485      6.74593e+9 
           1495       6.7792e+9 
           1505      6.30071e+9 
           1512       5.9828e+9 
           1517      6.18702e+9 
           1525      6.18334e+9 
           1535      5.71308e+9 
           1545      5.84958e+9 
           1555      5.53388e+9 
           1565      5.54798e+9 
           1575      5.75507e+9 
           1585      5.66198e+9 
           1595      5.69857e+9 
           1605      5.52994e+9 
           1615      5.45907e+9 
           1625      5.33188e+9 
           1635      5.39835e+9 
           1645      5.32038e+9 
           1655      5.07445e+9 
           1665      5.27976e+9 
           1672      5.07434e+9 
           1677      5.17755e+9 
           1685      5.15862e+9 
           1695      4.97769e+9 
           1705      4.76824e+9 
           1715      4.56959e+9 
           1725      4.50676e+9 
           1735      4.58211e+9 
           1745      4.46257e+9 
           1755      4.51179e+9 
           1765      4.22148e+9 
           1775      4.26851e+9 
           1785      4.21917e+9 
           1795      4.29798e+9 
           1805      4.24078e+9 
           1815      4.02732e+9 
           1825      4.08545e+9 
           1835      3.95187e+9 
           1845      3.70319e+9 
           1855      3.63249e+9 
           1865       3.6413e+9 
           1875      3.75666e+9 
           1885      3.49807e+9 
           1895       3.3276e+9 
           1905      3.48563e+9 
           1915      3.34002e+9 
           1925       3.2562e+9 
           1935      3.31399e+9 
           1945      3.33856e+9 
           1955      3.14501e+9 
           1967      3.27608e+9 
           1976      3.35253e+9 
           1984      3.16572e+9 
           1995      3.08064e+9 
           2005      3.12121e+9 
           2015      3.05078e+9 
           2025      3.14255e+9 
           2035      2.98583e+9 
           2045      2.97121e+9 
           2055      2.85636e+9 
           2065      2.90227e+9 
           2074      2.92321e+9 
           2078      2.83501e+9 
           2085      2.86124e+9 
           2095      2.74979e+9 
           2105      2.78341e+9 
           2115      2.75757e+9 
           2125      2.78166e+9 
           2135      2.71152e+9 
           2145      2.64479e+9 
           2155       2.6697e+9 
           2165       2.6201e+9 
           2175      2.58436e+9 
           2185       2.5471e+9 
           2195        2.546e+9 
           2205      2.49297e+9 
           2215      2.45193e+9 
           2225      2.38923e+9 
           2235      2.40033e+9 
           2245      2.37473e+9 
           2255      2.31704e+9 
           2265      2.32519e+9 
           2275      2.29592e+9 
           2285      2.28741e+9 
           2295      2.21652e+9 
           2305      2.20527e+9 
           2315      2.16426e+9 
           2325      2.14422e+9 
           2335       2.0749e+9 
           2345      2.03278e+9 
           2355      2.04544e+9 
           2365      1.99269e+9 
           2375      1.99117e+9 
           2385      1.94795e+9 
           2395       1.9595e+9 
           2405      1.91581e+9 
           2415      1.89695e+9 
           2425      1.90279e+9 
           2435      1.85117e+9 
           2445      1.84709e+9 
           2455      1.84001e+9 
           2465      1.80093e+9 
           2475      1.78309e+9 
           2485      1.77975e+9 
           2495      1.72272e+9 
           2505      1.74111e+9 
           2513      1.68817e+9 
           2518      1.71213e+9 
           2525        1.676e+9 
           2535      1.64944e+9 
           2545      1.62109e+9 
           2555      1.64224e+9 
           2565       1.6148e+9 
           2575      1.62035e+9 
           2585       1.6097e+9 
           2595      1.59251e+9 
           2605      1.57497e+9 
           2615      1.56108e+9 
           2625      1.54369e+9 
           2635      1.52836e+9 
           2645      1.53755e+9 
           2655      1.52001e+9 
           2665      1.48273e+9 
           2675      1.48146e+9 
           2685      1.47238e+9 
           2695      1.44104e+9 
           2705      1.43807e+9 
           2715      1.41687e+9 
           2725      1.39005e+9 
           2735      1.39522e+9 
           2745      1.34832e+9 
           2755      1.34208e+9 
           2765      1.33347e+9 
           2775      1.34222e+9 
           2785      1.32376e+9 
           2795      1.26516e+9 
           2805      1.28685e+9 
           2815       1.2908e+9 
           2825      1.26331e+9 
           2835      1.23342e+9 
           2845      1.23984e+9 
           2855      1.23325e+9 
           2865      1.22805e+9 
           2875      1.21205e+9 
           2885       1.2019e+9 
           2895      1.19105e+9 
           2910      1.17293e+9 
           2930      1.14424e+9 
           2950      1.11688e+9 
           2970      1.10654e+9 
           2990      1.08159e+9 
           3010      1.06448e+9 
           3030      1.04653e+9 
           3050      1.02605e+9 
           3070      1.00673e+9 
           3090      9.85728e+8 
           3110       9.6791e+8 
           3130      9.52273e+8 
           3150      9.34183e+8 
           3170      9.16809e+8 
           3190      8.90429e+8 
           3210      8.82914e+8 
           3230      8.67537e+8 
           3250      8.52434e+8 
           3270      8.38233e+8 
           3290       8.2247e+8 
           3310      8.09225e+8 
           3330      7.94777e+8 
           3350      7.79374e+8 
           3370      7.67132e+8 
           3390      7.54042e+8 
           3410      7.41206e+8 
           3430      7.26375e+8 
           3450      7.11996e+8 
           3470      7.01403e+8 
           3490      6.89613e+8 
           3510      6.78658e+8 
           3530      6.68148e+8 
           3550      6.57083e+8 
           3570      6.49446e+8 
           3590      6.34279e+8 
           3610      6.25941e+8 
           3630      6.14173e+8 
           3640       6.1322e+8 
           3650      6.05595e+8 
           3670      5.98397e+8 
           3690      5.88967e+8 
           3710      5.70126e+8 
           3730      5.45535e+8 
           3750      5.50072e+8 
           3770      5.42793e+8 
           3790      5.82662e+8 
           3810      6.19071e+8 
           3830      5.28771e+8 
           3850      6.50193e+8 
           3870      6.80718e+8 
           3890      4.91299e+8 
           3910      6.77113e+8 
           3930      6.80678e+8 
           3950       6.5876e+8 
           3970      4.60224e+8 
           3990       6.2548e+8 
           4010      6.46176e+8 
           4030      5.95891e+8 
           4050      6.37954e+8 
           4070      6.15893e+8 
           4090      5.28562e+8 
           4110      4.47849e+8 
           4130      5.70984e+8 
           4150      5.77984e+8 
           4170      5.77349e+8 
           4190      5.71765e+8 
           4210      5.64517e+8 
           4230       5.5477e+8 
           4250       5.4418e+8 
           4270      5.29465e+8 
           4290      5.23681e+8 
           4310      5.06278e+8 
           4330      4.24875e+8 
           4350      3.82652e+8 
           4370      4.78327e+8 
           4390      4.63129e+8 
           4410      4.77089e+8 
           4430       4.6874e+8 
           4450      4.64137e+8 
           4470       4.2596e+8 
           4490      4.45682e+8 
           4510       4.4485e+8 
           4530      4.37112e+8 
           4550      4.30457e+8 
           4570       4.2419e+8 
           4590       4.1798e+8 
           4610      4.11561e+8 
           4630      4.04955e+8 
           4650      3.97942e+8 
           4670       3.9328e+8 
           4690      3.88169e+8 
           4710      3.74079e+8 
           4730      3.74929e+8 
           4750       3.6904e+8 
           4770      3.65604e+8 
           4790      3.59143e+8 
           4810      3.51196e+8 
           4830      3.40332e+8 
           4850      2.94849e+8 
           4870      2.59075e+8 
           4890      3.22736e+8 
           4910      3.25832e+8 
           4930      3.12297e+8 
           4950      3.20233e+8 
           4970      3.16853e+8 
           4990      3.12245e+8 
           5010      3.01337e+8 
           5030      3.02996e+8 
           5050      2.94278e+8 
           5070      2.95361e+8 
           5090      2.91169e+8 
           5110       2.8686e+8 
           5130      2.82881e+8 
           5150      2.78927e+8 
           5170      2.75631e+8 
           5190      2.71819e+8 
           5210      2.66488e+8 
           5230      2.64688e+8 
           5250      2.61172e+8 
           5270      2.57525e+8 
           5290       2.5437e+8 
           5310      2.50947e+8 
           5330       2.4737e+8 
           5350      2.43681e+8 
           5370      2.41242e+8 
           5390      2.38081e+8 
           5410      2.34805e+8 
           5430      2.31213e+8 
           5450      2.28517e+8 
           5470      2.25452e+8 
           5490      2.23062e+8 
           5510      2.20056e+8 
           5530      2.17247e+8 
           5550      2.14584e+8 
           5570      2.11771e+8 
           5590      2.09221e+8 
           5610      2.06308e+8 
           5630      2.04072e+8 
           5650      2.00423e+8 
           5670      1.98156e+8 
           5690      1.96184e+8 
           5710      1.94014e+8 
           5730      1.91687e+8 
           5750      1.89251e+8 
           5770      1.87024e+8 
           5790      1.84734e+8 
           5810      1.82393e+8 
           5830      1.80202e+8 
           5850      1.78036e+8 
           5870      1.69084e+8 
           5890      1.72738e+8 
           5910      1.71635e+8 
           5930      1.69655e+8 
           5950       1.6725e+8 
           5970      1.65624e+8 
           5990      1.63427e+8 
           6010      1.61778e+8 
           6030      1.59847e+8 
           6050      1.57989e+8 
           6070      1.56122e+8 
           6090      1.54245e+8 
           6110       1.5253e+8 
           6130      1.50764e+8 
           6150       1.4867e+8 
           6170      1.47252e+8 
           6190      1.45614e+8 
           6210      1.43935e+8 
           6230      1.42275e+8 
           6250      1.40469e+8 
           6270      1.39028e+8 
           6290       1.3745e+8 
           6310      1.35785e+8 
           6330      1.34383e+8 
           6350      1.32193e+8 
           6370      1.30965e+8 
           6390      1.29869e+8 
           6410      1.28354e+8 
           6430      1.27083e+8 
           6450      1.25599e+8 
           6470      1.24149e+8 
           6490      1.22535e+8 
           6510       1.2077e+8 
           6530      1.18176e+8 
           6550      1.08771e+8 
           6570      9.50968e+7 
           6590      1.12286e+8 
           6610      1.14048e+8 
           6630      1.13421e+8 
           6650      1.12408e+8 
           6670      1.09855e+8 
           6690       1.0882e+8 
           6710      1.09076e+8 
           6730      1.07921e+8 
           6750      1.06803e+8 
           6770       1.0568e+8 
           6790      1.04429e+8 
           6810      1.03435e+8 
           6830      1.02313e+8 
           6850      1.01291e+8 
           6870      1.00239e+8 
           6890      9.91897e+7 
           6910      9.81587e+7 
           6930       9.7083e+7 
           6950      9.61429e+7 
           6970      9.51577e+7 
           6990      9.41667e+7 
           7010      9.31855e+7 
           7030      9.22368e+7 
           7050      9.12746e+7 
           7070      8.88898e+7 
           7090      8.94757e+7 
           7110      8.85557e+7 
           7130      8.76668e+7 
           7150       8.6757e+7 
           7170      8.59146e+7 
           7190      8.50657e+7 
           7210      8.42175e+7 
           7230      8.29162e+7 
           7250      8.25096e+7 
           7270      8.17283e+7 
           7290      8.02952e+7 
           7310      8.01172e+7 
           7330      7.93371e+7 
           7350      7.85572e+7 
           7370      7.77916e+7 
           7390      7.70331e+7 
           7410      7.62816e+7 
           7430      7.54893e+7 
           7450      7.47995e+7 
           7470      7.40417e+7 
           7490      7.33446e+7 
           7510      7.26472e+7 
           7530      7.19628e+7 
           7550       7.1278e+7 
           7570      7.06061e+7 
           7590      6.99271e+7 
           7610      6.92673e+7 
           7630      6.86134e+7 
           7650      6.79655e+7 
           7670      6.73233e+7 
           7690      6.66869e+7 
           7710      6.60625e+7 
           7730      6.54374e+7 
           7750      6.48367e+7 
           7770      6.38231e+7 
           7790      6.36324e+7 
           7810      6.30228e+7 
           7830      6.24616e+7 
           7850      6.18014e+7 
           7870      6.12444e+7 
           7890      6.05894e+7 
           7910      6.02292e+7 
           7930      5.96861e+7 
           7950      5.90268e+7 
           7970      5.85767e+7 
           7990      5.79032e+7 
           8010      5.75445e+7 
           8030      5.70181e+7 
           8050      5.64776e+7 
           8070      5.59949e+7 
           8090        5.543e+7 
           8110      5.49485e+7 
           8130      5.44716e+7 
           8150      5.39658e+7 
           8170      5.35252e+7 
           8190      5.29867e+7 
           8210       5.2403e+7 
           8230      5.19584e+7 
           8250      5.16299e+7 
           8270      5.10273e+7 
           8290      5.07326e+7 
           8310      5.03049e+7 
           8330      4.98649e+7 
           8350      4.92773e+7 
           8370      4.89463e+7 
           8390      4.86046e+7 
           8410      4.81825e+7 
           8430      4.77373e+7 
           8450      4.69576e+7 
           8470      4.69089e+7 
           8490      4.64085e+7 
           8510      4.60226e+7 
           8530      4.56072e+7 
           8550      4.49509e+7 
           8570      4.50522e+7 
