# Kurucz ODFNEW /NOVER (2003)
# teff = 25000 K (value for the effective temperature for the model. Temperatures are given in K)
# logg = 4.5 log(cm/s2) (value for Log(G) for the model.)
# meta = -2  (value for the Metallicity for the model.)
# lh = 1.25  (l/Hp where l is the  mixing length of the convective element and Hp is the pressure scale height)
# vtur = 2 km/s (Microturbulence velocity)
# alpha = 0  (Alpha)
#
# column 1: WAVELENGTH (ANGSTROM), Wavelength in Angstrom
# column 2: FLUX (ERG/CM2/S/A), Flux in erg/cm2/s/A
          147.2     5.27474e-14 
            151     2.57999e-13 
          155.2     1.36316e-12 
          158.8     5.29282e-12 
            162     1.67966e-11 
            166     6.68286e-11 
          170.3      2.7407e-10 
          173.4     7.25141e-10 
          176.8      2.02404e-9 
          180.2      5.42934e-9 
          181.7      8.28979e-9 
          186.1      2.75314e-8 
            191      9.79841e-8 
          193.9      2.01325e-7 
          198.4      5.89463e-7 
          201.8      1.28357e-6 
            205      2.60506e-6 
          210.5      8.34301e-6 
          216.2      2.60997e-5 
          219.8      5.19328e-5 
            223       9.3885e-5 
          226.8     0.000185398 
            230     0.000974369 
            234      0.00215259 
            240      0.00529253 
          246.5       0.0133326 
          252.4       0.0298263 
          256.8        0.051181 
            260       0.0785224 
            264        0.127652 
          268.5        0.216358 
          273.5        0.380526 
          278.5        0.656246 
            284         1.16714 
            290         2.12931 
            296         3.78178 
            301         5.98977 
            308         10.8888 
            318         25.6573 
            328          55.919 
            338         116.161 
            348         230.597 
            357         412.499 
            366         716.583 
            375         1206.39 
            385         2090.01 
            395         3508.58 
            405         5729.55 
            414         8717.29 
            422         12436.8 
            430         17471.4 
            441         27353.8 
            451         40219.5 
            460         55955.7 
            470         79481.6 
            480          110991 
            490          152702 
            500          206990 
            506      1.16421e+6 
            512       3.7395e+6 
            520      4.51393e+6 
            530      5.96397e+6 
            540      6.38425e+6 
            550      8.51259e+6 
            560      9.83725e+6 
            570      1.16034e+7 
            580      1.17028e+7 
            590      1.47824e+7 
            600      1.74415e+7 
            610      1.99937e+7 
            620      2.24822e+7 
            630      2.54608e+7 
            640      2.80459e+7 
            650      3.16836e+7 
            658      3.47934e+7 
            665      3.73761e+7 
            675       4.0664e+7 
            685      4.45556e+7 
            695      5.03146e+7 
            705      5.47034e+7 
            716      6.03767e+7 
            726      6.55865e+7 
            735      7.11373e+7 
            745      7.74331e+7 
            755      8.38219e+7 
            765       9.0258e+7 
            775        9.744e+7 
            785      1.04743e+8 
            795       1.1187e+8 
            805      1.19653e+8 
            815      1.27381e+8 
            825      1.36046e+8 
            835       1.4249e+8 
            845      1.52739e+8 
            855      1.61117e+8 
            865      1.71149e+8 
            875      1.81184e+8 
            885      1.91177e+8 
            895      2.01081e+8 
            905      2.09067e+8 
            915      2.96492e+8 
            925       1.6693e+9 
            935       4.9001e+9 
            945     1.59631e+10 
            955      2.4027e+10 
            965     3.25859e+10 
            975     1.21053e+10 
            985     3.82144e+10 
            995     3.69125e+10 
           1005     3.84516e+10 
           1015     3.34741e+10 
           1025      9.43343e+9 
           1035     2.94213e+10 
           1045     3.69269e+10 
           1055      3.6105e+10 
           1065     3.32645e+10 
           1075     3.40731e+10 
           1085     3.12693e+10 
           1095     3.29686e+10 
           1105     3.15323e+10 
           1115     3.09662e+10 
           1125     2.90558e+10 
           1135     2.96447e+10 
           1145     2.81068e+10 
           1155     2.83417e+10 
           1165     2.77479e+10 
           1175      2.4106e+10 
           1185     2.61326e+10 
           1195     2.43778e+10 
           1205     2.05426e+10 
           1215      6.55603e+9 
           1225     1.96603e+10 
           1235     2.29257e+10 
           1245     2.26591e+10 
           1255      2.2381e+10 
           1265     2.17806e+10 
           1275     2.16468e+10 
           1285     2.11626e+10 
           1295     1.96395e+10 
           1305     1.95956e+10 
           1315       1.978e+10 
           1325     1.90712e+10 
           1335     1.83312e+10 
           1345     1.84103e+10 
           1355     1.81796e+10 
           1365     1.76542e+10 
           1375     1.73133e+10 
           1385     1.69718e+10 
           1395     1.60969e+10 
           1405     1.59444e+10 
           1415     1.58553e+10 
           1425     1.55599e+10 
           1435     1.53054e+10 
           1442     1.51531e+10 
           1447     1.49817e+10 
           1455     1.47341e+10 
           1465     1.43988e+10 
           1475     1.41241e+10 
           1485     1.38364e+10 
           1495     1.35624e+10 
           1505     1.31596e+10 
           1512     1.29532e+10 
           1517     1.28763e+10 
           1525     1.26618e+10 
           1535     1.21671e+10 
           1545     1.20173e+10 
           1555      1.1691e+10 
           1565     1.16985e+10 
           1575     1.15539e+10 
           1585     1.13528e+10 
           1595     1.11652e+10 
           1605     1.08145e+10 
           1615     1.06092e+10 
           1625     1.05217e+10 
           1635     1.03711e+10 
           1645     1.00318e+10 
           1655     1.00145e+10 
           1665      9.87177e+9 
           1672      9.67932e+9 
           1677      9.70353e+9 
           1685      9.55137e+9 
           1695      9.35207e+9 
           1705      9.16001e+9 
           1715      8.95231e+9 
           1725      8.81805e+9 
           1735       8.7053e+9 
           1745      8.54383e+9 
           1755      8.43757e+9 
           1765      8.16386e+9 
           1775      8.09174e+9 
           1785      8.00062e+9 
           1795      7.89372e+9 
           1805      7.78591e+9 
           1815      7.61527e+9 
           1825      7.50976e+9 
           1835      7.38416e+9 
           1845      7.13988e+9 
           1855      6.95461e+9 
           1865      6.91391e+9 
           1875      6.89758e+9 
           1885      6.63799e+9 
           1895      6.44663e+9 
           1905      6.50588e+9 
           1915      6.30169e+9 
           1925      6.18891e+9 
           1935      6.17743e+9 
           1945      6.14823e+9 
           1955       5.9062e+9 
           1967      5.93357e+9 
           1976      5.91718e+9 
           1984      5.76303e+9 
           1995      5.59629e+9 
           2005       5.6226e+9 
           2015      5.57798e+9 
           2025      5.52155e+9 
           2035      5.39364e+9 
           2045      5.31436e+9 
           2055       5.1666e+9 
           2065      5.09759e+9 
           2074      5.12185e+9 
           2078       5.0088e+9 
           2085      5.00009e+9 
           2095      4.89574e+9 
           2105      4.88776e+9 
           2115      4.83896e+9 
           2125       4.7896e+9 
           2135      4.71599e+9 
           2145      4.63601e+9 
           2155      4.58587e+9 
           2165        4.526e+9 
           2175      4.45892e+9 
           2185      4.40123e+9 
           2195       4.3455e+9 
           2205      4.28495e+9 
           2215      4.22745e+9 
           2225      4.16724e+9 
           2235      4.10922e+9 
           2245      4.05924e+9 
           2255      4.00102e+9 
           2265      3.95196e+9 
           2275      3.89939e+9 
           2285       3.8496e+9 
           2295      3.76341e+9 
           2305      3.74707e+9 
           2315      3.69579e+9 
           2325      3.64859e+9 
           2335      3.59709e+9 
           2345      3.55243e+9 
           2355       3.5101e+9 
           2365      3.46391e+9 
           2375      3.41924e+9 
           2385      3.37381e+9 
           2395      3.33177e+9 
           2405      3.29038e+9 
           2415      3.24762e+9 
           2425      3.21038e+9 
           2435      3.16831e+9 
           2445      3.12953e+9 
           2455      3.09233e+9 
           2465      3.05297e+9 
           2475      3.01543e+9 
           2485      2.97798e+9 
           2495      2.90537e+9 
           2505      2.90426e+9 
           2513      2.86175e+9 
           2518      2.85908e+9 
           2525      2.83474e+9 
           2535      2.80005e+9 
           2545      2.76081e+9 
           2555       2.7333e+9 
           2565      2.70098e+9 
           2575      2.67032e+9 
           2585      2.63871e+9 
           2595      2.60733e+9 
           2605      2.59579e+9 
           2615      2.56584e+9 
           2625      2.53561e+9 
           2635       2.5024e+9 
           2645      2.47318e+9 
           2655       2.4408e+9 
           2665      2.40633e+9 
           2675      2.37548e+9 
           2685      2.36534e+9 
           2695      2.31717e+9 
           2705      2.31088e+9 
           2715      2.28448e+9 
           2725      2.23786e+9 
           2735      2.23276e+9 
           2745      2.20492e+9 
           2755       2.1812e+9 
           2765      2.13732e+9 
           2775      2.13451e+9 
           2785      2.11032e+9 
           2795      2.07181e+9 
           2805      2.05893e+9 
           2815      2.04119e+9 
           2825      1.99382e+9 
           2835      1.97767e+9 
           2845      1.97454e+9 
           2855      1.95292e+9 
           2865      1.93179e+9 
           2875      1.91081e+9 
           2885      1.89025e+9 
           2895      1.86975e+9 
           2910      1.83954e+9 
           2930       1.8002e+9 
           2950      1.74744e+9 
           2970      1.72535e+9 
           2990      1.68894e+9 
           3010      1.65381e+9 
           3030      1.62011e+9 
           3050      1.58686e+9 
           3070      1.55446e+9 
           3090      1.52209e+9 
           3110      1.49206e+9 
           3130      1.46367e+9 
           3150      1.43455e+9 
           3170      1.40552e+9 
           3190      1.36463e+9 
           3210       1.3502e+9 
           3230      1.32349e+9 
           3250      1.29755e+9 
           3270      1.27416e+9 
           3290      1.24764e+9 
           3310      1.22584e+9 
           3330      1.20253e+9 
           3350      1.17734e+9 
           3370      1.15756e+9 
           3390      1.13588e+9 
           3410      1.11476e+9 
           3430       1.0886e+9 
           3450      1.06427e+9 
           3470      1.04816e+9 
           3490      1.02898e+9 
           3510      1.01273e+9 
           3530       9.9681e+8 
           3550      9.79242e+8 
           3570      9.67947e+8 
           3590      9.43599e+8 
           3610      9.30051e+8 
           3630      9.10739e+8 
           3640       9.0995e+8 
           3650      8.93462e+8 
           3670      8.82044e+8 
           3690       8.6537e+8 
           3710      8.35264e+8 
           3730      7.99821e+8 
           3750      8.19629e+8 
           3770      8.14137e+8 
           3790      8.62165e+8 
           3810      9.03355e+8 
           3830      7.80456e+8 
           3850      9.35438e+8 
           3870      9.52407e+8 
           3890      7.35255e+8 
           3910      9.37998e+8 
           3930      9.31573e+8 
           3950      9.08787e+8 
           3970      6.83883e+8 
           3990       8.6917e+8 
           4010       8.7083e+8 
           4030      8.12452e+8 
           4050      8.53024e+8 
           4070      8.33336e+8 
           4090      7.50909e+8 
           4110      6.48322e+8 
           4130      7.78951e+8 
           4150      7.74567e+8 
           4170      7.69842e+8 
           4190      7.59399e+8 
           4210      7.46887e+8 
           4230      7.34345e+8 
           4250      7.21965e+8 
           4270      7.08502e+8 
           4290      6.96241e+8 
           4310      6.79574e+8 
           4330      6.01697e+8 
           4350      5.45966e+8 
           4370      6.44411e+8 
           4390      6.19298e+8 
           4410      6.31921e+8 
           4430      6.19509e+8 
           4450      6.12622e+8 
           4470      5.69745e+8 
           4490      5.92524e+8 
           4510      5.84428e+8 
           4530      5.75222e+8 
           4550      5.66154e+8 
           4570      5.57295e+8 
           4590      5.48712e+8 
           4610      5.40256e+8 
           4630      5.31926e+8 
           4650      5.23335e+8 
           4670      5.15788e+8 
           4690      5.07836e+8 
           4710       4.9302e+8 
           4730      4.92581e+8 
           4750      4.85002e+8 
           4770      4.78162e+8 
           4790      4.70943e+8 
           4810      4.62442e+8 
           4830      4.52097e+8 
           4850      4.09057e+8 
           4870      3.62959e+8 
           4890       4.3001e+8 
           4910      4.28358e+8 
           4930      4.11234e+8 
           4950      4.18434e+8 
           4970      4.12511e+8 
           4990      4.06579e+8 
           5010      3.94979e+8 
           5030      3.95016e+8 
           5050      3.86679e+8 
           5070      3.83927e+8 
           5090      3.78517e+8 
           5110      3.73193e+8 
           5130      3.67941e+8 
           5150      3.62802e+8 
           5170      3.57788e+8 
           5190       3.5284e+8 
           5210      3.47943e+8 
           5230       3.4318e+8 
           5250      3.38479e+8 
           5270      3.33853e+8 
           5290      3.29314e+8 
           5310      3.24847e+8 
           5330      3.20464e+8 
           5350      3.16138e+8 
           5370      3.11906e+8 
           5390      3.07742e+8 
           5410       3.0363e+8 
           5430      2.99596e+8 
           5450      2.95625e+8 
           5470       2.9173e+8 
           5490      2.87896e+8 
           5510      2.84122e+8 
           5530      2.80408e+8 
           5550      2.76764e+8 
           5570      2.73165e+8 
           5590      2.69634e+8 
           5610      2.66159e+8 
           5630      2.62738e+8 
           5650      2.59359e+8 
           5670      2.56032e+8 
           5690      2.52758e+8 
           5710      2.49592e+8 
           5730      2.46442e+8 
           5750      2.43329e+8 
           5770      2.40287e+8 
           5790      2.37281e+8 
           5810      2.34311e+8 
           5830      2.31398e+8 
           5850      2.28531e+8 
           5870      2.17738e+8 
           5890      2.22408e+8 
           5910      2.20182e+8 
           5930      2.17489e+8 
           5950      2.14827e+8 
           5970      2.12227e+8 
           5990      2.09647e+8 
           6010      2.07117e+8 
           6030      2.04616e+8 
           6050      2.02164e+8 
           6070       1.9974e+8 
           6090      1.97354e+8 
           6110      1.95004e+8 
           6130      1.92691e+8 
           6150      1.90404e+8 
           6170      1.88162e+8 
           6190      1.85955e+8 
           6210      1.83773e+8 
           6230      1.81624e+8 
           6250      1.79509e+8 
           6270      1.77426e+8 
           6290      1.75367e+8 
           6310      1.73339e+8 
           6330      1.71343e+8 
           6350      1.69368e+8 
           6370      1.67434e+8 
           6390      1.65529e+8 
           6410      1.63636e+8 
           6430      1.61781e+8 
           6450      1.59955e+8 
           6470      1.58131e+8 
           6490      1.56353e+8 
           6510      1.54283e+8 
           6530      1.51758e+8 
           6550      1.43456e+8 
           6570      1.26578e+8 
           6590      1.45493e+8 
           6610      1.45649e+8 
           6630      1.44532e+8 
           6650      1.43093e+8 
           6670      1.39789e+8 
           6690      1.38298e+8 
           6710      1.38453e+8 
           6730      1.36941e+8 
           6750      1.35461e+8 
           6770      1.33996e+8 
           6790       1.3253e+8 
           6810      1.31119e+8 
           6830      1.29714e+8 
           6850      1.28324e+8 
           6870      1.26955e+8 
           6890        1.256e+8 
           6910      1.24266e+8 
           6930      1.22954e+8 
           6950      1.21655e+8 
           6970      1.20376e+8 
           6990       1.1911e+8 
           7010      1.17864e+8 
           7030       1.1663e+8 
           7050      1.15416e+8 
           7070      1.12194e+8 
           7090      1.13031e+8 
           7110      1.11866e+8 
           7130      1.10714e+8 
           7150      1.09572e+8 
           7170      1.08427e+8 
           7190      1.07336e+8 
           7210      1.06241e+8 
           7230      1.05049e+8 
           7250      1.04097e+8 
           7270      1.03041e+8 
           7290       1.0108e+8 
           7310      1.00957e+8 
           7330      9.99584e+7 
           7350      9.89619e+7 
           7370      9.79677e+7 
           7390      9.69898e+7 
           7410      9.60278e+7 
           7430      9.50748e+7 
           7450       9.4151e+7 
           7470      9.32221e+7 
           7490      9.23019e+7 
           7510      9.13567e+7 
           7530         9.05e+7 
           7550       8.9618e+7 
           7570      8.87441e+7 
           7590      8.78781e+7 
           7610      8.70265e+7 
           7630      8.61826e+7 
           7650      8.53527e+7 
           7670      8.45304e+7 
           7690      8.37154e+7 
           7710       8.2914e+7 
           7730      8.21262e+7 
           7750      8.13391e+7 
           7770      8.05589e+7 
           7790      7.98044e+7 
           7810      7.89947e+7 
           7830      7.82967e+7 
           7850      7.76476e+7 
           7870      7.69189e+7 
           7890      7.61422e+7 
           7910      7.54867e+7 
           7930      7.47829e+7 
           7950      7.40137e+7 
           7970      7.31979e+7 
           7990      7.25368e+7 
           8010      7.18462e+7 
           8030      7.11733e+7 
           8050      7.05236e+7 
           8070       6.9891e+7 
           8090       6.9166e+7 
           8110      6.86248e+7 
           8130      6.80425e+7 
           8150      6.73573e+7 
           8170      6.68473e+7 
           8190      6.61505e+7 
           8210      6.53815e+7 
           8230      6.49807e+7 
           8250      6.44169e+7 
           8270      6.35108e+7 
           8290      6.32267e+7 
           8310      6.26936e+7 
           8330      6.20997e+7 
           8350       6.1219e+7 
           8370      6.09053e+7 
           8390      6.04654e+7 
           8410      5.99278e+7 
           8430       5.9347e+7 
           8450       5.8391e+7 
           8470      5.82784e+7 
           8490      5.76278e+7 
           8510       5.7144e+7 
           8530      5.66123e+7 
           8550      5.56932e+7 
           8570      5.61568e+7 
           8590      5.40576e+7 
