# Kurucz ODFNEW /NOVER (2003)
# teff = 24000 K (value for the effective temperature for the model. Temperatures are given in K)
# logg = 3 log(cm/s2) (value for Log(G) for the model.)
# meta = 0.5  (value for the Metallicity for the model.)
# lh = 1.25  (l/Hp where l is the  mixing length of the convective element and Hp is the pressure scale height)
# vtur = 2 km/s (Microturbulence velocity)
# alpha = 0  (Alpha)
#
# column 1: WAVELENGTH (ANGSTROM), Wavelength in Angstrom
# column 2: FLUX (ERG/CM2/S/A), Flux in erg/cm2/s/A
          147.2     1.80855e-15 
            151     8.20805e-15 
          155.2     4.02692e-14 
          158.8     1.47848e-13 
            162     4.49207e-13 
            166     1.70264e-12 
          170.3      6.6614e-12 
          173.4     1.72242e-11 
          176.8     4.68829e-11 
          180.2      1.2314e-10 
          181.7     1.86397e-10 
          186.1     6.07987e-10 
            191      2.13794e-9 
          193.9      4.37209e-9 
          198.4      1.27559e-8 
          201.8      2.77945e-8 
            205      5.65529e-8 
          210.5      1.82999e-7 
          216.2      5.81369e-7 
          219.8      1.17124e-6 
            223       2.1433e-6 
          226.8      4.35524e-6 
            230     0.000153996 
            234      0.00036202 
            240     0.000885314 
          246.5      0.00227251 
          252.4      0.00515588 
          256.8      0.00890549 
            260       0.0152754 
            264       0.0252948 
          268.5       0.0441568 
          273.5       0.0791461 
          278.5        0.137695 
            284        0.280053 
            290        0.516536 
            296        0.932407 
            301         1.47779 
            308         3.00557 
            318         7.64419 
            328         16.6468 
            338         37.2264 
            348         76.6997 
            357          637.77 
            366         1720.45 
            375         2563.64 
            385         4545.41 
            395         13825.2 
            405         20795.5 
            414           34179 
            422         53728.4 
            430         81050.8 
            441          122992 
            451          156862 
            460          203017 
            470          300224 
            480          419259 
            490          567024 
            500          721693 
            506      2.76048e+6 
            512       3.8503e+7 
            520      4.09247e+7 
            530      4.10124e+7 
            540      4.19984e+7 
            550      7.57618e+7 
            560      9.83076e+7 
            570       1.1304e+8 
            580      1.00145e+8 
            590      1.33765e+8 
            600      1.29396e+8 
            610      1.73087e+8 
            620      2.00948e+8 
            630      2.08592e+8 
            640      1.74955e+8 
            650        1.163e+8 
            658      1.82437e+8 
            665      2.39357e+8 
            675      2.52782e+8 
            685      2.07174e+8 
            695      3.53717e+8 
            705      2.97973e+8 
            716      3.97896e+8 
            726      3.74188e+8 
            735       4.1294e+8 
            745      4.64313e+8 
            755      4.86317e+8 
            765      5.13565e+8 
            775      5.67667e+8 
            785      6.12757e+8 
            795      6.18599e+8 
            805      6.18557e+8 
            815      6.17536e+8 
            825      7.02232e+8 
            835      4.66043e+8 
            845      6.75662e+8 
            855      6.64072e+8 
            865      7.12801e+8 
            875      7.62291e+8 
            885      8.27076e+8 
            895      8.60619e+8 
            905      8.18982e+8 
            915      1.71238e+9 
            925     1.04245e+10 
            935     1.56608e+10 
            945     1.75657e+10 
            955     1.79375e+10 
            965     1.51679e+10 
            975      2.64393e+9 
            985      7.94987e+9 
            995     1.23225e+10 
           1005     1.68744e+10 
           1015     1.81698e+10 
           1025     1.61915e+10 
           1035     1.47593e+10 
           1045     2.21934e+10 
           1055     2.00837e+10 
           1065     1.56564e+10 
           1075     1.83588e+10 
           1085      1.6628e+10 
           1095     1.88515e+10 
           1105     1.70984e+10 
           1115      1.6087e+10 
           1125     1.09778e+10 
           1135     1.71794e+10 
           1145      1.6468e+10 
           1155      1.6327e+10 
           1165     1.54864e+10 
           1175      6.74259e+9 
           1185     1.41189e+10 
           1195      1.4145e+10 
           1205      9.12956e+9 
           1215     1.18302e+10 
           1225     1.41586e+10 
           1235     1.57983e+10 
           1245     1.46086e+10 
           1255     1.48785e+10 
           1265     1.54753e+10 
           1275      1.6245e+10 
           1285     1.62421e+10 
           1295      1.1157e+10 
           1305     1.27383e+10 
           1315     1.61994e+10 
           1325     1.51424e+10 
           1335     1.45365e+10 
           1345      1.4988e+10 
           1355     1.46385e+10 
           1365     1.35258e+10 
           1375     1.28111e+10 
           1385     1.15659e+10 
           1395      5.98829e+9 
           1405      7.50205e+9 
           1415       1.065e+10 
           1425     1.05754e+10 
           1435     1.13605e+10 
           1442     1.15954e+10 
           1447     1.14172e+10 
           1455     1.08684e+10 
           1465       9.8387e+9 
           1475     1.04979e+10 
           1485     1.04647e+10 
           1495     1.01743e+10 
           1505       9.1758e+9 
           1512      8.15916e+9 
           1517      8.53256e+9 
           1525      8.70165e+9 
           1535      7.01759e+9 
           1545      6.35793e+9 
           1555      6.32036e+9 
           1565      7.29517e+9 
           1575      8.02292e+9 
           1585      8.23332e+9 
           1595      8.01934e+9 
           1605      8.15357e+9 
           1615        7.905e+9 
           1625      7.86179e+9 
           1635      8.52988e+9 
           1645       8.7041e+9 
           1655      8.50432e+9 
           1665      8.67957e+9 
           1672      7.97583e+9 
           1677      9.49912e+9 
           1685      8.95096e+9 
           1695       8.3264e+9 
           1705      8.34616e+9 
           1715      7.62892e+9 
           1725      7.60922e+9 
           1735      7.99908e+9 
           1745      7.84098e+9 
           1755      7.88716e+9 
           1765      7.99903e+9 
           1775      7.27649e+9 
           1785       7.5603e+9 
           1795      7.74172e+9 
           1805      7.88119e+9 
           1815      6.86872e+9 
           1825      7.23026e+9 
           1835      7.09931e+9 
           1845       6.3986e+9 
           1855      6.65561e+9 
           1865      6.72849e+9 
           1875      7.01621e+9 
           1885       6.1718e+9 
           1895      5.74396e+9 
           1905      6.39927e+9 
           1915       5.9106e+9 
           1925      5.53216e+9 
           1935      6.07832e+9 
           1945      6.20768e+9 
           1955      5.43307e+9 
           1967      6.11331e+9 
           1976       6.3665e+9 
           1984      5.95818e+9 
           1995      5.84069e+9 
           2005      6.23024e+9 
           2015      6.15779e+9 
           2025      6.33195e+9 
           2035       5.6782e+9 
           2045      5.86215e+9 
           2055      5.42013e+9 
           2065      5.34364e+9 
           2074      5.88293e+9 
           2078      5.15362e+9 
           2085      5.70628e+9 
           2095      5.33573e+9 
           2105      5.56606e+9 
           2115      5.67323e+9 
           2125      5.69071e+9 
           2135      5.63686e+9 
           2145      5.26452e+9 
           2155      5.57052e+9 
           2165      5.57335e+9 
           2175       5.5305e+9 
           2185      5.29077e+9 
           2195      5.43753e+9 
           2205      5.46952e+9 
           2215      5.36773e+9 
           2225      5.21655e+9 
           2235      5.10451e+9 
           2245      5.17993e+9 
           2255      5.01703e+9 
           2265      5.09091e+9 
           2275      5.02325e+9 
           2285      5.01625e+9 
           2295      4.12476e+9 
           2305      4.79486e+9 
           2315      4.66615e+9 
           2325      4.64129e+9 
           2335      4.50481e+9 
           2345      4.58397e+9 
           2355      4.52943e+9 
           2365      4.50373e+9 
           2375      4.38734e+9 
           2385      4.34566e+9 
           2395      4.28863e+9 
           2405      4.23728e+9 
           2415      4.20575e+9 
           2425      4.19195e+9 
           2435      4.07506e+9 
           2445      4.10172e+9 
           2455      4.10244e+9 
           2465      4.00815e+9 
           2475      3.91094e+9 
           2485      3.67113e+9 
           2495        2.451e+9 
           2505      3.40862e+9 
           2513      3.50901e+9 
           2518      3.67346e+9 
           2525      3.68863e+9 
           2535      3.68327e+9 
           2545      3.51764e+9 
           2555      3.58573e+9 
           2565      3.53612e+9 
           2575      3.55206e+9 
           2585      3.48556e+9 
           2595      3.46199e+9 
           2605      3.44157e+9 
           2615      3.36098e+9 
           2625      3.35538e+9 
           2635      3.33799e+9 
           2645       3.2821e+9 
           2655      3.27437e+9 
           2665      3.09898e+9 
           2675      3.12182e+9 
           2685      3.13383e+9 
           2695      3.00776e+9 
           2705      2.90751e+9 
           2715      2.93769e+9 
           2725      2.97208e+9 
           2735      2.93427e+9 
           2745      2.88658e+9 
           2755      2.87356e+9 
           2765        2.843e+9 
           2775      2.86702e+9 
           2785       2.8098e+9 
           2795      2.70167e+9 
           2805      2.73827e+9 
           2815      2.74443e+9 
           2825      2.72673e+9 
           2835      2.60971e+9 
           2845       2.6377e+9 
           2855      2.57581e+9 
           2865       2.5865e+9 
           2875       2.5597e+9 
           2885      2.53397e+9 
           2895      2.48418e+9 
           2910      2.42847e+9 
           2930      2.42277e+9 
           2950      2.34743e+9 
           2970      2.30939e+9 
           2990       2.2561e+9 
           3010      2.14879e+9 
           3030      2.15355e+9 
           3050      2.13427e+9 
           3070      2.11023e+9 
           3090      2.00851e+9 
           3110      2.02186e+9 
           3130      1.96338e+9 
           3150      1.94122e+9 
           3170      1.88423e+9 
           3190      1.86034e+9 
           3210      1.82765e+9 
           3230      1.77606e+9 
           3250      1.76151e+9 
           3270      1.71152e+9 
           3290      1.68204e+9 
           3310       1.6496e+9 
           3330      1.61021e+9 
           3350      1.58517e+9 
           3370      1.55095e+9 
           3390      1.53579e+9 
           3410      1.50827e+9 
           3430      1.48144e+9 
           3450      1.44862e+9 
           3470      1.42252e+9 
           3490      1.39318e+9 
           3510      1.36762e+9 
           3530      1.35513e+9 
           3550      1.32741e+9 
           3570      1.30356e+9 
           3590      1.26631e+9 
           3610      1.24289e+9 
           3630      1.22926e+9 
           3640      1.22468e+9 
           3650       1.1992e+9 
           3670      1.18513e+9 
           3690      1.15218e+9 
           3710       1.1244e+9 
           3730      1.11081e+9 
           3750      1.16039e+9 
           3770      1.13942e+9 
           3790       1.1451e+9 
           3810      1.16589e+9 
           3830      1.07398e+9 
           3850      1.13795e+9 
           3870      1.09541e+9 
           3890      1.03002e+9 
           3910      1.09376e+9 
           3930      1.05214e+9 
           3950      1.04033e+9 
           3970      9.51737e+8 
           3990      1.01534e+9 
           4010      1.00119e+9 
           4030      9.70349e+8 
           4050      9.63316e+8 
           4070      9.19689e+8 
           4090      8.88759e+8 
           4110      8.42641e+8 
           4130      8.83266e+8 
           4150      8.76327e+8 
           4170      8.71992e+8 
           4190      8.61928e+8 
           4210      8.53545e+8 
           4230      8.34882e+8 
           4250      8.11295e+8 
           4270      7.91626e+8 
           4290       7.7806e+8 
           4310      7.54002e+8 
           4330      7.30054e+8 
           4350       6.9184e+8 
           4370      7.20992e+8 
           4390      7.26752e+8 
           4410      7.12156e+8 
           4430      7.07794e+8 
           4450       6.9475e+8 
           4470      6.81099e+8 
           4490       6.7882e+8 
           4510      6.68052e+8 
           4530      6.60423e+8 
           4550      6.51572e+8 
           4570      6.41426e+8 
           4590      6.30252e+8 
           4610      6.14957e+8 
           4630      6.06633e+8 
           4650       5.8003e+8 
           4670      5.88719e+8 
           4690      5.85507e+8 
           4710      5.66127e+8 
           4730      5.68237e+8 
           4750      5.58703e+8 
           4770      5.59922e+8 
           4790      5.50101e+8 
           4810      5.39315e+8 
           4830      5.31015e+8 
           4850      5.19646e+8 
           4870      4.81362e+8 
           4890      5.10045e+8 
           4910      5.02991e+8 
           4930      4.90905e+8 
           4950      4.85501e+8 
           4970       4.8453e+8 
           4990      4.76508e+8 
           5010      4.56486e+8 
           5030       4.6141e+8 
           5050      4.53257e+8 
           5070      4.50377e+8 
           5090      4.43049e+8 
           5110      4.35866e+8 
           5130      4.25703e+8 
           5150      4.22346e+8 
           5170      4.18887e+8 
           5190      4.13973e+8 
           5210      4.08164e+8 
           5230      4.02211e+8 
           5250      3.96787e+8 
           5270      3.90119e+8 
           5290      3.86677e+8 
           5310       3.8091e+8 
           5330      3.76757e+8 
           5350      3.71576e+8 
           5370      3.66959e+8 
           5390      3.61349e+8 
           5410      3.57292e+8 
           5430      3.52633e+8 
           5450      3.47741e+8 
           5470      3.43201e+8 
           5490      3.38568e+8 
           5510      3.35296e+8 
           5530      3.29684e+8 
           5550      3.27006e+8 
           5570      3.22234e+8 
           5590      3.18401e+8 
           5610      3.14495e+8 
           5630      3.10755e+8 
           5650      3.05514e+8 
           5670      2.99812e+8 
           5690      2.93763e+8 
           5710      2.92576e+8 
           5730      2.89516e+8 
           5750      2.84577e+8 
           5770      2.83343e+8 
           5790      2.79287e+8 
           5810      2.76006e+8 
           5830      2.71622e+8 
           5850      2.69284e+8 
           5870      2.61416e+8 
           5890      2.60687e+8 
           5910      2.58742e+8 
           5930      2.54943e+8 
           5950       2.5188e+8 
           5970      2.51432e+8 
           5990      2.46228e+8 
           6010      2.44696e+8 
           6030      2.40827e+8 
           6050      2.38301e+8 
           6070      2.36365e+8 
           6090      2.33749e+8 
           6110      2.30849e+8 
           6130      2.28422e+8 
           6150       2.2423e+8 
           6170      2.21927e+8 
           6190      2.20102e+8 
           6210      2.18023e+8 
           6230      2.15616e+8 
           6250      2.12405e+8 
           6270      2.10267e+8 
           6290      2.08151e+8 
           6310      2.05386e+8 
           6330      2.03564e+8 
           6350      2.00648e+8 
           6370         1.99e+8 
           6390      1.96566e+8 
           6410      1.94397e+8 
           6430      1.92397e+8 
           6450      1.90128e+8 
           6470       1.8711e+8 
           6490      1.85055e+8 
           6510      1.83422e+8 
           6530      1.81169e+8 
           6550       1.7837e+8 
           6570      1.62946e+8 
           6590       1.7412e+8 
           6610      1.73387e+8 
           6630      1.71854e+8 
           6650      1.69715e+8 
           6670      1.66996e+8 
           6690      1.65292e+8 
           6710      1.64518e+8 
           6730      1.62002e+8 
           6750      1.61052e+8 
           6770      1.59411e+8 
           6790      1.56104e+8 
           6810      1.55684e+8 
           6830      1.53966e+8 
           6850      1.52619e+8 
           6870      1.50949e+8 
           6890      1.49027e+8 
           6910      1.47116e+8 
           6930      1.46338e+8 
           6950      1.44819e+8 
           6970      1.43314e+8 
           6990       1.4174e+8 
           7010      1.40234e+8 
           7030      1.38653e+8 
           7050      1.37314e+8 
           7070      1.34066e+8 
           7090       1.3457e+8 
           7110      1.31317e+8 
           7130      1.30211e+8 
           7150      1.30449e+8 
           7170      1.29106e+8 
           7190      1.27857e+8 
           7210      1.26547e+8 
           7230      1.23167e+8 
           7250      1.23556e+8 
           7270      1.22692e+8 
           7290      1.20645e+8 
           7310      1.20204e+8 
           7330      1.18897e+8 
           7350      1.17832e+8 
           7370      1.16701e+8 
           7390      1.15539e+8 
           7410      1.14388e+8 
           7430      1.13227e+8 
           7450      1.12097e+8 
           7470      1.10161e+8 
           7490      1.09715e+8 
           7510      1.08764e+8 
           7530      1.07556e+8 
           7550      1.06729e+8 
           7570      1.05679e+8 
           7590       1.0458e+8 
           7610      1.03355e+8 
           7630      1.02555e+8 
           7650      1.01581e+8 
           7670      1.00655e+8 
           7690       9.9629e+7 
           7710      9.86312e+7 
           7730      9.76234e+7 
           7750      9.68567e+7 
           7770      9.56661e+7 
           7790      9.50513e+7 
           7810      9.41019e+7 
           7830      9.32593e+7 
           7850      9.23812e+7 
           7870      9.12614e+7 
           7890      9.02184e+7 
           7910       8.9564e+7 
           7930      8.86276e+7 
           7950      8.79557e+7 
           7970      8.71471e+7 
           7990       8.6375e+7 
           8010      8.54803e+7 
           8030      8.47337e+7 
           8050       8.4069e+7 
           8070      8.33116e+7 
           8090      8.24857e+7 
           8110      8.11343e+7 
           8130      8.10776e+7 
           8150      8.02491e+7 
           8170      7.96591e+7 
           8190      7.83888e+7 
           8210       7.7672e+7 
           8230      7.66664e+7 
           8250      7.66106e+7 
           8270      7.50287e+7 
           8290      7.51057e+7 
           8310      7.45318e+7 
           8330      7.38866e+7 
           8350      7.29495e+7 
           8370      7.23002e+7 
           8390      7.18596e+7 
           8410      7.10708e+7 
           8430      7.05431e+7 
           8450        6.955e+7 
           8470      6.89227e+7 
           8490       6.8938e+7 
           8510      6.72411e+7 
           8530      6.80186e+7 
           8550      6.54848e+7 
           8570      6.74262e+7 
           8590      6.49682e+7 
