# Kurucz ODFNEW /NOVER (2003)
# teff = 25000 K (value for the effective temperature for the model. Temperatures are given in K)
# logg = 5 log(cm/s2) (value for Log(G) for the model.)
# meta = -1.5  (value for the Metallicity for the model.)
# lh = 1.25  (l/Hp where l is the  mixing length of the convective element and Hp is the pressure scale height)
# vtur = 2 km/s (Microturbulence velocity)
# alpha = 0  (Alpha)
#
# column 1: WAVELENGTH (ANGSTROM), Wavelength in Angstrom
# column 2: FLUX (ERG/CM2/S/A), Flux in erg/cm2/s/A
          147.2     5.10365e-14 
            151     2.35892e-13 
          155.2     1.17995e-12 
          158.8     4.39916e-12 
            162     1.35362e-11 
            166     5.20498e-11 
          170.3     2.06887e-10 
          173.4     5.37049e-10 
          176.8      1.47265e-9 
          180.2      3.89247e-9 
          181.7      5.90936e-9 
          186.1       1.9359e-8 
            191       6.8081e-8 
          193.9       1.3909e-7 
          198.4      4.04498e-7 
          201.8       8.7776e-7 
            205      1.77711e-6 
          210.5      5.67786e-6 
          216.2      1.77619e-5 
          219.8      3.53749e-5 
            223       6.4015e-5 
          226.8     0.000126609 
            230     0.000896744 
            234      0.00199779 
            240      0.00490383 
          246.5       0.0123177 
          252.4       0.0275064 
          256.8       0.0473564 
            260       0.0722864 
            264        0.117404 
          268.5        0.198753 
          273.5        0.349094 
          278.5        0.601409 
            284         1.06864 
            290         1.94703 
            296         3.45332 
            301         5.46834 
            308         9.94721 
            318         23.3439 
            328          50.761 
            338         105.391 
            348         208.977 
            357         373.717 
            366         649.369 
            375         1091.62 
            385         1890.55 
            395         3171.02 
            405         5175.79 
            414         7875.02 
            422         11224.8 
            430         15752.3 
            441         24676.7 
            451         36296.6 
            460         50482.8 
            470         71730.4 
            480          100162 
            490          137851 
            500          186918 
            506          983081 
            512      3.43555e+6 
            520      4.21062e+6 
            530      5.60534e+6 
            540      6.03323e+6 
            550      8.08879e+6 
            560      9.33667e+6 
            570      1.10898e+7 
            580      1.12291e+7 
            590       1.4211e+7 
            600      1.67142e+7 
            610      1.92485e+7 
            620      2.16188e+7 
            630      2.45458e+7 
            640      2.68622e+7 
            650      3.03871e+7 
            658      3.35056e+7 
            665       3.6065e+7 
            675      3.91633e+7 
            685      4.29033e+7 
            695      4.87438e+7 
            705      5.29828e+7 
            716      5.85616e+7 
            726      6.35595e+7 
            735      6.89239e+7 
            745      7.52203e+7 
            755       8.1522e+7 
            765      8.77925e+7 
            775      9.49374e+7 
            785      1.02163e+8 
            795      1.08979e+8 
            805       1.1659e+8 
            815       1.2412e+8 
            825      1.32802e+8 
            835      1.38907e+8 
            845      1.48887e+8 
            855      1.57025e+8 
            865       1.6705e+8 
            875      1.77066e+8 
            885      1.87151e+8 
            895      1.96886e+8 
            905      2.04187e+8 
            915      2.64693e+8 
            925      1.08621e+9 
            935      2.84388e+9 
            945     1.02258e+10 
            955     1.86951e+10 
            965     2.63898e+10 
            975      8.28299e+9 
            985     3.56536e+10 
            995     3.58078e+10 
           1005     3.74519e+10 
           1015     2.99186e+10 
           1025      6.05134e+9 
           1035     2.49757e+10 
           1045     3.66406e+10 
           1055     3.61625e+10 
           1065     3.27653e+10 
           1075      3.4272e+10 
           1085     3.12014e+10 
           1095     3.32294e+10 
           1105     3.14552e+10 
           1115     3.09965e+10 
           1125     2.87271e+10 
           1135      2.9671e+10 
           1145     2.76197e+10 
           1155     2.82107e+10 
           1165     2.76671e+10 
           1175     2.32735e+10 
           1185     2.59478e+10 
           1195      2.3513e+10 
           1205     1.79086e+10 
           1215      4.68849e+9 
           1225     1.69058e+10 
           1235     2.21563e+10 
           1245     2.23404e+10 
           1255     2.20205e+10 
           1265     2.15701e+10 
           1275     2.15372e+10 
           1285     2.10545e+10 
           1295     1.91395e+10 
           1305     1.90331e+10 
           1315     1.96499e+10 
           1325     1.88808e+10 
           1335     1.80473e+10 
           1345     1.81594e+10 
           1355     1.80169e+10 
           1365     1.73493e+10 
           1375     1.70538e+10 
           1385      1.6746e+10 
           1395      1.5659e+10 
           1405     1.56228e+10 
           1415     1.56039e+10 
           1425     1.53124e+10 
           1435      1.5069e+10 
           1442     1.49785e+10 
           1447     1.47838e+10 
           1455     1.45264e+10 
           1465     1.41368e+10 
           1475     1.38863e+10 
           1485     1.35686e+10 
           1495     1.33172e+10 
           1505     1.28178e+10 
           1512     1.25244e+10 
           1517     1.25119e+10 
           1525     1.23183e+10 
           1535     1.17194e+10 
           1545     1.16561e+10 
           1555     1.12636e+10 
           1565     1.13504e+10 
           1575     1.12661e+10 
           1585     1.10629e+10 
           1595     1.09043e+10 
           1605     1.05495e+10 
           1615     1.03498e+10 
           1625     1.02813e+10 
           1635     1.01824e+10 
           1645      9.87896e+9 
           1655      9.80368e+9 
           1665      9.70557e+9 
           1672      9.45791e+9 
           1677      9.55203e+9 
           1685      9.39546e+9 
           1695      9.17334e+9 
           1705       8.9581e+9 
           1715      8.73136e+9 
           1725      8.59358e+9 
           1735       8.5137e+9 
           1745       8.3465e+9 
           1755      8.27379e+9 
           1765      7.94642e+9 
           1775      7.89576e+9 
           1785      7.81818e+9 
           1795      7.74335e+9 
           1805      7.64739e+9 
           1815       7.4411e+9 
           1825      7.36102e+9 
           1835      7.22731e+9 
           1845      6.91909e+9 
           1855      6.75732e+9 
           1865      6.74289e+9 
           1875      6.75303e+9 
           1885      6.43092e+9 
           1895      6.21017e+9 
           1905      6.32505e+9 
           1915      6.10784e+9 
           1925      5.98182e+9 
           1935      6.00517e+9 
           1945      6.00443e+9 
           1955      5.72118e+9 
           1967       5.7882e+9 
           1976      5.81201e+9 
           1984      5.61832e+9 
           1995      5.45355e+9 
           2005      5.48878e+9 
           2015      5.45958e+9 
           2025      5.42564e+9 
           2035      5.26756e+9 
           2045      5.19383e+9 
           2055      5.04946e+9 
           2065       5.0111e+9 
           2074      5.05573e+9 
           2078      4.92147e+9 
           2085      4.90997e+9 
           2095      4.78484e+9 
           2105      4.79475e+9 
           2115      4.75002e+9 
           2125      4.71777e+9 
           2135      4.63905e+9 
           2145      4.54898e+9 
           2155      4.51262e+9 
           2165      4.45551e+9 
           2175      4.38669e+9 
           2185      4.33282e+9 
           2195      4.28201e+9 
           2205      4.22071e+9 
           2215      4.16533e+9 
           2225       4.1018e+9 
           2235      4.04519e+9 
           2245      4.00041e+9 
           2255      3.94064e+9 
           2265      3.89622e+9 
           2275      3.84392e+9 
           2285      3.79729e+9 
           2295      3.70662e+9 
           2305      3.69552e+9 
           2315       3.6411e+9 
           2325      3.59625e+9 
           2335      3.54036e+9 
           2345      3.49523e+9 
           2355      3.46052e+9 
           2365      3.41225e+9 
           2375      3.36915e+9 
           2385      3.32175e+9 
           2395      3.28166e+9 
           2405      3.24114e+9 
           2415      3.19839e+9 
           2425      3.16695e+9 
           2435       3.1225e+9 
           2445      3.08548e+9 
           2455      3.05114e+9 
           2465      3.01106e+9 
           2475      2.97484e+9 
           2485      2.93814e+9 
           2495      2.86247e+9 
           2505      2.86391e+9 
           2513      2.81003e+9 
           2518      2.82075e+9 
           2525      2.79562e+9 
           2535      2.75983e+9 
           2545      2.71917e+9 
           2555      2.69688e+9 
           2565      2.66433e+9 
           2575      2.63612e+9 
           2585      2.60528e+9 
           2595      2.57405e+9 
           2605      2.56004e+9 
           2615      2.53201e+9 
           2625      2.50379e+9 
           2635      2.47283e+9 
           2645      2.44604e+9 
           2655      2.41466e+9 
           2665      2.37859e+9 
           2675      2.34757e+9 
           2685      2.33838e+9 
           2695      2.28776e+9 
           2705        2.284e+9 
           2715      2.25791e+9 
           2725      2.20971e+9 
           2735      2.20793e+9 
           2745      2.17472e+9 
           2755      2.15311e+9 
           2765      2.11061e+9 
           2775      2.11118e+9 
           2785      2.08691e+9 
           2795      2.03791e+9 
           2805      2.03131e+9 
           2815      2.01942e+9 
           2825      1.96984e+9 
           2835      1.94678e+9 
           2845      1.95309e+9 
           2855      1.93189e+9 
           2865      1.91168e+9 
           2875      1.89075e+9 
           2885      1.87061e+9 
           2895      1.85047e+9 
           2910      1.82045e+9 
           2930      1.78129e+9 
           2950        1.727e+9 
           2970      1.70805e+9 
           2990      1.67162e+9 
           3010      1.63726e+9 
           3030      1.60443e+9 
           3050      1.57163e+9 
           3070      1.53975e+9 
           3090      1.50722e+9 
           3110      1.47812e+9 
           3130       1.4501e+9 
           3150      1.42126e+9 
           3170      1.39266e+9 
           3190       1.3506e+9 
           3210      1.33825e+9 
           3230      1.31176e+9 
           3250      1.28611e+9 
           3270      1.26299e+9 
           3290      1.23668e+9 
           3310      1.21532e+9 
           3330      1.19227e+9 
           3350      1.16737e+9 
           3370      1.14785e+9 
           3390      1.12651e+9 
           3410      1.10562e+9 
           3430      1.08015e+9 
           3450      1.05611e+9 
           3470      1.04012e+9 
           3490      1.02127e+9 
           3510       1.0042e+9 
           3530      9.87437e+8 
           3550      9.70603e+8 
           3570       9.6032e+8 
           3590      9.34889e+8 
           3610      9.22795e+8 
           3630      9.02734e+8 
           3640      9.03012e+8 
           3650      8.87636e+8 
           3670      8.76422e+8 
           3690      8.61801e+8 
           3710      8.33375e+8 
           3730      8.02015e+8 
           3750      7.98198e+8 
           3770      7.80076e+8 
           3790      8.20962e+8 
           3810      8.61468e+8 
           3830      7.42446e+8 
           3850      8.98025e+8 
           3870       9.2592e+8 
           3890      6.95073e+8 
           3910       9.1481e+8 
           3930      9.18914e+8 
           3950      8.88287e+8 
           3970      6.47574e+8 
           3990      8.46263e+8 
           4010      8.60545e+8 
           4030      7.93895e+8 
           4050      8.46961e+8 
           4070      8.23761e+8 
           4090       7.2206e+8 
           4110      6.19486e+8 
           4130      7.67024e+8 
           4150      7.68443e+8 
           4170      7.65552e+8 
           4190      7.56781e+8 
           4210      7.44634e+8 
           4230      7.32008e+8 
           4250      7.19295e+8 
           4270      7.03275e+8 
           4290      6.92188e+8 
           4310      6.71786e+8 
           4330       5.7857e+8 
           4350      5.23768e+8 
           4370      6.35336e+8 
           4390      6.10462e+8 
           4410      6.28299e+8 
           4430       6.1686e+8 
           4450      6.09445e+8 
           4470      5.59167e+8 
           4490      5.89104e+8 
           4510      5.82613e+8 
           4530      5.73367e+8 
           4550      5.64298e+8 
           4570      5.55455e+8 
           4590      5.46942e+8 
           4610      5.38466e+8 
           4630      5.30116e+8 
           4650      5.21332e+8 
           4670       5.1406e+8 
           4690      5.06328e+8 
           4710      4.90099e+8 
           4730      4.90628e+8 
           4750      4.82948e+8 
           4770      4.76655e+8 
           4790      4.68299e+8 
           4810      4.59707e+8 
           4830      4.46978e+8 
           4850      3.95123e+8 
           4870      3.49521e+8 
           4890      4.23724e+8 
           4910      4.25061e+8 
           4930      4.06491e+8 
           4950      4.16605e+8 
           4970      4.11261e+8 
           4990      4.05323e+8 
           5010      3.92578e+8 
           5030      3.93691e+8 
           5050       3.8495e+8 
           5070      3.82769e+8 
           5090      3.77382e+8 
           5110      3.72054e+8 
           5130      3.66782e+8 
           5150      3.61638e+8 
           5170      3.56717e+8 
           5190      3.51791e+8 
           5210      3.46833e+8 
           5230      3.42175e+8 
           5250      3.37468e+8 
           5270      3.32863e+8 
           5290      3.28345e+8 
           5310      3.23885e+8 
           5330      3.19496e+8 
           5350      3.15164e+8 
           5370      3.10992e+8 
           5390      3.06821e+8 
           5410      3.02742e+8 
           5430      2.98676e+8 
           5450      2.94737e+8 
           5470      2.90861e+8 
           5490      2.87046e+8 
           5510      2.83278e+8 
           5530      2.79594e+8 
           5550      2.75956e+8 
           5570      2.72363e+8 
           5590       2.6885e+8 
           5610      2.65381e+8 
           5630      2.61989e+8 
           5650      2.58568e+8 
           5670      2.55247e+8 
           5690      2.51967e+8 
           5710      2.48876e+8 
           5730       2.4573e+8 
           5750      2.42622e+8 
           5770      2.39608e+8 
           5790      2.36607e+8 
           5810      2.33653e+8 
           5830      2.30745e+8 
           5850      2.27893e+8 
           5870      2.15803e+8 
           5890      2.21311e+8 
           5910      2.19578e+8 
           5930      2.16878e+8 
           5950       2.1422e+8 
           5970      2.11646e+8 
           5990      2.09059e+8 
           6010      2.06554e+8 
           6030      2.04057e+8 
           6050      2.01609e+8 
           6070      1.99198e+8 
           6090      1.96815e+8 
           6110       1.9448e+8 
           6130       1.9217e+8 
           6150      1.89876e+8 
           6170      1.87658e+8 
           6190      1.85454e+8 
           6210      1.83284e+8 
           6230      1.81139e+8 
           6250      1.79027e+8 
           6270      1.76947e+8 
           6290        1.749e+8 
           6310      1.72875e+8 
           6330      1.70891e+8 
           6350      1.68873e+8 
           6370      1.66969e+8 
           6390      1.65086e+8 
           6410      1.63205e+8 
           6430      1.61362e+8 
           6450       1.5953e+8 
           6470      1.57708e+8 
           6490      1.55736e+8 
           6510      1.53554e+8 
           6530      1.50609e+8 
           6550      1.40392e+8 
           6570       1.2327e+8 
           6590      1.43706e+8 
           6610      1.44882e+8 
           6630       1.4382e+8 
           6650      1.42641e+8 
           6670       1.3901e+8 
           6690      1.37591e+8 
           6710      1.38102e+8 
           6730      1.36592e+8 
           6750      1.35122e+8 
           6770      1.33659e+8 
           6790       1.3217e+8 
           6810      1.30794e+8 
           6830      1.29391e+8 
           6850      1.28011e+8 
           6870      1.26644e+8 
           6890      1.25291e+8 
           6910      1.23967e+8 
           6930      1.22648e+8 
           6950      1.21358e+8 
           6970      1.20081e+8 
           6990      1.18817e+8 
           7010       1.1758e+8 
           7030      1.16348e+8 
           7050      1.15135e+8 
           7070      1.11779e+8 
           7090      1.12761e+8 
           7110      1.11598e+8 
           7130      1.10447e+8 
           7150      1.09307e+8 
           7170      1.08177e+8 
           7190      1.07081e+8 
           7210      1.05995e+8 
           7230      1.04674e+8 
           7250      1.03847e+8 
           7270      1.02798e+8 
           7290      1.00796e+8 
           7310      1.00725e+8 
           7330       9.9727e+7 
           7350      9.87248e+7 
           7370      9.77388e+7 
           7390       9.6769e+7 
           7410      9.58014e+7 
           7430      9.48564e+7 
           7450       9.3927e+7 
           7470      9.29994e+7 
           7490       9.2087e+7 
           7510      9.11497e+7 
           7530       9.0294e+7 
           7550      8.94065e+7 
           7570      8.85403e+7 
           7590      8.76754e+7 
           7610      8.68248e+7 
           7630      8.59884e+7 
           7650      8.51596e+7 
           7670      8.43382e+7 
           7690      8.35306e+7 
           7710      8.27303e+7 
           7730       8.1937e+7 
           7750      8.11572e+7 
           7770      8.03593e+7 
           7790      7.96243e+7 
           7810       7.8828e+7 
           7830      7.81247e+7 
           7850      7.74703e+7 
           7870      7.67425e+7 
           7890      7.59727e+7 
           7910      7.53181e+7 
           7930      7.46151e+7 
           7950      7.39064e+7 
           7970      7.31089e+7 
           7990      7.24129e+7 
           8010      7.17171e+7 
           8030      7.10448e+7 
           8050      7.03899e+7 
           8070      6.97464e+7 
           8090      6.90451e+7 
           8110      6.84529e+7 
           8130      6.78943e+7 
           8150      6.72325e+7 
           8170      6.66723e+7 
           8190      6.60101e+7 
           8210      6.52809e+7 
           8230      6.48528e+7 
           8250      6.42896e+7 
           8270      6.34337e+7 
           8290      6.31225e+7 
           8310      6.26008e+7 
           8330       6.2002e+7 
           8350       6.1165e+7 
           8370        6.083e+7 
           8390      6.03905e+7 
           8410      5.98533e+7 
           8430      5.92886e+7 
           8450      5.83541e+7 
           8470      5.82626e+7 
           8490      5.76121e+7 
           8510      5.72012e+7 
           8530      5.65708e+7 
           8550      5.59664e+7 
           8570      5.58901e+7 
           8590      5.42261e+7 
