# Kurucz ODFNEW /NOVER (2003)
# teff = 33000 K (value for the effective temperature for the model. Temperatures are given in K)
# logg = 4.5 log(cm/s2) (value for Log(G) for the model.)
# meta = 0.2  (value for the Metallicity for the model.)
# lh = 1.25  (l/Hp where l is the  mixing length of the convective element and Hp is the pressure scale height)
# vtur = 2 km/s (Microturbulence velocity)
# alpha = 0  (Alpha)
#
# column 1: WAVELENGTH (ANGSTROM), Wavelength in Angstrom
# column 2: FLUX (ERG/CM2/S/A), Flux in erg/cm2/s/A
          147.2      4.87224e-6 
            151      1.31164e-5 
          155.2      3.70301e-5 
          158.8      8.63488e-5 
            162     0.000177584 
            166     0.000421107 
          170.3      0.00101476 
          173.4      0.00186964 
          176.8      0.00356925 
          180.2      0.00662443 
          181.7      0.00868061 
          186.1       0.0184649 
            191       0.0411376 
          193.9       0.0647842 
          198.4        0.128085 
          201.8        0.209562 
            205        0.328205 
          210.5         0.68866 
          216.2         1.41899 
          219.8         2.21615 
            223         3.24147 
          226.8         5.09657 
            230         1606.98 
            234         3438.63 
            240         5443.22 
          246.5         9098.58 
          252.4         14730.1 
          256.8           20256 
            260         34678.6 
            264         57420.8 
          268.5         84822.9 
          273.5          115126 
          278.5          143504 
            284          299493 
            290          426596 
            296          557681 
            301          895492 
            308      2.04075e+6 
            318       4.2779e+6 
            328      6.07094e+6 
            338      1.06941e+7 
            348      1.62887e+7 
            357      3.29024e+7 
            366      6.43378e+7 
            375       7.5579e+7 
            385      1.06702e+8 
            395        1.814e+8 
            405       2.2056e+8 
            414      2.80268e+8 
            422      3.15669e+8 
            430      3.60898e+8 
            441      4.43519e+8 
            451      4.90598e+8 
            460      5.14869e+8 
            470      6.11209e+8 
            480      7.15851e+8 
            490      7.71738e+8 
            500      9.20983e+8 
            506      1.55129e+9 
            512     1.06612e+10 
            520     1.00003e+10 
            530      8.97539e+9 
            540      8.18146e+9 
            550      9.65635e+9 
            560     1.22846e+10 
            570     1.29774e+10 
            580     1.18764e+10 
            590     1.25465e+10 
            600      9.92295e+9 
            610     1.21341e+10 
            620     1.43714e+10 
            630     1.37849e+10 
            640     1.35727e+10 
            650     1.32939e+10 
            658     1.11514e+10 
            665     1.32189e+10 
            675     1.46533e+10 
            685     1.14707e+10 
            695     1.53531e+10 
            705     1.22564e+10 
            716     1.62992e+10 
            726     1.58182e+10 
            735     1.57861e+10 
            745     1.51262e+10 
            755     1.51009e+10 
            765     1.52996e+10 
            775     1.57949e+10 
            785     1.62326e+10 
            795     1.62589e+10 
            805        1.55e+10 
            815     1.53443e+10 
            825     1.62111e+10 
            835     1.31478e+10 
            845     1.53573e+10 
            855     1.51465e+10 
            865     1.56104e+10 
            875     1.56813e+10 
            885     1.59484e+10 
            895     1.60201e+10 
            905     1.54758e+10 
            915     1.58346e+10 
            925     4.38347e+10 
            935     6.99269e+10 
            945     9.40321e+10 
            955     1.02759e+11 
            965     1.17474e+11 
            975     4.65807e+10 
            985     9.45449e+10 
            995     8.49713e+10 
           1005     8.92081e+10 
           1015     9.37815e+10 
           1025     7.17619e+10 
           1035     9.00866e+10 
           1045     1.04564e+11 
           1055     9.86142e+10 
           1065     8.45547e+10 
           1075     8.80288e+10 
           1085     8.02181e+10 
           1095     8.54929e+10 
           1105     8.14626e+10 
           1115     8.02049e+10 
           1125     6.53221e+10 
           1135      7.6289e+10 
           1145     7.31433e+10 
           1155      6.9575e+10 
           1165     6.69646e+10 
           1175     4.37845e+10 
           1185     6.07768e+10 
           1195      5.8917e+10 
           1205     5.58287e+10 
           1215      4.3057e+10 
           1225     5.42189e+10 
           1235     5.80918e+10 
           1245     5.57526e+10 
           1255     5.54178e+10 
           1265     5.68899e+10 
           1275     5.84969e+10 
           1285     5.83269e+10 
           1295     5.37432e+10 
           1305     5.36483e+10 
           1315     5.67613e+10 
           1325     5.44658e+10 
           1335     5.27143e+10 
           1345      5.2454e+10 
           1355     5.11615e+10 
           1365     4.91428e+10 
           1375     4.75758e+10 
           1385       4.587e+10 
           1395     3.63464e+10 
           1405     3.72431e+10 
           1415     4.32626e+10 
           1425      3.8743e+10 
           1435     4.13259e+10 
           1442     4.08369e+10 
           1447     4.05786e+10 
           1455     3.85694e+10 
           1465     3.73776e+10 
           1475       3.765e+10 
           1485     3.75598e+10 
           1495     3.62718e+10 
           1505      3.4865e+10 
           1512     3.38178e+10 
           1517     3.41519e+10 
           1525      3.3004e+10 
           1535     2.85398e+10 
           1545     2.43933e+10 
           1555     2.43952e+10 
           1565     2.73761e+10 
           1575     2.87381e+10 
           1585     2.88745e+10 
           1595     2.86572e+10 
           1605     2.72161e+10 
           1615      2.5856e+10 
           1625     2.64989e+10 
           1635     2.67479e+10 
           1645     2.65852e+10 
           1655     2.66693e+10 
           1665     2.62752e+10 
           1672     2.42188e+10 
           1677     2.82407e+10 
           1685     2.67538e+10 
           1695     2.57231e+10 
           1705      2.5373e+10 
           1715     2.41455e+10 
           1725     2.31611e+10 
           1735     2.39662e+10 
           1745      2.3696e+10 
           1755     2.33375e+10 
           1765     2.29794e+10 
           1775     2.20696e+10 
           1785     2.23964e+10 
           1795     2.19091e+10 
           1805     2.18277e+10 
           1815     2.10469e+10 
           1825     2.07705e+10 
           1835     2.06645e+10 
           1845     1.94417e+10 
           1855     1.97691e+10 
           1865     1.97906e+10 
           1875     1.93732e+10 
           1885     1.82511e+10 
           1895     1.77589e+10 
           1905     1.82851e+10 
           1915     1.77104e+10 
           1925      1.6554e+10 
           1935     1.75897e+10 
           1945     1.77977e+10 
           1955     1.60981e+10 
           1967     1.68799e+10 
           1976     1.73025e+10 
           1984     1.65574e+10 
           1995     1.61358e+10 
           2005     1.63942e+10 
           2015     1.63284e+10 
           2025     1.63264e+10 
           2035     1.55323e+10 
           2045      1.5361e+10 
           2055     1.26426e+10 
           2065     1.22174e+10 
           2074     1.26485e+10 
           2078     1.24027e+10 
           2085      1.2973e+10 
           2095     1.35395e+10 
           2105     1.41186e+10 
           2115     1.42144e+10 
           2125     1.39734e+10 
           2135     1.38155e+10 
           2145     1.35101e+10 
           2155     1.35594e+10 
           2165     1.30061e+10 
           2175     1.32093e+10 
           2185      1.2788e+10 
           2195     1.30009e+10 
           2205     1.27996e+10 
           2215     1.23142e+10 
           2225     1.23742e+10 
           2235     1.21581e+10 
           2245     1.19813e+10 
           2255     1.15826e+10 
           2265     1.16781e+10 
           2275     1.15509e+10 
           2285     1.12516e+10 
           2295     1.01267e+10 
           2305     1.07211e+10 
           2315     1.07032e+10 
           2325     1.06503e+10 
           2335     1.04674e+10 
           2345     1.03571e+10 
           2355     1.01437e+10 
           2365      9.98465e+9 
           2375      9.75848e+9 
           2385      9.37746e+9 
           2395      9.42148e+9 
           2405      9.39214e+9 
           2415      9.26866e+9 
           2425      9.20391e+9 
           2435      9.02236e+9 
           2445      8.93169e+9 
           2455      8.81219e+9 
           2465      8.69558e+9 
           2475      8.57133e+9 
           2485      8.32862e+9 
           2495       6.4894e+9 
           2505      7.97162e+9 
           2513      7.64713e+9 
           2518      7.82713e+9 
           2525      7.98765e+9 
           2535      7.92652e+9 
           2545      7.73988e+9 
           2555      7.65864e+9 
           2565      7.57155e+9 
           2575      7.48161e+9 
           2585      7.39565e+9 
           2595      7.26994e+9 
           2605      7.22645e+9 
           2615      7.08204e+9 
           2625       7.0331e+9 
           2635      6.95432e+9 
           2645      6.83291e+9 
           2655      6.76122e+9 
           2665      6.59229e+9 
           2675      6.45359e+9 
           2685      6.48713e+9 
           2695      6.31563e+9 
           2705      6.25409e+9 
           2715      6.17488e+9 
           2725      6.12254e+9 
           2735      5.97209e+9 
           2745      5.99715e+9 
           2755      5.92739e+9 
           2765      5.82201e+9 
           2775      5.81828e+9 
           2785      5.71441e+9 
           2795      5.51782e+9 
           2805      5.54415e+9 
           2815      5.52955e+9 
           2825      5.44043e+9 
           2835      5.31822e+9 
           2845       5.3293e+9 
           2855      5.24489e+9 
           2865      5.16658e+9 
           2875      5.11247e+9 
           2885       5.0531e+9 
           2895      4.99083e+9 
           2910      4.87189e+9 
           2930      4.80122e+9 
           2950      4.65495e+9 
           2970      4.56001e+9 
           2990       4.4242e+9 
           3010       4.2945e+9 
           3030      4.19573e+9 
           3050      4.13279e+9 
           3070      4.06273e+9 
           3090      3.92749e+9 
           3110       3.8857e+9 
           3130      3.78029e+9 
           3150      3.71015e+9 
           3170      3.61752e+9 
           3190      3.54121e+9 
           3210      3.44929e+9 
           3230      3.38637e+9 
           3250      3.33109e+9 
           3270      3.23396e+9 
           3290      3.17847e+9 
           3310      3.10892e+9 
           3330      3.03302e+9 
           3350       2.9611e+9 
           3370       2.9037e+9 
           3390      2.86396e+9 
           3410      2.80193e+9 
           3430       2.7477e+9 
           3450      2.67586e+9 
           3470      2.62962e+9 
           3490      2.57569e+9 
           3510      2.52627e+9 
           3530      2.48333e+9 
           3550      2.43047e+9 
           3570       2.3875e+9 
           3590      2.32578e+9 
           3610      2.28132e+9 
           3630      2.23766e+9 
           3640      2.21652e+9 
           3650      2.11794e+9 
           3670      2.08522e+9 
           3690      2.04544e+9 
           3710      1.97549e+9 
           3730      1.93476e+9 
           3750      1.92754e+9 
           3770       1.8839e+9 
           3790      1.94183e+9 
           3810      1.98397e+9 
           3830      1.79113e+9 
           3850      1.97958e+9 
           3870       1.9344e+9 
           3890       1.6815e+9 
           3910      1.92858e+9 
           3930      1.87315e+9 
           3950      1.82805e+9 
           3970       1.5499e+9 
           3990      1.78205e+9 
           4010      1.75703e+9 
           4030      1.68248e+9 
           4050       1.7026e+9 
           4070      1.63253e+9 
           4090       1.5351e+9 
           4110      1.40463e+9 
           4130      1.55538e+9 
           4150      1.53759e+9 
           4170      1.52915e+9 
           4190      1.50107e+9 
           4210      1.47343e+9 
           4230      1.45635e+9 
           4250      1.41652e+9 
           4270      1.38413e+9 
           4290      1.36137e+9 
           4310      1.32313e+9 
           4330      1.23765e+9 
           4350      1.15319e+9 
           4370      1.26174e+9 
           4390      1.23732e+9 
           4410      1.22742e+9 
           4430      1.21877e+9 
           4450      1.19633e+9 
           4470      1.15031e+9 
           4490      1.15973e+9 
           4510      1.13568e+9 
           4530      1.12302e+9 
           4550      1.09786e+9 
           4570      1.08977e+9 
           4590      1.06862e+9 
           4610      1.04765e+9 
           4630      1.02429e+9 
           4650      9.75846e+8 
           4670      9.95075e+8 
           4690      9.74224e+8 
           4710      9.57646e+8 
           4730      9.61942e+8 
           4750      9.45376e+8 
           4770      9.36703e+8 
           4790       9.2141e+8 
           4810      9.04352e+8 
           4830      8.85251e+8 
           4850      8.37045e+8 
           4870      7.61595e+8 
           4890      8.44881e+8 
           4910      8.34902e+8 
           4930      8.10409e+8 
           4950      8.08379e+8 
           4970      8.02359e+8 
           4990      7.89918e+8 
           5010      7.62882e+8 
           5030       7.6323e+8 
           5050      7.50475e+8 
           5070      7.44214e+8 
           5090       7.3243e+8 
           5110      7.21038e+8 
           5130      7.08899e+8 
           5150      6.99014e+8 
           5170      6.89346e+8 
           5190      6.80351e+8 
           5210      6.70946e+8 
           5230      6.61266e+8 
           5250      6.50114e+8 
           5270      6.40468e+8 
           5290      6.33413e+8 
           5310      6.24215e+8 
           5330      6.15561e+8 
           5350      6.06887e+8 
           5370      5.98429e+8 
           5390      5.89613e+8 
           5410      5.77089e+8 
           5430      5.73944e+8 
           5450       5.6582e+8 
           5470        5.579e+8 
           5490      5.50181e+8 
           5510      5.42794e+8 
           5530       5.3513e+8 
           5550      5.28418e+8 
           5570      5.20999e+8 
           5590      5.13155e+8 
           5610       5.0736e+8 
           5630      5.00588e+8 
           5650      4.93486e+8 
           5670      4.85734e+8 
           5690      4.73924e+8 
           5710      4.65445e+8 
           5730      4.59884e+8 
           5750      4.52987e+8 
           5770      4.48494e+8 
           5790      4.42446e+8 
           5810      4.36168e+8 
           5830      4.29966e+8 
           5850      4.26085e+8 
           5870      4.11586e+8 
           5890      4.14421e+8 
           5910      4.10876e+8 
           5930      4.06106e+8 
           5950      4.01604e+8 
           5970      3.98304e+8 
           5990      3.93108e+8 
           6010      3.89505e+8 
           6030      3.84366e+8 
           6050      3.80018e+8 
           6070      3.75667e+8 
           6090       3.7106e+8 
           6110      3.66264e+8 
           6130      3.61913e+8 
           6150      3.56525e+8 
           6170      3.52406e+8 
           6190      3.48638e+8 
           6210      3.44589e+8 
           6230      3.40361e+8 
           6250      3.35871e+8 
           6270      3.32007e+8 
           6290      3.28157e+8 
           6310      3.23847e+8 
           6330      3.20328e+8 
           6350      3.16201e+8 
           6370      3.12798e+8 
           6390      3.08998e+8 
           6410      3.05184e+8 
           6430      3.01794e+8 
           6450      2.98033e+8 
           6470      2.93844e+8 
           6490      2.90641e+8 
           6510      2.87035e+8 
           6530      2.82771e+8 
           6550      2.73565e+8 
           6570      2.46443e+8 
           6590      2.71798e+8 
           6610       2.7101e+8 
           6630       2.6828e+8 
           6650      2.65118e+8 
           6670      2.59517e+8 
           6690      2.56444e+8 
           6710       2.5583e+8 
           6730      2.52573e+8 
           6750      2.50219e+8 
           6770       2.4774e+8 
           6790      2.44084e+8 
           6810      2.42141e+8 
           6830      2.39409e+8 
           6850      2.36832e+8 
           6870      2.34082e+8 
           6890      2.30853e+8 
           6910      2.28461e+8 
           6930      2.26603e+8 
           6950        2.241e+8 
           6970      2.21652e+8 
           6990      2.19198e+8 
           7010      2.16684e+8 
           7030      2.14005e+8 
           7050      2.11928e+8 
           7070      2.06925e+8 
           7090      2.07572e+8 
           7110      2.04879e+8 
           7130       2.0276e+8 
           7150      2.00986e+8 
           7170      1.98525e+8 
           7190      1.96577e+8 
           7210      1.94633e+8 
           7230      1.90978e+8 
           7250      1.90255e+8 
           7270      1.88525e+8 
           7290      1.85302e+8 
           7310      1.84522e+8 
           7330      1.82605e+8 
           7350      1.80734e+8 
           7370      1.78867e+8 
           7390      1.77024e+8 
           7410      1.75177e+8 
           7430      1.73383e+8 
           7450       1.7155e+8 
           7470      1.69417e+8 
           7490      1.67675e+8 
           7510      1.66308e+8 
           7530      1.64582e+8 
           7550      1.63018e+8 
           7570      1.61329e+8 
           7590      1.59211e+8 
           7610      1.57829e+8 
           7630      1.56433e+8 
           7650      1.54889e+8 
           7670      1.53403e+8 
           7690      1.51632e+8 
           7710      1.50212e+8 
           7730      1.48528e+8 
           7750      1.47361e+8 
           7770      1.45905e+8 
           7790      1.44505e+8 
           7810      1.43037e+8 
           7830      1.41674e+8 
           7850       1.4028e+8 
           7870      1.38753e+8 
           7890      1.37343e+8 
           7910      1.36198e+8 
           7930       1.3484e+8 
           7950      1.33638e+8 
           7970      1.32275e+8 
           7990      1.31053e+8 
           8010      1.29765e+8 
           8030      1.28482e+8 
           8050      1.27316e+8 
           8070      1.26095e+8 
           8090      1.24805e+8 
           8110      1.23113e+8 
           8130      1.22548e+8 
           8150      1.21301e+8 
           8170      1.20256e+8 
           8190      1.18631e+8 
           8210      1.16852e+8 
           8230      1.15484e+8 
           8250      1.14886e+8 
           8270      1.13212e+8 
           8290       1.1276e+8 
           8310      1.11841e+8 
           8330      1.10632e+8 
           8350      1.09238e+8 
           8370      1.08571e+8 
           8390      1.07803e+8 
           8410      1.06758e+8 
           8430      1.05823e+8 
           8450      1.04399e+8 
           8470      1.03912e+8 
           8490      1.02837e+8 
           8510      1.01605e+8 
           8530      1.00985e+8 
           8550      9.98015e+7 
           8570      9.96492e+7 
