# Kurucz ODFNEW /NOVER (2003)
# teff = 23000 K (value for the effective temperature for the model. Temperatures are given in K)
# logg = 5 log(cm/s2) (value for Log(G) for the model.)
# meta = 0  (value for the Metallicity for the model.)
# lh = 1.25  (l/Hp where l is the  mixing length of the convective element and Hp is the pressure scale height)
# vtur = 2 km/s (Microturbulence velocity)
# alpha = 0.4  (Alpha)
#
# column 1: WAVELENGTH (ANGSTROM), Wavelength in Angstrom
# column 2: FLUX (ERG/CM2/S/A), Flux in erg/cm2/s/A
          147.2     1.62568e-15 
            151     7.41744e-15 
          155.2     3.64576e-14 
          158.8     1.33579e-13 
            162     4.04319e-13 
            166     1.52176e-12 
          170.3     5.89201e-12 
          173.4     1.50879e-11 
          176.8     4.06507e-11 
          180.2     1.05612e-10 
          181.7     1.59068e-10 
          186.1     5.11534e-10 
            191      1.76856e-9 
          193.9      3.57579e-9 
          198.4       1.0257e-8 
          201.8      2.20793e-8 
            205      4.44473e-8 
          210.5      1.41067e-7 
          216.2      4.40123e-7 
          219.8      8.77179e-7 
            223      1.59036e-6 
          226.8      3.15756e-6 
            230      4.38495e-5 
            234     0.000102679 
            240     0.000264273 
          246.5     0.000694034 
          252.4      0.00161287 
          256.8      0.00286582 
            260      0.00449835 
            264      0.00748854 
          268.5       0.0130579 
          273.5       0.0235806 
          278.5       0.0420777 
            284       0.0790909 
            290        0.149048 
            296        0.273573 
            301        0.445625 
            308        0.862796 
            318         2.14297 
            328         4.81347 
            338         10.7327 
            348         22.3405 
            357         49.0535 
            366         90.7147 
            375         154.799 
            385         277.721 
            395         483.827 
            405         810.396 
            414         1276.56 
            422         1835.82 
            430         2651.37 
            441         4272.66 
            451          6486.6 
            460         9164.17 
            470         13384.7 
            480         19106.3 
            490         27033.2 
            500           37694 
            506          252918 
            512      1.39943e+6 
            520      1.70824e+6 
            530      2.27084e+6 
            540      2.52509e+6 
            550      3.58335e+6 
            560      4.21046e+6 
            570      5.26308e+6 
            580      5.35204e+6 
            590       7.1044e+6 
            600      8.34456e+6 
            610       1.0076e+7 
            620      1.12529e+7 
            630      1.27247e+7 
            640      1.30908e+7 
            650      1.26715e+7 
            658      1.66236e+7 
            665      1.89019e+7 
            675      2.08587e+7 
            685      2.27647e+7 
            695      2.76761e+7 
            705      2.97579e+7 
            716      3.38689e+7 
            726      3.64839e+7 
            735      3.94432e+7 
            745      4.44989e+7 
            755        4.874e+7 
            765      5.32137e+7 
            775      5.82978e+7 
            785      6.33604e+7 
            795      6.69741e+7 
            805      7.17851e+7 
            815      7.64377e+7 
            825      8.33025e+7 
            835      8.28213e+7 
            845      9.18153e+7 
            855      9.74361e+7 
            865      1.04672e+8 
            875      1.12075e+8 
            885      1.21308e+8 
            895      1.28479e+8 
            905      1.30246e+8 
            915      1.69298e+8 
            925      6.37154e+8 
            935      1.63758e+9 
            945      5.37531e+9 
            955      1.0551e+10 
            965     1.49106e+10 
            975      2.60129e+9 
            985     1.90123e+10 
            995     1.76788e+10 
           1005     2.09184e+10 
           1015     1.76936e+10 
           1025       3.4972e+9 
           1035     1.23479e+10 
           1045     2.49902e+10 
           1055     2.38174e+10 
           1065     1.79824e+10 
           1075     2.19646e+10 
           1085     1.98982e+10 
           1095     2.23997e+10 
           1105     1.88546e+10 
           1115     1.71885e+10 
           1125     1.50989e+10 
           1135      2.0005e+10 
           1145     1.63605e+10 
           1155      1.8131e+10 
           1165     1.84592e+10 
           1175      1.2591e+10 
           1185      1.8001e+10 
           1195     1.32813e+10 
           1205      6.83342e+9 
           1215      3.14633e+9 
           1225      9.00234e+9 
           1235      1.5477e+10 
           1245     1.61736e+10 
           1255     1.57107e+10 
           1265     1.51622e+10 
           1275      1.5897e+10 
           1285     1.60297e+10 
           1295      9.62746e+9 
           1305      9.24754e+9 
           1315     1.50289e+10 
           1325     1.39684e+10 
           1335     1.31287e+10 
           1345     1.35265e+10 
           1355     1.35077e+10 
           1365     1.19121e+10 
           1375     1.17893e+10 
           1385     1.18778e+10 
           1395      9.07198e+9 
           1405      9.82805e+9 
           1415     1.05862e+10 
           1425     1.07103e+10 
           1435     1.07608e+10 
           1442     1.12841e+10 
           1447     1.10715e+10 
           1455     1.07663e+10 
           1465     1.00181e+10 
           1475      9.93085e+9 
           1485      9.56112e+9 
           1495      9.57877e+9 
           1505      8.52746e+9 
           1512      7.88758e+9 
           1517      8.22267e+9 
           1525      8.44911e+9 
           1535      7.42706e+9 
           1545      7.49884e+9 
           1555      7.13628e+9 
           1565        7.399e+9 
           1575      7.82124e+9 
           1585      7.70817e+9 
           1595      7.76982e+9 
           1605      7.72902e+9 
           1615      7.61815e+9 
           1625      7.41282e+9 
           1635      7.70927e+9 
           1645      7.64074e+9 
           1655      7.31775e+9 
           1665      7.63603e+9 
           1672      7.34327e+9 
           1677      7.62922e+9 
           1685      7.56318e+9 
           1695      7.18914e+9 
           1705      6.83861e+9 
           1715      6.48435e+9 
           1725      6.36811e+9 
           1735      6.60091e+9 
           1745      6.41759e+9 
           1755       6.4907e+9 
           1765      6.15724e+9 
           1775      6.01248e+9 
           1785      6.00017e+9 
           1795      6.24802e+9 
           1805      6.22605e+9 
           1815      5.66359e+9 
           1825      5.87395e+9 
           1835      5.59832e+9 
           1845      5.14203e+9 
           1855      5.08685e+9 
           1865      5.13664e+9 
           1875       5.4114e+9 
           1885      4.88625e+9 
           1895      4.57517e+9 
           1905       4.9071e+9 
           1915      4.62834e+9 
           1925      4.45716e+9 
           1935       4.6383e+9 
           1945      4.68534e+9 
           1955      4.32546e+9 
           1967       4.6409e+9 
           1976      4.82864e+9 
           1984      4.45126e+9 
           1995      4.36682e+9 
           2005      4.47518e+9 
           2015      4.32732e+9 
           2025      4.54285e+9 
           2035      4.18974e+9 
           2045      4.22994e+9 
           2055      4.07727e+9 
           2065      4.14283e+9 
           2074      4.22475e+9 
           2078      3.96291e+9 
           2085      4.09519e+9 
           2095       3.8701e+9 
           2105      3.96928e+9 
           2115      3.95255e+9 
           2125      4.00429e+9 
           2135      3.88769e+9 
           2145       3.7396e+9 
           2155      3.85553e+9 
           2165      3.80545e+9 
           2175      3.74426e+9 
           2185      3.65246e+9 
           2195      3.67509e+9 
           2205      3.61564e+9 
           2215      3.55381e+9 
           2225      3.44219e+9 
           2235      3.44592e+9 
           2245      3.44063e+9 
           2255       3.3235e+9 
           2265      3.37118e+9 
           2275      3.32479e+9 
           2285       3.3187e+9 
           2295      3.15108e+9 
           2305      3.18712e+9 
           2315      3.10418e+9 
           2325      3.06666e+9 
           2335      2.94551e+9 
           2345      2.92846e+9 
           2355      2.93088e+9 
           2365      2.86695e+9 
           2375       2.8486e+9 
           2385      2.80701e+9 
           2395      2.81817e+9 
           2405      2.73746e+9 
           2415      2.72098e+9 
           2425      2.73055e+9 
           2435      2.64133e+9 
           2445      2.64686e+9 
           2455      2.63972e+9 
           2465      2.58648e+9 
           2475      2.55252e+9 
           2485      2.54221e+9 
           2495       2.4015e+9 
           2505      2.47872e+9 
           2513      2.37133e+9 
           2518      2.44309e+9 
           2525      2.38761e+9 
           2535      2.35451e+9 
           2545      2.27811e+9 
           2555      2.32483e+9 
           2565       2.2879e+9 
           2575      2.30357e+9 
           2585      2.28922e+9 
           2595      2.26731e+9 
           2605      2.24088e+9 
           2615      2.21948e+9 
           2625       2.1962e+9 
           2635      2.17642e+9 
           2645      2.17723e+9 
           2655      2.15824e+9 
           2665      2.08531e+9 
           2675      2.09565e+9 
           2685      2.08326e+9 
           2695      2.02473e+9 
           2705      2.01622e+9 
           2715      1.99393e+9 
           2725      1.95939e+9 
           2735      1.96719e+9 
           2745      1.89379e+9 
           2755      1.89099e+9 
           2765      1.87497e+9 
           2775       1.8925e+9 
           2785      1.86271e+9 
           2795      1.77277e+9 
           2805      1.80765e+9 
           2815      1.81485e+9 
           2825      1.77658e+9 
           2835       1.7149e+9 
           2845      1.73717e+9 
           2855      1.72419e+9 
           2865      1.72176e+9 
           2875      1.69837e+9 
           2885      1.68231e+9 
           2895      1.66442e+9 
           2910      1.63342e+9 
           2930      1.59852e+9 
           2950      1.55432e+9 
           2970      1.53999e+9 
           2990      1.50092e+9 
           3010      1.47052e+9 
           3030      1.45224e+9 
           3050      1.42256e+9 
           3070      1.39641e+9 
           3090      1.35547e+9 
           3110      1.33708e+9 
           3130      1.31309e+9 
           3150      1.28807e+9 
           3170      1.25969e+9 
           3190      1.22254e+9 
           3210      1.21328e+9 
           3230      1.18974e+9 
           3250      1.16965e+9 
           3270      1.14831e+9 
           3290      1.12527e+9 
           3310      1.10683e+9 
           3330      1.08515e+9 
           3350      1.06327e+9 
           3370      1.04488e+9 
           3390      1.02724e+9 
           3410      1.00894e+9 
           3430      9.86357e+8 
           3450      9.64984e+8 
           3470        9.497e+8 
           3490      9.32413e+8 
           3510      9.17384e+8 
           3530      9.02755e+8 
           3550       8.8759e+8 
           3570      8.77998e+8 
           3590      8.52604e+8 
           3610       8.4142e+8 
           3630      8.26026e+8 
           3640      8.26669e+8 
           3650      8.16631e+8 
           3670      8.07223e+8 
           3690      7.94457e+8 
           3710      7.66619e+8 
           3730      7.36893e+8 
           3750      7.35724e+8 
           3770      7.19404e+8 
           3790      7.61059e+8 
           3810      7.99312e+8 
           3830      6.87512e+8 
           3850      8.30444e+8 
           3870      8.56394e+8 
           3890      6.42467e+8 
           3910       8.5525e+8 
           3930      8.44104e+8 
           3950       8.2773e+8 
           3970      5.99028e+8 
           3990      7.87222e+8 
           4010      8.06027e+8 
           4030      7.41332e+8 
           4050      7.90988e+8 
           4070      7.55578e+8 
           4090      6.68213e+8 
           4110      5.75082e+8 
           4130      7.08009e+8 
           4150      7.12663e+8 
           4170      7.12798e+8 
           4190      7.06031e+8 
           4210      6.99509e+8 
           4230      6.85477e+8 
           4250      6.68696e+8 
           4270      6.46619e+8 
           4290      6.43061e+8 
           4310      6.22261e+8 
           4330      5.36494e+8 
           4350      4.85304e+8 
           4370      5.87852e+8 
           4390      5.70936e+8 
           4410      5.84443e+8 
           4430      5.76394e+8 
           4450      5.70331e+8 
           4470      5.24494e+8 
           4490      5.47096e+8 
           4510      5.47885e+8 
           4530       5.3711e+8 
           4550      5.29341e+8 
           4570      5.21074e+8 
           4590      5.13003e+8 
           4610      5.03332e+8 
           4630      4.95003e+8 
           4650      4.84169e+8 
           4670       4.8117e+8 
           4690      4.76579e+8 
           4710      4.55218e+8 
           4730      4.58028e+8 
           4750      4.51073e+8 
           4770      4.49749e+8 
           4790      4.40993e+8 
           4810      4.29876e+8 
           4830      4.17975e+8 
           4850      3.69979e+8 
           4870      3.26568e+8 
           4890      3.98485e+8 
           4910      3.99652e+8 
           4930       3.8166e+8 
           4950      3.91328e+8 
           4970      3.88093e+8 
           4990      3.81902e+8 
           5010      3.65426e+8 
           5030      3.69896e+8 
           5050      3.58212e+8 
           5070       3.6099e+8 
           5090       3.5528e+8 
           5110      3.49532e+8 
           5130      3.43133e+8 
           5150      3.38471e+8 
           5170      3.36026e+8 
           5190      3.31231e+8 
           5210      3.23586e+8 
           5230      3.22617e+8 
           5250      3.18291e+8 
           5270      3.13397e+8 
           5290      3.09955e+8 
           5310      3.05581e+8 
           5330      3.00719e+8 
           5350      2.95829e+8 
           5370      2.93604e+8 
           5390      2.89587e+8 
           5410      2.85455e+8 
           5430      2.80826e+8 
           5450      2.77399e+8 
           5470       2.7341e+8 
           5490      2.70909e+8 
           5510      2.67308e+8 
           5530      2.63617e+8 
           5550      2.60534e+8 
           5570      2.56918e+8 
           5590      2.53985e+8 
           5610      2.50179e+8 
           5630      2.47667e+8 
           5650      2.42093e+8 
           5670      2.38971e+8 
           5690      2.36793e+8 
           5710      2.34768e+8 
           5730      2.32145e+8 
           5750      2.28846e+8 
           5770       2.2655e+8 
           5790      2.23684e+8 
           5810      2.20696e+8 
           5830      2.17887e+8 
           5850      2.15332e+8 
           5870      2.03809e+8 
           5890      2.07835e+8 
           5910      2.07175e+8 
           5930      2.04783e+8 
           5950      2.01557e+8 
           5970      2.00125e+8 
           5990      1.97131e+8 
           6010      1.95404e+8 
           6030      1.92908e+8 
           6050      1.90688e+8 
           6070      1.88442e+8 
           6090      1.86038e+8 
           6110      1.83995e+8 
           6130      1.81884e+8 
           6150      1.78591e+8 
           6170      1.77356e+8 
           6190      1.75533e+8 
           6210      1.73467e+8 
           6230      1.71452e+8 
           6250      1.68939e+8 
           6270      1.67326e+8 
           6290      1.65435e+8 
           6310      1.63291e+8 
           6330      1.61724e+8 
           6350      1.58792e+8 
           6370      1.57472e+8 
           6390      1.56091e+8 
           6410      1.54265e+8 
           6430      1.52833e+8 
           6450      1.50918e+8 
           6470      1.48916e+8 
           6490       1.4723e+8 
           6510      1.45198e+8 
           6530      1.42322e+8 
           6550      1.32199e+8 
           6570      1.15511e+8 
           6590      1.35153e+8 
           6610      1.37035e+8 
           6630      1.36184e+8 
           6650      1.34915e+8 
           6670      1.31566e+8 
           6690      1.30301e+8 
           6710      1.30756e+8 
           6730      1.29256e+8 
           6750      1.28028e+8 
           6770      1.26664e+8 
           6790      1.24587e+8 
           6810      1.23824e+8 
           6830       1.2243e+8 
           6850      1.21298e+8 
           6870      1.20011e+8 
           6890      1.18704e+8 
           6910      1.17418e+8 
           6930      1.16122e+8 
           6950      1.15041e+8 
           6970      1.13839e+8 
           6990      1.12618e+8 
           7010      1.11401e+8 
           7030       1.1025e+8 
           7050      1.09072e+8 
           7070      1.05916e+8 
           7090      1.06923e+8 
           7110      1.05696e+8 
           7130      1.04644e+8 
           7150      1.03559e+8 
           7170      1.02557e+8 
           7190      1.01557e+8 
           7210      1.00531e+8 
           7230      9.82383e+7 
           7250      9.83636e+7 
           7270      9.75023e+7 
           7290      9.56283e+7 
           7310      9.55358e+7 
           7330      9.45945e+7 
           7350       9.3662e+7 
           7370      9.27312e+7 
           7390      9.18092e+7 
           7410      9.09026e+7 
           7430      8.98543e+7 
           7450      8.90738e+7 
           7470      8.80034e+7 
           7490      8.72856e+7 
           7510      8.64673e+7 
           7530      8.56165e+7 
           7550      8.48331e+7 
           7570      8.40239e+7 
           7590      8.31827e+7 
           7610      8.23753e+7 
           7630      8.16075e+7 
           7650      8.08273e+7 
           7670      8.00477e+7 
           7690      7.92815e+7 
           7710      7.85285e+7 
           7730       7.7757e+7 
           7750      7.70425e+7 
           7770      7.56293e+7 
           7790      7.55891e+7 
           7810      7.48381e+7 
           7830      7.41797e+7 
           7850      7.32765e+7 
           7870      7.26369e+7 
           7890      7.17426e+7 
           7910      7.14585e+7 
           7930       7.0823e+7 
           7950      6.98948e+7 
           7970      6.94022e+7 
           7990      6.84532e+7 
           8010      6.81118e+7 
           8030       6.7475e+7 
           8050      6.68262e+7 
           8070      6.62408e+7 
           8090      6.55799e+7 
           8110      6.49303e+7 
           8130      6.44517e+7 
           8150      6.38635e+7 
           8170      6.33367e+7 
           8190      6.26515e+7 
           8210      6.19945e+7 
           8230      6.13765e+7 
           8250      6.11236e+7 
           8270      6.02389e+7 
           8290      6.00308e+7 
           8310      5.95022e+7 
           8330      5.89888e+7 
           8350      5.81986e+7 
           8370      5.78186e+7 
           8390      5.74577e+7 
           8410      5.69557e+7 
           8430      5.64101e+7 
           8450      5.52781e+7 
           8470       5.5448e+7 
           8490      5.47846e+7 
           8510      5.44025e+7 
           8530      5.38474e+7 
           8550      5.31887e+7 
           8570      5.31972e+7 
           8590      5.15866e+7 
