# Kurucz ODFNEW /NOVER (2003)
# teff = 24000 K (value for the effective temperature for the model. Temperatures are given in K)
# logg = 3 log(cm/s2) (value for Log(G) for the model.)
# meta = -1.5  (value for the Metallicity for the model.)
# lh = 1.25  (l/Hp where l is the  mixing length of the convective element and Hp is the pressure scale height)
# vtur = 2 km/s (Microturbulence velocity)
# alpha = 0.4  (Alpha)
#
# column 1: WAVELENGTH (ANGSTROM), Wavelength in Angstrom
# column 2: FLUX (ERG/CM2/S/A), Flux in erg/cm2/s/A
          147.2     1.03525e-14 
            151     4.97691e-14 
          155.2     2.57784e-13 
          158.8     9.84048e-13 
            162     3.07769e-12 
            166     1.20181e-11 
          170.3     4.82919e-11 
          173.4     1.26021e-10 
          176.8     3.46813e-10 
          180.2     9.17645e-10 
          181.7      1.39281e-9 
          186.1      4.55677e-9 
            191      1.59713e-8 
          193.9      3.25334e-8 
          198.4      9.40652e-8 
          201.8      2.03161e-7 
            205      4.09396e-7 
          210.5      1.29708e-6 
          216.2      4.02436e-6 
          219.8      7.97485e-6 
            223       1.4371e-5 
          226.8       2.8293e-5 
            230      0.00418611 
            234       0.0102335 
            240       0.0238262 
          246.5       0.0575303 
          252.4        0.123913 
          256.8        0.188895 
            260        0.310217 
            264        0.478279 
          268.5        0.795868 
          273.5         1.35382 
          278.5         2.25774 
            284         3.99878 
            290         6.99525 
            296         11.9594 
            301         17.9685 
            308         30.1752 
            318         74.0092 
            328         150.949 
            338         307.586 
            348         586.416 
            357          1179.8 
            366         2042.49 
            375          3237.8 
            385         5454.03 
            395         8881.66 
            405         13922.4 
            414         20748.5 
            422         28279.5 
            430         38895.4 
            441           58853 
            451         84621.1 
            460          113808 
            470          158295 
            480          214788 
            490          289553 
            500          386238 
            506      3.32093e+6 
            512      1.01361e+7 
            520      1.14763e+7 
            530      1.40807e+7 
            540       1.4533e+7 
            550      1.96211e+7 
            560      2.25954e+7 
            570      2.64801e+7 
            580      2.59769e+7 
            590      3.29587e+7 
            600      3.74532e+7 
            610      4.30217e+7 
            620      4.77008e+7 
            630      5.32433e+7 
            640       5.6228e+7 
            650      6.14519e+7 
            658      6.95076e+7 
            665      7.43884e+7 
            675      7.79703e+7 
            685      8.33465e+7 
            695      9.71334e+7 
            705      1.01401e+8 
            716      1.14006e+8 
            726      1.20536e+8 
            735      1.28781e+8 
            745      1.41936e+8 
            755      1.51802e+8 
            765      1.62685e+8 
            775       1.7516e+8 
            785      1.88094e+8 
            795      1.97841e+8 
            805      2.09734e+8 
            815      2.18616e+8 
            825      2.34891e+8 
            835      2.30963e+8 
            845      2.55713e+8 
            855      2.68216e+8 
            865      2.83681e+8 
            875      3.00744e+8 
            885      3.18464e+8 
            895      3.33571e+8 
            905      3.43342e+8 
            915      7.55236e+8 
            925       8.6153e+9 
            935     1.44103e+10 
            945     2.00602e+10 
            955      2.1347e+10 
            965     2.31404e+10 
            975     1.18861e+10 
            985     2.14779e+10 
            995      2.0449e+10 
           1005     2.13153e+10 
           1015     2.11493e+10 
           1025     1.58509e+10 
           1035     1.93505e+10 
           1045     2.25532e+10 
           1055     2.16593e+10 
           1065     1.95156e+10 
           1075     2.07053e+10 
           1085     1.94419e+10 
           1095     2.08007e+10 
           1105     1.96423e+10 
           1115     1.94521e+10 
           1125     1.77172e+10 
           1135      1.9516e+10 
           1145     1.82324e+10 
           1155     1.87373e+10 
           1165     1.87037e+10 
           1175     1.51478e+10 
           1185      1.7925e+10 
           1195     1.70504e+10 
           1205     1.43188e+10 
           1215     1.17054e+10 
           1225     1.65335e+10 
           1235      1.6898e+10 
           1245     1.65301e+10 
           1255     1.63469e+10 
           1265      1.6126e+10 
           1275     1.61961e+10 
           1285     1.58942e+10 
           1295     1.38914e+10 
           1305      1.4387e+10 
           1315     1.52043e+10 
           1325     1.47235e+10 
           1335     1.42499e+10 
           1345     1.42474e+10 
           1355     1.43365e+10 
           1365     1.37824e+10 
           1375     1.35988e+10 
           1385     1.34862e+10 
           1395     1.15377e+10 
           1405     1.19058e+10 
           1415     1.27502e+10 
           1425     1.24251e+10 
           1435     1.24697e+10 
           1442     1.25172e+10 
           1447      1.2358e+10 
           1455     1.21335e+10 
           1465     1.18706e+10 
           1475     1.17315e+10 
           1485     1.15732e+10 
           1495     1.13383e+10 
           1505     1.09254e+10 
           1512     1.06852e+10 
           1517     1.07362e+10 
           1525     1.06117e+10 
           1535       9.9253e+9 
           1545      9.84205e+9 
           1555       9.5219e+9 
           1565      9.75992e+9 
           1575      9.85871e+9 
           1585       9.7335e+9 
           1595      9.65671e+9 
           1605      9.27073e+9 
           1615      9.10197e+9 
           1625      9.07218e+9 
           1635      9.11149e+9 
           1645      8.86225e+9 
           1655      8.89824e+9 
           1665      8.76667e+9 
           1672      8.62577e+9 
           1677      8.85345e+9 
           1685      8.67351e+9 
           1695      8.45634e+9 
           1705       8.2596e+9 
           1715      8.01485e+9 
           1725      7.92687e+9 
           1735       7.9315e+9 
           1745      7.80547e+9 
           1755      7.76839e+9 
           1765      7.56283e+9 
           1775      7.40802e+9 
           1785      7.37586e+9 
           1795      7.35821e+9 
           1805      7.32767e+9 
           1815      7.05833e+9 
           1825      7.04114e+9 
           1835      6.94268e+9 
           1845      6.53793e+9 
           1855      6.47092e+9 
           1865      6.52053e+9 
           1875      6.53989e+9 
           1885      6.13395e+9 
           1895      5.85023e+9 
           1905      6.09147e+9 
           1915      5.87002e+9 
           1925      5.70753e+9 
           1935      5.84771e+9 
           1945      5.87925e+9 
           1955       5.5065e+9 
           1967      5.67301e+9 
           1976      5.78904e+9 
           1984      5.52233e+9 
           1995      5.36997e+9 
           2005      5.43124e+9 
           2015      5.44325e+9 
           2025      5.45458e+9 
           2035      5.22198e+9 
           2045      5.17293e+9 
           2055      4.90539e+9 
           2065      4.88132e+9 
           2074       5.0397e+9 
           2078       4.8658e+9 
           2085      4.93371e+9 
           2095      4.79317e+9 
           2105      4.84857e+9 
           2115      4.82245e+9 
           2125      4.82364e+9 
           2135      4.74616e+9 
           2145      4.61964e+9 
           2155      4.63381e+9 
           2165      4.58403e+9 
           2175      4.51729e+9 
           2185       4.4638e+9 
           2195      4.43198e+9 
           2205       4.3749e+9 
           2215      4.32067e+9 
           2225      4.25453e+9 
           2235      4.19158e+9 
           2245      4.16456e+9 
           2255      4.09555e+9 
           2265      4.06277e+9 
           2275      4.01469e+9 
           2285       3.9683e+9 
           2295      3.82929e+9 
           2305      3.86442e+9 
           2315       3.8091e+9 
           2325      3.76491e+9 
           2335      3.70329e+9 
           2345      3.68041e+9 
           2355      3.64086e+9 
           2365      3.59788e+9 
           2375      3.54794e+9 
           2385      3.50295e+9 
           2395      3.46194e+9 
           2405      3.42481e+9 
           2415      3.37467e+9 
           2425      3.34703e+9 
           2435      3.29672e+9 
           2445      3.26464e+9 
           2455      3.23103e+9 
           2465      3.19322e+9 
           2475      3.15246e+9 
           2485      3.11365e+9 
           2495       2.8612e+9 
           2505      3.03442e+9 
           2513      2.97462e+9 
           2518      2.98219e+9 
           2525      2.97182e+9 
           2535       2.9401e+9 
           2545      2.87103e+9 
           2555      2.86043e+9 
           2565       2.8313e+9 
           2575      2.80799e+9 
           2585      2.77554e+9 
           2595      2.74473e+9 
           2605      2.72698e+9 
           2615      2.69509e+9 
           2625      2.66382e+9 
           2635      2.62953e+9 
           2645      2.60134e+9 
           2655      2.57147e+9 
           2665      2.53661e+9 
           2675      2.50931e+9 
           2685        2.494e+9 
           2695      2.44689e+9 
           2705      2.43455e+9 
           2715      2.40959e+9 
           2725      2.36886e+9 
           2735      2.35338e+9 
           2745      2.32907e+9 
           2755      2.30504e+9 
           2765      2.26534e+9 
           2775      2.25829e+9 
           2785      2.23156e+9 
           2795      2.17699e+9 
           2805      2.17313e+9 
           2815      2.16214e+9 
           2825      2.12425e+9 
           2835      2.09935e+9 
           2845       2.0936e+9 
           2855      2.06875e+9 
           2865      2.04809e+9 
           2875      2.02671e+9 
           2885      2.00644e+9 
           2895      1.98415e+9 
           2910      1.95151e+9 
           2930      1.91162e+9 
           2950      1.86202e+9 
           2970      1.83387e+9 
           2990      1.79564e+9 
           3010      1.75589e+9 
           3030      1.72368e+9 
           3050      1.68997e+9 
           3070      1.65675e+9 
           3090      1.61367e+9 
           3110      1.59061e+9 
           3130      1.55896e+9 
           3150      1.52826e+9 
           3170      1.49816e+9 
           3190      1.45974e+9 
           3210       1.4404e+9 
           3230      1.41186e+9 
           3250      1.38551e+9 
           3270      1.35998e+9 
           3290      1.33243e+9 
           3310      1.30926e+9 
           3330      1.28406e+9 
           3350      1.25837e+9 
           3370      1.23655e+9 
           3390      1.21413e+9 
           3410      1.19186e+9 
           3430      1.16485e+9 
           3450      1.13983e+9 
           3470      1.12184e+9 
           3490        1.102e+9 
           3510      1.08725e+9 
           3530      1.06855e+9 
           3550      1.04943e+9 
           3570      1.03443e+9 
           3590      1.01071e+9 
           3610      9.93995e+8 
           3630      9.75581e+8 
           3640       9.7256e+8 
           3650      9.52336e+8 
           3670      9.39075e+8 
           3690      9.09224e+8 
           3710      8.99064e+8 
           3730      8.91561e+8 
           3750       9.5414e+8 
           3770      9.46456e+8 
           3790      9.55272e+8 
           3810      9.77969e+8 
           3830      8.92019e+8 
           3850       9.7191e+8 
           3870      9.53086e+8 
           3890      8.55553e+8 
           3910      9.31665e+8 
           3930      9.09108e+8 
           3950       8.9978e+8 
           3970      7.93764e+8 
           3990      8.70022e+8 
           4010      8.53727e+8 
           4030      8.25813e+8 
           4050      8.30332e+8 
           4070      8.11093e+8 
           4090      7.85682e+8 
           4110      7.19756e+8 
           4130      7.69145e+8 
           4150      7.58818e+8 
           4170      7.50777e+8 
           4190      7.39292e+8 
           4210      7.28501e+8 
           4230       7.1687e+8 
           4250      7.04028e+8 
           4270      6.90712e+8 
           4290      6.81544e+8 
           4310      6.69961e+8 
           4330       6.4319e+8 
           4350      5.97212e+8 
           4370      6.39163e+8 
           4390      6.23657e+8 
           4410      6.19485e+8 
           4430      6.10353e+8 
           4450      6.02253e+8 
           4470      5.81152e+8 
           4490      5.83778e+8 
           4510      5.75723e+8 
           4530      5.67034e+8 
           4550      5.57583e+8 
           4570      5.48799e+8 
           4590      5.40826e+8 
           4610      5.33219e+8 
           4630      5.25547e+8 
           4650      5.13544e+8 
           4670      5.09189e+8 
           4690       5.0191e+8 
           4710      4.89335e+8 
           4730      4.88152e+8 
           4750      4.80627e+8 
           4770      4.74585e+8 
           4790      4.67692e+8 
           4810      4.60716e+8 
           4830      4.53615e+8 
           4850      4.39183e+8 
           4870      4.03814e+8 
           4890      4.34753e+8 
           4910      4.28905e+8 
           4930      4.17357e+8 
           4950      4.16466e+8 
           4970      4.11291e+8 
           4990       4.0552e+8 
           5010      3.95849e+8 
           5030      3.94316e+8 
           5050      3.87018e+8 
           5070      3.83546e+8 
           5090       3.7824e+8 
           5110      3.73063e+8 
           5130      3.67913e+8 
           5150      3.62902e+8 
           5170      3.58027e+8 
           5190      3.53273e+8 
           5210      3.48443e+8 
           5230      3.43869e+8 
           5250      3.39272e+8 
           5270      3.34735e+8 
           5290       3.3031e+8 
           5310      3.25929e+8 
           5330      3.21645e+8 
           5350      3.17389e+8 
           5370      3.13278e+8 
           5390      3.09129e+8 
           5410      3.05059e+8 
           5430      3.01167e+8 
           5450      2.97261e+8 
           5470      2.93442e+8 
           5490      2.89683e+8 
           5510      2.85983e+8 
           5530      2.82329e+8 
           5550      2.78745e+8 
           5570      2.75192e+8 
           5590       2.7172e+8 
           5610      2.68278e+8 
           5630      2.64925e+8 
           5650      2.61542e+8 
           5670      2.58189e+8 
           5690      2.54829e+8 
           5710       2.5188e+8 
           5730      2.48794e+8 
           5750      2.45516e+8 
           5770      2.42731e+8 
           5790      2.39731e+8 
           5810      2.36811e+8 
           5830      2.33892e+8 
           5850      2.31074e+8 
           5870      2.23521e+8 
           5890      2.25383e+8 
           5910      2.22771e+8 
           5930       2.2006e+8 
           5950      2.17413e+8 
           5970      2.14891e+8 
           5990      2.12282e+8 
           6010      2.09798e+8 
           6030      2.07289e+8 
           6050      2.04861e+8 
           6070       2.0246e+8 
           6090      2.00086e+8 
           6110      1.97749e+8 
           6130      1.95438e+8 
           6150      1.93123e+8 
           6170      1.90904e+8 
           6190      1.88708e+8 
           6210      1.86537e+8 
           6230       1.8439e+8 
           6250      1.82267e+8 
           6270      1.80186e+8 
           6290      1.78128e+8 
           6310      1.76092e+8 
           6330      1.74107e+8 
           6350      1.72096e+8 
           6370      1.70182e+8 
           6390      1.68269e+8 
           6410      1.66387e+8 
           6430      1.64533e+8 
           6450       1.6269e+8 
           6470      1.60858e+8 
           6490      1.59072e+8 
           6510      1.57332e+8 
           6530      1.55565e+8 
           6550      1.52211e+8 
           6570      1.39241e+8 
           6590      1.50065e+8 
           6610      1.48874e+8 
           6630      1.47266e+8 
           6650      1.45717e+8 
           6670       1.4321e+8 
           6690      1.41681e+8 
           6710      1.41064e+8 
           6730      1.39503e+8 
           6750      1.38066e+8 
           6770      1.36586e+8 
           6790      1.35088e+8 
           6810      1.33686e+8 
           6830      1.32266e+8 
           6850      1.30877e+8 
           6870      1.29501e+8 
           6890      1.28116e+8 
           6910      1.26768e+8 
           6930      1.25456e+8 
           6950      1.24158e+8 
           6970      1.22865e+8 
           6990      1.21577e+8 
           7010      1.20332e+8 
           7030      1.19085e+8 
           7050      1.17864e+8 
           7070       1.1505e+8 
           7090      1.15459e+8 
           7110      1.14266e+8 
           7130      1.13107e+8 
           7150       1.1196e+8 
           7170      1.10808e+8 
           7190      1.09704e+8 
           7210      1.08596e+8 
           7230      1.07233e+8 
           7250      1.06391e+8 
           7270      1.05357e+8 
           7290      1.03568e+8 
           7310      1.03249e+8 
           7330      1.02237e+8 
           7350      1.01221e+8 
           7370      1.00222e+8 
           7390      9.92317e+7 
           7410      9.82577e+7 
           7430      9.72858e+7 
           7450      9.63501e+7 
           7470      9.53623e+7 
           7490      9.44709e+7 
           7510      9.35276e+7 
           7530      9.26461e+7 
           7550      9.17527e+7 
           7570      9.08675e+7 
           7590      8.99904e+7 
           7610      8.91146e+7 
           7630      8.82728e+7 
           7650      8.74256e+7 
           7670      8.65924e+7 
           7690      8.57667e+7 
           7710      8.49421e+7 
           7730      8.41437e+7 
           7750      8.33462e+7 
           7770       8.2537e+7 
           7790      8.17909e+7 
           7810      8.09649e+7 
           7830      8.02631e+7 
           7850      7.95734e+7 
           7870      7.88167e+7 
           7890      7.80424e+7 
           7910      7.73773e+7 
           7930      7.65861e+7 
           7950      7.58019e+7 
           7970      7.50601e+7 
           7990      7.44429e+7 
           8010      7.37134e+7 
           8030      7.30779e+7 
           8050      7.24479e+7 
           8070      7.18115e+7 
           8090       7.1031e+7 
           8110      7.03832e+7 
           8130      6.99005e+7 
           8150      6.91325e+7 
           8170       6.8659e+7 
           8190      6.79759e+7 
           8210      6.71029e+7 
           8230      6.66771e+7 
           8250      6.61051e+7 
           8270      6.51854e+7 
           8290      6.48438e+7 
           8310      6.42866e+7 
           8330      6.37068e+7 
           8350      6.28886e+7 
           8370      6.24003e+7 
           8390      6.19158e+7 
           8410      6.13287e+7 
           8430      6.07518e+7 
           8450      5.99844e+7 
           8470      5.93234e+7 
           8490      5.94623e+7 
           8510      5.80179e+7 
           8530      5.86989e+7 
           8550      5.62756e+7 
           8570      5.84394e+7 
