# Kurucz ODFNEW /NOVER (2003)
# teff = 21000 K (value for the effective temperature for the model. Temperatures are given in K)
# logg = 4.5 log(cm/s2) (value for Log(G) for the model.)
# meta = 0.2  (value for the Metallicity for the model.)
# lh = 1.25  (l/Hp where l is the  mixing length of the convective element and Hp is the pressure scale height)
# vtur = 2 km/s (Microturbulence velocity)
# alpha = 0.4  (Alpha)
#
# column 1: WAVELENGTH (ANGSTROM), Wavelength in Angstrom
# column 2: FLUX (ERG/CM2/S/A), Flux in erg/cm2/s/A
          147.2     4.61735e-18 
            151     2.43442e-17 
          155.2     1.39277e-16 
          158.8     5.77671e-16 
            162     1.94336e-15 
            166     8.30402e-15 
          170.3     3.65778e-14 
          173.4       1.026e-13 
          176.8     3.04088e-13 
          180.2     8.65948e-13 
          181.7     1.35641e-12 
          186.1     4.87745e-12 
            191     1.90022e-11 
          193.9     4.10916e-11 
          198.4     1.30296e-10 
          201.8     3.01859e-10 
            205      6.4975e-10 
          210.5      2.30117e-9 
          216.2      7.99408e-9 
          219.8      1.70055e-8 
            223      3.25957e-8 
          226.8      6.90096e-8 
            230       5.8987e-7 
            234      1.45302e-6 
            240      4.14991e-6 
          246.5      1.21081e-5 
          252.4      3.07146e-5 
          256.8      5.84292e-5 
            260      9.56425e-5 
            264     0.000168733 
          268.5     0.000312918 
          273.5      0.00060426 
          278.5      0.00115041 
            284      0.00231584 
            290      0.00469366 
            296      0.00923549 
            301       0.0159206 
            308       0.0333983 
            318       0.0914628 
            328        0.226586 
            338         0.55284 
            348          1.2548 
            357         2.96124 
            366         5.84432 
            375         10.6789 
            385         20.5344 
            395         38.1715 
            405         68.2373 
            414         113.413 
            422         171.414 
            430          258.76 
            441         443.151 
            451         707.522 
            460         1047.08 
            470         1604.01 
            480         2397.73 
            490          3543.7 
            500         5149.89 
            506         40074.8 
            512          291158 
            520          361097 
            530          497111 
            540          564073 
            550          840648 
            560      1.01705e+6 
            570      1.31444e+6 
            580      1.36156e+6 
            590      1.88527e+6 
            600      2.29878e+6 
            610      2.86339e+6 
            620      3.26149e+6 
            630      3.76701e+6 
            640      3.92062e+6 
            650      3.44861e+6 
            658      5.11168e+6 
            665      5.93064e+6 
            675      6.63325e+6 
            685      7.33973e+6 
            695       9.0777e+6 
            705      9.87633e+6 
            716      1.14072e+7 
            726      1.24353e+7 
            735      1.35817e+7 
            745      1.56088e+7 
            755      1.73559e+7 
            765      1.92399e+7 
            775      2.13785e+7 
            785      2.34997e+7 
            795      2.51058e+7 
            805      2.71706e+7 
            815      2.92246e+7 
            825      3.22771e+7 
            835      3.19258e+7 
            845      3.61051e+7 
            855      3.87297e+7 
            865      4.20295e+7 
            875       4.5488e+7 
            885      5.00093e+7 
            895      5.35071e+7 
            905      5.40882e+7 
            915      8.13013e+7 
            925      3.75094e+8 
            935      1.02333e+9 
            945       3.0783e+9 
            955      5.66772e+9 
            965      7.73626e+9 
            975      1.21695e+9 
            985      8.57657e+9 
            995      8.19689e+9 
           1005     1.03852e+10 
           1015      9.59243e+9 
           1025      2.33204e+9 
           1035      6.32955e+9 
           1045     1.35306e+10 
           1055     1.28034e+10 
           1065      9.34961e+9 
           1075     1.19448e+10 
           1085     1.06994e+10 
           1095     1.24525e+10 
           1105     1.01126e+10 
           1115      8.83563e+9 
           1125      8.16042e+9 
           1135     1.15982e+10 
           1145      9.50196e+9 
           1155     1.05736e+10 
           1165     1.09522e+10 
           1175      7.32189e+9 
           1185     1.09537e+10 
           1195      7.01396e+9 
           1205      3.08825e+9 
           1215      2.10801e+9 
           1225      5.88533e+9 
           1235     1.01727e+10 
           1245     1.06333e+10 
           1255     1.02878e+10 
           1265      9.61985e+9 
           1275     1.01775e+10 
           1285     1.05926e+10 
           1295      5.48013e+9 
           1305      5.01266e+9 
           1315      9.87495e+9 
           1325      9.25115e+9 
           1335      8.46329e+9 
           1345      9.23672e+9 
           1355      9.10417e+9 
           1365      7.79208e+9 
           1375      7.83757e+9 
           1385      7.86365e+9 
           1395        5.949e+9 
           1405      6.50432e+9 
           1415      6.92111e+9 
           1425      7.21614e+9 
           1435      7.28587e+9 
           1442      7.71463e+9 
           1447      7.58691e+9 
           1455      7.36669e+9 
           1465      6.78621e+9 
           1475      6.78715e+9 
           1485      6.59679e+9 
           1495      6.60525e+9 
           1505      5.86644e+9 
           1512      5.33271e+9 
           1517      5.62437e+9 
           1525      5.81741e+9 
           1535      5.05195e+9 
           1545      5.12785e+9 
           1555      4.90055e+9 
           1565      5.08823e+9 
           1575      5.43143e+9 
           1585       5.4333e+9 
           1595      5.47318e+9 
           1605      5.49206e+9 
           1615      5.47409e+9 
           1625      5.24643e+9 
           1635      5.55604e+9 
           1645      5.53046e+9 
           1655      5.22534e+9 
           1665      5.57601e+9 
           1672      5.35747e+9 
           1677      5.55464e+9 
           1685      5.58256e+9 
           1695      5.25096e+9 
           1705      4.98725e+9 
           1715      4.68064e+9 
           1725      4.62539e+9 
           1735      4.87096e+9 
           1745      4.70048e+9 
           1755      4.80069e+9 
           1765      4.53736e+9 
           1775      4.42061e+9 
           1785      4.45221e+9 
           1795      4.70885e+9 
           1805      4.72018e+9 
           1815      4.18434e+9 
           1825       4.4017e+9 
           1835      4.15896e+9 
           1845      3.81065e+9 
           1855      3.72807e+9 
           1865      3.78839e+9 
           1875       4.1091e+9 
           1885        3.664e+9 
           1895      3.42222e+9 
           1905      3.73052e+9 
           1915      3.46936e+9 
           1925      3.34658e+9 
           1935      3.52207e+9 
           1945      3.54201e+9 
           1955      3.25866e+9 
           1967      3.57169e+9 
           1976      3.71686e+9 
           1984      3.41944e+9 
           1995      3.34814e+9 
           2005      3.47264e+9 
           2015      3.31077e+9 
           2025      3.53814e+9 
           2035      3.22427e+9 
           2045      3.29325e+9 
           2055      3.15664e+9 
           2065      3.20442e+9 
           2074       3.3217e+9 
           2078      3.04955e+9 
           2085      3.20962e+9 
           2095      3.01047e+9 
           2105      3.09374e+9 
           2115      3.09757e+9 
           2125      3.13798e+9 
           2135      3.03484e+9 
           2145      2.92162e+9 
           2155      3.04286e+9 
           2165      3.00292e+9 
           2175       2.9608e+9 
           2185      2.86085e+9 
           2195      2.90779e+9 
           2205      2.85846e+9 
           2215      2.79601e+9 
           2225      2.69187e+9 
           2235      2.73043e+9 
           2245      2.72507e+9 
           2255      2.60783e+9 
           2265      2.67562e+9 
           2275      2.65273e+9 
           2285      2.65828e+9 
           2295      2.50763e+9 
           2305      2.53258e+9 
           2315      2.45057e+9 
           2325      2.41581e+9 
           2335      2.30105e+9 
           2345       2.2977e+9 
           2355      2.30493e+9 
           2365      2.24641e+9 
           2375      2.24724e+9 
           2385      2.20022e+9 
           2395      2.24132e+9 
           2405      2.15381e+9 
           2415       2.1623e+9 
           2425        2.175e+9 
           2435      2.08817e+9 
           2445      2.11687e+9 
           2455      2.10829e+9 
           2465      2.06691e+9 
           2475      2.02921e+9 
           2485        2.045e+9 
           2495      1.92364e+9 
           2505      2.00119e+9 
           2513      1.89911e+9 
           2518      1.97131e+9 
           2525      1.90763e+9 
           2535      1.88845e+9 
           2545      1.81076e+9 
           2555      1.86933e+9 
           2565      1.84236e+9 
           2575      1.87284e+9 
           2585      1.86346e+9 
           2595      1.84963e+9 
           2605      1.82202e+9 
           2615      1.80535e+9 
           2625      1.78906e+9 
           2635      1.77914e+9 
           2645      1.78784e+9 
           2655      1.77654e+9 
           2665      1.70366e+9 
           2675      1.72622e+9 
           2685      1.71308e+9 
           2695      1.66397e+9 
           2705      1.65463e+9 
           2715      1.63515e+9 
           2725      1.61085e+9 
           2735      1.62422e+9 
           2745      1.55181e+9 
           2755      1.55094e+9 
           2765      1.54531e+9 
           2775      1.56526e+9 
           2785      1.54199e+9 
           2795      1.45854e+9 
           2805      1.49695e+9 
           2815      1.50626e+9 
           2825      1.47975e+9 
           2835      1.41754e+9 
           2845      1.42816e+9 
           2855      1.42381e+9 
           2865      1.43294e+9 
           2875      1.41027e+9 
           2885      1.39874e+9 
           2895      1.38447e+9 
           2910      1.36307e+9 
           2930       1.3343e+9 
           2950      1.29891e+9 
           2970      1.28669e+9 
           2990      1.25541e+9 
           3010      1.23093e+9 
           3030      1.22015e+9 
           3050      1.19484e+9 
           3070      1.17389e+9 
           3090      1.14016e+9 
           3110      1.12492e+9 
           3130      1.10597e+9 
           3150      1.08567e+9 
           3170      1.06096e+9 
           3190      1.03074e+9 
           3210      1.02305e+9 
           3230      1.00461e+9 
           3250      9.89002e+8 
           3270       9.7148e+8 
           3290      9.53057e+8 
           3310       9.3817e+8 
           3330      9.19698e+8 
           3350      9.01398e+8 
           3370      8.86385e+8 
           3390       8.7222e+8 
           3410      8.57613e+8 
           3430      8.38642e+8 
           3450      8.21098e+8 
           3470      8.08187e+8 
           3490      7.93847e+8 
           3510      7.81952e+8 
           3530      7.70788e+8 
           3550      7.57943e+8 
           3570      7.49179e+8 
           3590      7.28227e+8 
           3610      7.17781e+8 
           3630       7.0692e+8 
           3640      7.06737e+8 
           3650      6.98233e+8 
           3670      6.90419e+8 
           3690      6.78031e+8 
           3710       6.5273e+8 
           3730       6.2387e+8 
           3750      6.48711e+8 
           3770      6.47068e+8 
           3790      6.94023e+8 
           3810      7.30564e+8 
           3830       6.2626e+8 
           3850      7.54984e+8 
           3870      7.71524e+8 
           3890      5.88219e+8 
           3910      7.72478e+8 
           3930         7.51e+8 
           3950      7.44887e+8 
           3970       5.4821e+8 
           3990      7.10007e+8 
           4010      7.20092e+8 
           4030      6.67637e+8 
           4050      7.03871e+8 
           4070      6.72272e+8 
           4090      6.08961e+8 
           4110      5.24657e+8 
           4130      6.32826e+8 
           4150      6.33522e+8 
           4170      6.32724e+8 
           4190        6.276e+8 
           4210       6.2231e+8 
           4230      6.09512e+8 
           4250      5.94591e+8 
           4270      5.74116e+8 
           4290      5.72767e+8 
           4310      5.56472e+8 
           4330      4.89255e+8 
           4350      4.42161e+8 
           4370      5.26461e+8 
           4390      5.12859e+8 
           4410      5.21138e+8 
           4430      5.13142e+8 
           4450      5.09301e+8 
           4470      4.74152e+8 
           4490      4.88139e+8 
           4510      4.89394e+8 
           4530      4.78804e+8 
           4550      4.72711e+8 
           4570      4.65751e+8 
           4590      4.58339e+8 
           4610      4.49354e+8 
           4630      4.41614e+8 
           4650      4.32387e+8 
           4670      4.29918e+8 
           4690      4.26362e+8 
           4710      4.06888e+8 
           4730      4.08943e+8 
           4750      4.02969e+8 
           4770      4.03107e+8 
           4790      3.95216e+8 
           4810      3.84951e+8 
           4830       3.7636e+8 
           4850      3.39229e+8 
           4870       2.9885e+8 
           4890      3.60453e+8 
           4910      3.59163e+8 
           4930      3.44119e+8 
           4950      3.51076e+8 
           4970      3.48226e+8 
           4990      3.42338e+8 
           5010      3.26808e+8 
           5030      3.31138e+8 
           5050      3.20469e+8 
           5070      3.23691e+8 
           5090      3.18404e+8 
           5110       3.1293e+8 
           5130      3.06744e+8 
           5150      3.02861e+8 
           5170       3.0141e+8 
           5190      2.97036e+8 
           5210      2.89208e+8 
           5230      2.89521e+8 
           5250      2.85761e+8 
           5270      2.81059e+8 
           5290      2.78575e+8 
           5310      2.74516e+8 
           5330      2.69861e+8 
           5350      2.65451e+8 
           5370      2.63961e+8 
           5390      2.60398e+8 
           5410      2.56481e+8 
           5430      2.52231e+8 
           5450      2.49242e+8 
           5470      2.45408e+8 
           5490      2.43748e+8 
           5510      2.40431e+8 
           5530      2.37069e+8 
           5550      2.34471e+8 
           5570      2.31138e+8 
           5590      2.28704e+8 
           5610      2.25185e+8 
           5630      2.23231e+8 
           5650      2.17299e+8 
           5670      2.14679e+8 
           5690      2.13137e+8 
           5710      2.11543e+8 
           5730      2.09288e+8 
           5750      2.06308e+8 
           5770      2.04337e+8 
           5790      2.01759e+8 
           5810         1.99e+8 
           5830      1.96462e+8 
           5850       1.9424e+8 
           5870      1.84894e+8 
           5890      1.87539e+8 
           5910      1.86811e+8 
           5930      1.84792e+8 
           5950      1.81552e+8 
           5970      1.80675e+8 
           5990      1.77854e+8 
           6010      1.76516e+8 
           6030      1.74218e+8 
           6050      1.72254e+8 
           6070      1.70242e+8 
           6090      1.68008e+8 
           6110      1.66295e+8 
           6130      1.64439e+8 
           6150      1.61001e+8 
           6170      1.60266e+8 
           6190       1.5872e+8 
           6210       1.5685e+8 
           6230      1.55058e+8 
           6250      1.52572e+8 
           6270      1.51256e+8 
           6290      1.49572e+8 
           6310      1.47565e+8 
           6330      1.46305e+8 
           6350      1.43414e+8 
           6370      1.42375e+8 
           6390      1.41162e+8 
           6410       1.3954e+8 
           6430      1.38391e+8 
           6450      1.36583e+8 
           6470       1.3484e+8 
           6490      1.33456e+8 
           6510      1.31588e+8 
           6530      1.29352e+8 
           6550      1.21337e+8 
           6570      1.05788e+8 
           6590      1.23182e+8 
           6610      1.24412e+8 
           6630      1.23594e+8 
           6650      1.22366e+8 
           6670      1.19542e+8 
           6690      1.18407e+8 
           6710      1.18489e+8 
           6730      1.17137e+8 
           6750       1.1608e+8 
           6770      1.14878e+8 
           6790      1.12796e+8 
           6810      1.12257e+8 
           6830       1.1097e+8 
           6850      1.10042e+8 
           6870      1.08876e+8 
           6890      1.07697e+8 
           6910      1.06546e+8 
           6930      1.05288e+8 
           6950       1.0441e+8 
           6970      1.03339e+8 
           6990      1.02209e+8 
           7010      1.01082e+8 
           7030      1.00066e+8 
           7050       9.8968e+7 
           7070      9.62608e+7 
           7090      9.70825e+7 
           7110      9.57322e+7 
           7130      9.47958e+7 
           7150      9.40009e+7 
           7170      9.31401e+7 
           7190      9.22656e+7 
           7210      9.13486e+7 
           7230      8.91142e+7 
           7250      8.93185e+7 
           7270      8.86139e+7 
           7290      8.69799e+7 
           7310      8.68289e+7 
           7330      8.59841e+7 
           7350      8.51682e+7 
           7370      8.43251e+7 
           7390      8.34899e+7 
           7410      8.26693e+7 
           7430      8.16516e+7 
           7450       8.0983e+7 
           7470      7.99693e+7 
           7490      7.93481e+7 
           7510      7.86455e+7 
           7530      7.78695e+7 
           7550      7.71799e+7 
           7570       7.6457e+7 
           7590      7.56557e+7 
           7610      7.49724e+7 
           7630      7.42757e+7 
           7650       7.3566e+7 
           7670       7.2869e+7 
           7690      7.21719e+7 
           7710      7.15001e+7 
           7730      7.07839e+7 
           7750      7.01493e+7 
           7770      6.87029e+7 
           7790       6.8841e+7 
           7810      6.81615e+7 
           7830       6.7568e+7 
           7850      6.66555e+7 
           7870      6.61165e+7 
           7890      6.52613e+7 
           7910      6.50701e+7 
           7930      6.45267e+7 
           7950      6.35527e+7 
           7970      6.32045e+7 
           7990      6.21921e+7 
           8010       6.2064e+7 
           8030      6.14806e+7 
           8050      6.08848e+7 
           8070      6.04041e+7 
           8090      5.97719e+7 
           8110       5.9214e+7 
           8130      5.87577e+7 
           8150      5.82258e+7 
           8170      5.77831e+7 
           8190      5.71249e+7 
           8210      5.64724e+7 
           8230      5.58479e+7 
           8250       5.5749e+7 
           8270      5.49206e+7 
           8290      5.47409e+7 
           8310      5.42382e+7 
           8330      5.38109e+7 
           8350      5.30763e+7 
           8370      5.27133e+7 
           8390      5.24194e+7 
           8410      5.19552e+7 
           8430       5.1436e+7 
           8450      5.03227e+7 
           8470      5.05249e+7 
           8490       4.9914e+7 
           8510      4.94653e+7 
           8530      4.91264e+7 
           8550      4.81099e+7 
           8570      4.87613e+7 
