# Kurucz ODFNEW /NOVER (2003)
# teff = 8000 K (value for the effective temperature for the model. Temperatures are given in K)
# logg = 3 log(cm/s2) (value for Log(G) for the model.)
# meta = -4  (value for the Metallicity for the model.)
# lh = 1.25  (l/Hp where l is the  mixing length of the convective element and Hp is the pressure scale height)
# vtur = 2 km/s (Microturbulence velocity)
# alpha = 0.4  (Alpha)
#
# column 1: WAVELENGTH (ANGSTROM), Wavelength in Angstrom
# column 2: FLUX (ERG/CM2/S/A), Flux in erg/cm2/s/A
          147.2     1.73866e-35 
            151     1.65225e-35 
          155.2     1.56403e-35 
          158.8     1.49392e-35 
            162     1.43549e-35 
            166     1.36714e-35 
          170.3     1.29897e-35 
          173.4     1.25294e-35 
          176.8     1.20522e-35 
          180.2     1.16017e-35 
          181.7     1.14109e-35 
          186.1     1.08777e-35 
            191     1.03267e-35 
          193.9     1.00201e-35 
          198.4     9.57076e-36 
          201.8     9.25097e-36 
            205     8.96441e-36 
          210.5     8.50208e-36 
          216.2     8.05969e-36 
          219.8     7.79784e-36 
            223     7.57565e-36 
          226.8     7.32392e-36 
            230     7.12154e-36 
            234     6.88015e-36 
            240     6.54044e-36 
          246.5     6.20006e-36 
          252.4     5.91358e-36 
          256.8     5.71267e-36 
            260     5.57292e-36 
            264     5.40532e-36 
          268.5     5.22566e-36 
          273.5     5.03634e-36 
          278.5     4.85712e-36 
            284     4.67082e-36 
            290     3.20596e-23 
            296     1.97893e-22 
            301     7.50207e-22 
            308     4.40293e-21 
            318     4.78605e-20 
            328      4.4752e-19 
            338     3.65142e-18 
            348     2.63111e-17 
            357     1.41098e-16 
            366     6.95097e-16 
            375     3.16386e-15 
            385      1.5636e-14 
            395     7.10456e-14 
            405      2.9865e-13 
            414     1.02245e-12 
            422     2.91595e-12 
            430      7.9867e-12 
            441     3.00134e-11 
            451     9.42838e-11 
            460     2.52672e-10 
            470     7.21448e-10 
            480      1.96736e-9 
            490      5.14021e-9 
            500      1.28968e-8 
            506      2.49401e-8 
            512      4.44081e-8 
            520      8.69975e-8 
            530      1.96492e-7 
            540      4.26224e-7 
            550      9.03142e-7 
            560      1.85434e-6 
            570      3.70735e-6 
            580      7.19235e-6 
            590      1.37542e-5 
            600      2.55841e-5 
            610      4.65723e-5 
            620      8.30451e-5 
            630     0.000145187 
            640     0.000249169 
            650     0.000420234 
            658     0.000630661 
            665     0.000891934 
            675        0.001444 
            685      0.00230273 
            695      0.00361946 
            705      0.00561139 
            716      0.00895131 
            726       0.0135067 
            735       0.0193656 
            745       0.0285847 
            755       0.0417252 
            765        0.060258 
            775       0.0861311 
            785        0.121891 
            795        0.170881 
            805          0.2374 
            815        0.326895 
            825        0.446601 
            835         0.60522 
            845        0.813633 
            855         1.08568 
            865         1.43814 
            875         1.89166 
            885         2.47137 
            895         3.20741 
            905         4.13631 
            915         9.67129 
            925         36.3615 
            935         60.7826 
            945         108.637 
            955         167.181 
            965         203.057 
            975         146.971 
            985         431.119 
            995         587.341 
           1005         542.701 
           1015         406.706 
           1025          333.58 
           1035         638.723 
           1045         1197.54 
           1055         2036.19 
           1065         13391.8 
           1075           57522 
           1085          148912 
           1095          172554 
           1105          156153 
           1115         96371.3 
           1125         51861.8 
           1135         27135.9 
           1145         9090.76 
           1155         4601.43 
           1165         3934.05 
           1175         3394.76 
           1185         6968.91 
           1195         4019.17 
           1205         2997.44 
           1215         2026.73 
           1225         3527.73 
           1235         6068.52 
           1245         2672.31 
           1255         8303.94 
           1265         9794.53 
           1275         13138.1 
           1285         24033.5 
           1295         51007.1 
           1305          150628 
           1315          279950 
           1325          522470 
           1335          857998 
           1345      1.29019e+6 
           1355      1.70248e+6 
           1365       2.1954e+6 
           1375      2.14764e+6 
           1385      1.93936e+6 
           1395      1.85565e+6 
           1405      3.38155e+6 
           1415       5.9681e+6 
           1425      6.49742e+6 
           1435      7.22641e+6 
           1442       7.9353e+6 
           1447      7.38486e+6 
           1455      8.59154e+6 
           1465      7.99931e+6 
           1475      8.76566e+6 
           1485      9.08261e+6 
           1495      9.48117e+6 
           1505      1.01001e+7 
           1512      1.03948e+7 
           1517      9.45372e+6 
           1525        9.983e+6 
           1535      9.88133e+6 
           1545       9.0886e+6 
           1555      8.81348e+6 
           1565      7.45022e+6 
           1575      7.11217e+6 
           1585      6.53429e+6 
           1595      6.15274e+6 
           1605      6.10527e+6 
           1615      8.37284e+6 
           1625      1.11547e+7 
           1635      1.39597e+7 
           1645       1.7323e+7 
           1655      1.75434e+7 
           1665      2.07592e+7 
           1672       2.1021e+7 
           1677      2.16755e+7 
           1685       2.2257e+7 
           1695      2.24069e+7 
           1705      2.25025e+7 
           1715      2.30273e+7 
           1725      2.30143e+7 
           1735      2.33793e+7 
           1745      2.30923e+7 
           1755      2.32812e+7 
           1765      2.32419e+7 
           1775         2.33e+7 
           1785      2.31555e+7 
           1795       2.3387e+7 
           1805      2.29967e+7 
           1815      2.30471e+7 
           1825      2.29253e+7 
           1835      2.31382e+7 
           1845      2.28006e+7 
           1855      2.30284e+7 
           1865      2.31244e+7 
           1875      2.30991e+7 
           1885      2.30794e+7 
           1895      2.30631e+7 
           1905      2.29098e+7 
           1915      2.29835e+7 
           1925      2.29914e+7 
           1935      2.26145e+7 
           1945      2.29402e+7 
           1955      2.29023e+7 
           1967      2.28671e+7 
           1976      2.27722e+7 
           1984      2.27095e+7 
           1995      2.27532e+7 
           2005      2.26636e+7 
           2015      2.25626e+7 
           2025      2.24754e+7 
           2035      2.25998e+7 
           2045      2.25577e+7 
           2055      2.22834e+7 
           2065      2.23199e+7 
           2074       2.2504e+7 
           2078      2.24934e+7 
           2085      2.24605e+7 
           2095      2.24303e+7 
           2105      2.24013e+7 
           2115      2.23634e+7 
           2125      2.22611e+7 
           2135      2.22762e+7 
           2145      2.23007e+7 
           2155      2.22524e+7 
           2165      2.20352e+7 
           2175      2.20895e+7 
           2185      2.21774e+7 
           2195      2.22236e+7 
           2205      2.20675e+7 
           2215      2.17719e+7 
           2225       2.1913e+7 
           2235      2.21186e+7 
           2245      2.20483e+7 
           2255      2.18569e+7 
           2265      2.17304e+7 
           2275      2.19081e+7 
           2285      2.19173e+7 
           2295      2.18276e+7 
           2305       2.1901e+7 
           2315      2.18528e+7 
           2325      2.18136e+7 
           2335      2.15733e+7 
           2345      2.10704e+7 
           2355      2.16112e+7 
           2365      2.10867e+7 
           2375      2.14839e+7 
           2385      2.08504e+7 
           2395      2.13696e+7 
           2405       2.1374e+7 
           2415      2.13504e+7 
           2425      2.17365e+7 
           2435      2.16333e+7 
           2445      2.16244e+7 
           2455      2.16948e+7 
           2465      2.15855e+7 
           2475      2.15633e+7 
           2485      2.15115e+7 
           2495      2.13939e+7 
           2505      2.16035e+7 
           2513      2.13886e+7 
           2518      2.13828e+7 
           2525      2.13246e+7 
           2535      2.12488e+7 
           2545       2.1441e+7 
           2555      2.15955e+7 
           2565      2.13524e+7 
           2575      2.14409e+7 
           2585        2.141e+7 
           2595        2.136e+7 
           2605      2.12941e+7 
           2615       2.1239e+7 
           2625      2.12409e+7 
           2635      2.13101e+7 
           2645      2.16635e+7 
           2655      2.16508e+7 
           2665      2.15692e+7 
           2675      2.15831e+7 
           2685      2.16327e+7 
           2695      2.16036e+7 
           2705      2.16085e+7 
           2715      2.14782e+7 
           2725       2.1439e+7 
           2735      2.14689e+7 
           2745      2.10068e+7 
           2755      2.11429e+7 
           2765      2.14086e+7 
           2775      2.15653e+7 
           2785      2.15394e+7 
           2795      2.08136e+7 
           2805      2.11984e+7 
           2815      2.15691e+7 
           2825      2.15592e+7 
           2835      2.14993e+7 
           2845      2.15146e+7 
           2855      2.13456e+7 
           2865      2.14672e+7 
           2875       2.1495e+7 
           2885      2.14607e+7 
           2895      2.15119e+7 
           2910      2.15131e+7 
           2930      2.14346e+7 
           2950      2.14133e+7 
           2970        2.145e+7 
           2990      2.14232e+7 
           3010      2.14326e+7 
           3030      2.14185e+7 
           3050      2.14006e+7 
           3070      2.13569e+7 
           3090      2.13611e+7 
           3110      2.13431e+7 
           3130      2.13185e+7 
           3150      2.12905e+7 
           3170      2.12765e+7 
           3190      2.12197e+7 
           3210      2.12267e+7 
           3230      2.11589e+7 
           3250      2.11742e+7 
           3270      2.11655e+7 
           3290      2.11435e+7 
           3310      2.11174e+7 
           3330      2.10769e+7 
           3350       2.1028e+7 
           3370      2.10064e+7 
           3390      2.09809e+7 
           3410      2.09671e+7 
           3430      2.09344e+7 
           3450      2.09003e+7 
           3470      2.08656e+7 
           3490      2.08319e+7 
           3510      2.07967e+7 
           3530      2.07609e+7 
           3550      2.07235e+7 
           3570      2.06823e+7 
           3590      2.06431e+7 
           3610      2.06032e+7 
           3630      2.05615e+7 
           3640      2.05399e+7 
           3650      2.06215e+7 
           3670      2.04245e+7 
           3690        2.002e+7 
           3710      2.33503e+7 
           3730      2.67953e+7 
           3750      3.63696e+7 
           3770      3.88077e+7 
           3790      4.66974e+7 
           3810      5.49181e+7 
           3830      4.40706e+7 
           3850      6.09401e+7 
           3870      6.85322e+7 
           3890      3.82279e+7 
           3910      6.81006e+7 
           3930      7.27389e+7 
           3950      6.73537e+7 
           3970       3.6968e+7 
           3990      6.40223e+7 
           4010      7.11752e+7 
           4030      7.12638e+7 
           4050       7.0247e+7 
           4070      6.75138e+7 
           4090      5.22752e+7 
           4110      3.99542e+7 
           4130      6.37133e+7 
           4150      6.60581e+7 
           4170      6.58831e+7 
           4190      6.52835e+7 
           4210      6.45606e+7 
           4230      6.37894e+7 
           4250       6.2986e+7 
           4270      6.20833e+7 
           4290      6.08794e+7 
           4310      5.81782e+7 
           4330       4.3888e+7 
           4350      3.72797e+7 
           4370      5.54967e+7 
           4390      5.73419e+7 
           4410      5.72278e+7 
           4430      5.67583e+7 
           4450      5.62112e+7 
           4470      5.56396e+7 
           4490      5.50385e+7 
           4510      5.44292e+7 
           4530      5.38229e+7 
           4550      5.32216e+7 
           4570      5.26359e+7 
           4590      5.20566e+7 
           4610      5.14889e+7 
           4630      5.09256e+7 
           4650      5.03717e+7 
           4670      4.98237e+7 
           4690      4.92849e+7 
           4710       4.8745e+7 
           4730      4.82276e+7 
           4750      4.76019e+7 
           4770      4.70281e+7 
           4790      4.63866e+7 
           4810      4.55164e+7 
           4830      4.36126e+7 
           4850      3.48838e+7 
           4870      2.83807e+7 
           4890      4.13956e+7 
           4910      4.30327e+7 
           4930      4.30563e+7 
           4950      4.27767e+7 
           4970      4.24057e+7 
           4990       4.2071e+7 
           5010      4.16397e+7 
           5030      4.12214e+7 
           5050      4.08039e+7 
           5070      4.03932e+7 
           5090      3.99877e+7 
           5110      3.95873e+7 
           5130      3.91919e+7 
           5150      3.88015e+7 
           5170       3.8406e+7 
           5190      3.80322e+7 
           5210      3.76631e+7 
           5230      3.72916e+7 
           5250      3.69273e+7 
           5270      3.65662e+7 
           5290      3.62108e+7 
           5310      3.58597e+7 
           5330      3.55129e+7 
           5350      3.51715e+7 
           5370      3.48329e+7 
           5390      3.44997e+7 
           5410      3.41704e+7 
           5430      3.38451e+7 
           5450      3.35236e+7 
           5470      3.32071e+7 
           5490      3.28943e+7 
           5510      3.25853e+7 
           5530      3.22798e+7 
           5550       3.1979e+7 
           5570      3.16806e+7 
           5590      3.13868e+7 
           5610      3.10964e+7 
           5630      3.08093e+7 
           5650      3.05254e+7 
           5670      3.02448e+7 
           5690      2.99686e+7 
           5710      2.96943e+7 
           5730      2.94243e+7 
           5750      2.91573e+7 
           5770      2.88933e+7 
           5790      2.86322e+7 
           5810       2.8374e+7 
           5830      2.81198e+7 
           5850      2.78674e+7 
           5870      2.76144e+7 
           5890      2.73718e+7 
           5910      2.71297e+7 
           5930      2.68891e+7 
           5950      2.66512e+7 
           5970      2.64169e+7 
           5990      2.61841e+7 
           6010      2.59548e+7 
           6030       2.5728e+7 
           6050      2.55047e+7 
           6070      2.52827e+7 
           6090      2.50641e+7 
           6110      2.48478e+7 
           6130      2.46328e+7 
           6150      2.44211e+7 
           6170      2.42115e+7 
           6190      2.40052e+7 
           6210         2.38e+7 
           6230       2.3597e+7 
           6250       2.3397e+7 
           6270      2.31991e+7 
           6290      2.30023e+7 
           6310      2.28085e+7 
           6330      2.26166e+7 
           6350      2.24267e+7 
           6370      2.22397e+7 
           6390      2.20536e+7 
           6410      2.18704e+7 
           6430      2.16881e+7 
           6450      2.14859e+7 
           6470      2.12677e+7 
           6490      2.10456e+7 
           6510      2.07574e+7 
           6530      2.02046e+7 
           6550      1.79037e+7 
           6570      1.44635e+7 
           6590      1.92303e+7 
           6610      1.98237e+7 
           6630      1.98397e+7 
           6650       1.9741e+7 
           6670      1.96202e+7 
           6690      1.94913e+7 
           6710       1.9336e+7 
           6730      1.91804e+7 
           6750      1.90273e+7 
           6770      1.88747e+7 
           6790      1.87245e+7 
           6810      1.85757e+7 
           6830      1.84275e+7 
           6850      1.82815e+7 
           6870      1.81369e+7 
           6890      1.79936e+7 
           6910      1.78526e+7 
           6930       1.7712e+7 
           6950      1.75736e+7 
           6970      1.74356e+7 
           6990      1.72998e+7 
           7010      1.71651e+7 
           7030      1.70318e+7 
           7050      1.68997e+7 
           7070      1.67688e+7 
           7090      1.66391e+7 
           7110      1.65113e+7 
           7130       1.6384e+7 
           7150      1.62586e+7 
           7170      1.61335e+7 
           7190      1.60104e+7 
           7210      1.58884e+7 
           7230      1.57674e+7 
           7250      1.56476e+7 
           7270      1.55288e+7 
           7290      1.54111e+7 
           7310      1.52945e+7 
           7330      1.51789e+7 
           7350       1.5065e+7 
           7370      1.49514e+7 
           7390      1.48396e+7 
           7410      1.47287e+7 
           7430      1.46188e+7 
           7450      1.45099e+7 
           7470      1.44019e+7 
           7490      1.42949e+7 
           7510      1.41888e+7 
           7530      1.40836e+7 
           7550        1.398e+7 
           7570      1.38767e+7 
           7590      1.37748e+7 
           7610      1.36739e+7 
           7630      1.35739e+7 
           7650      1.34746e+7 
           7670      1.33763e+7 
           7690      1.32788e+7 
           7710      1.31821e+7 
           7730      1.30862e+7 
           7750      1.29918e+7 
           7770      1.28957e+7 
           7790      1.28047e+7 
           7810       1.2712e+7 
           7830      1.26208e+7 
           7850      1.25302e+7 
           7870      1.24405e+7 
           7890      1.23515e+7 
           7910      1.22632e+7 
           7930      1.21757e+7 
           7950      1.20894e+7 
           7970      1.20033e+7 
           7990      1.19179e+7 
           8010      1.18338e+7 
           8030      1.17504e+7 
           8050      1.16677e+7 
           8070      1.15851e+7 
           8090      1.15037e+7 
           8110       1.1423e+7 
           8130      1.13435e+7 
           8150       1.1264e+7 
           8170      1.11852e+7 
           8190      1.11071e+7 
           8210      1.10519e+7 
           8230       1.0981e+7 
           8250      1.09118e+7 
           8270      1.08431e+7 
           8290      1.07733e+7 
           8310      1.06997e+7 
           8330      1.06191e+7 
           8350      1.05385e+7 
           8370      1.04248e+7 
           8390      1.03361e+7 
           8410      1.02241e+7 
           8430      1.02101e+7 
           8450      1.01671e+7 
           8470      9.77363e+6 
           8490      1.02336e+7 
           8510      9.51446e+6 
           8530      1.02683e+7 
           8550      9.07109e+6 
           8570       1.0363e+7 
           8590      9.59028e+6 
