# Kurucz ODFNEW /NOVER (2003)
# teff = 9250 K (value for the effective temperature for the model. Temperatures are given in K)
# logg = 3.5 log(cm/s2) (value for Log(G) for the model.)
# meta = -1.5  (value for the Metallicity for the model.)
# lh = 1.25  (l/Hp where l is the  mixing length of the convective element and Hp is the pressure scale height)
# vtur = 2 km/s (Microturbulence velocity)
# alpha = 0.4  (Alpha)
#
# column 1: WAVELENGTH (ANGSTROM), Wavelength in Angstrom
# column 2: FLUX (ERG/CM2/S/A), Flux in erg/cm2/s/A
          273.5     4.17674e-23 
          278.5     2.09162e-22 
            284     9.91381e-22 
            290     4.97005e-21 
            296     2.32476e-20 
            301     8.01685e-20 
            308     4.23217e-19 
            318     4.00185e-18 
            328     3.28756e-17 
            338     2.37591e-16 
            348     1.52796e-15 
            357     7.44065e-15 
            366     3.34612e-14 
            375      1.3959e-13 
            385     6.29403e-13 
            395     2.62195e-12 
            405     1.01536e-11 
            414     3.24052e-11 
            422     8.70554e-11 
            430      2.2508e-10 
            441     7.83906e-10 
            451      2.30593e-9 
            460      5.83984e-9 
            470      1.56975e-8 
            480      4.04052e-8 
            490      9.98874e-8 
            500      2.37671e-7 
            506      4.26159e-7 
            512       7.2071e-7 
            520      1.35623e-6 
            530      2.91352e-6 
            540      6.04214e-6 
            550      1.22418e-5 
            560      2.40934e-5 
            570       4.6243e-5 
            580      8.64238e-5 
            590     0.000158798 
            600     0.000284776 
            610     0.000500379 
            620     0.000862273 
            630      0.00145879 
            640      0.00242492 
            650      0.00396417 
            658      0.00580638 
            665       0.0080436 
            675       0.0126523 
            685       0.0196199 
            695       0.0300128 
            705       0.0453159 
            716       0.0702877 
            726        0.103453 
            735        0.145071 
            745        0.209038 
            755        0.298046 
            765        0.420725 
            775        0.588171 
            785        0.814624 
            795         1.11816 
            805         1.52174 
            815         2.05384 
            825         2.74998 
            835         3.65358 
            845         4.81907 
            855         6.31039 
            865         8.20701 
            875         10.6033 
            885         13.6122 
            895         17.3666 
            905         22.0226 
            915         88.5864 
            925         561.379 
            935         994.542 
            945         1882.29 
            955         3001.11 
            965         4030.92 
            975         2803.96 
            985         7229.97 
            995         10545.5 
           1005         10912.9 
           1015          8793.8 
           1025         4967.72 
           1035         11539.4 
           1045         19790.6 
           1055         57269.7 
           1065          136642 
           1075          259601 
           1085          366097 
           1095          385990 
           1105       3.1159e+6 
           1115      1.71267e+7 
           1125      1.93415e+7 
           1135      2.04264e+7 
           1145      1.60672e+7 
           1155      1.05468e+7 
           1165       5.6958e+6 
           1175      1.50274e+6 
           1185      1.39596e+6 
           1195         54189.5 
           1205           38391 
           1215         11744.2 
           1225         41648.9 
           1235         83473.4 
           1245          149613 
           1255      1.10587e+6 
           1265      4.28493e+6 
           1275      1.24352e+7 
           1285      2.48115e+7 
           1295      3.17463e+7 
           1305      2.74059e+7 
           1315      4.40993e+7 
           1325      5.21032e+7 
           1335      5.63881e+7 
           1345      6.41431e+7 
           1355      6.18805e+7 
           1365      6.06779e+7 
           1375      6.20063e+7 
           1385      5.95862e+7 
           1395      5.93506e+7 
           1405      6.87437e+7 
           1415      7.47334e+7 
           1425      7.79868e+7 
           1435      7.31075e+7 
           1442       8.0152e+7 
           1447      8.22817e+7 
           1455      8.39668e+7 
           1465      8.03915e+7 
           1475      7.91337e+7 
           1485      7.98363e+7 
           1495      8.27228e+7 
           1505      8.38825e+7 
           1512      8.20694e+7 
           1517      8.23708e+7 
           1525      7.88716e+7 
           1535      7.72669e+7 
           1545      8.12114e+7 
           1555       7.4697e+7 
           1565      6.65484e+7 
           1575      7.40406e+7 
           1585      7.73321e+7 
           1595      8.03267e+7 
           1605      7.67169e+7 
           1615      7.75132e+7 
           1625      7.31381e+7 
           1635      7.54114e+7 
           1645      7.85333e+7 
           1655       6.9717e+7 
           1665      7.80672e+7 
           1672      6.89507e+7 
           1677      7.44208e+7 
           1685      7.81356e+7 
           1695      7.37507e+7 
           1705      7.27637e+7 
           1715      7.50673e+7 
           1725      7.37564e+7 
           1735      7.60423e+7 
           1745      7.41439e+7 
           1755      7.64449e+7 
           1765      7.07293e+7 
           1775      7.50141e+7 
           1785      7.39773e+7 
           1795      7.67227e+7 
           1805      7.37415e+7 
           1815      7.31496e+7 
           1825      7.11772e+7 
           1835       7.1293e+7 
           1845      6.78849e+7 
           1855      6.98658e+7 
           1865      7.00804e+7 
           1875      7.09101e+7 
           1885      7.10938e+7 
           1895      6.99405e+7 
           1905      6.74475e+7 
           1915      6.86105e+7 
           1925      6.93696e+7 
           1935      6.78676e+7 
           1945      6.99888e+7 
           1955      6.93909e+7 
           1967      6.94173e+7 
           1976      6.77646e+7 
           1984      6.70824e+7 
           1995      6.68757e+7 
           2005      6.56742e+7 
           2015      6.37315e+7 
           2025      6.36612e+7 
           2035      6.50185e+7 
           2045       6.4958e+7 
           2055      6.26136e+7 
           2065      6.27596e+7 
           2074      6.38372e+7 
           2078      6.46735e+7 
           2085      6.43579e+7 
           2095      6.30754e+7 
           2105      6.27972e+7 
           2115      6.23067e+7 
           2125      6.21338e+7 
           2135      5.85819e+7 
           2145      6.15938e+7 
           2155       6.0798e+7 
           2165      5.90272e+7 
           2175      5.88464e+7 
           2185      5.88038e+7 
           2195      6.06963e+7 
           2205      5.87515e+7 
           2215      5.59079e+7 
           2225      5.60092e+7 
           2235      5.90929e+7 
           2245      5.65248e+7 
           2255      5.51748e+7 
           2265      5.46454e+7 
           2275       5.6959e+7 
           2285      5.74161e+7 
           2295      5.53776e+7 
           2305      5.54094e+7 
           2315      5.47707e+7 
           2325      5.49794e+7 
           2335        5.405e+7 
           2345      5.08778e+7 
           2355      5.37601e+7 
           2365      5.11834e+7 
           2375      5.27737e+7 
           2385      4.89484e+7 
           2395      5.17561e+7 
           2405      5.06368e+7 
           2415      5.10568e+7 
           2425      5.21266e+7 
           2435      5.04375e+7 
           2445      5.18861e+7 
           2455       5.1143e+7 
           2465      5.03693e+7 
           2475      4.91789e+7 
           2485      5.07947e+7 
           2495      4.96918e+7 
           2505      5.16432e+7 
           2513      4.97896e+7 
           2518      4.95398e+7 
           2525      4.75318e+7 
           2535      4.72865e+7 
           2545      4.76206e+7 
           2555      4.93336e+7 
           2565      4.90693e+7 
           2575      5.04401e+7 
           2585      5.06374e+7 
           2595      5.04057e+7 
           2605       4.9215e+7 
           2615      4.89005e+7 
           2625       4.9264e+7 
           2635      4.95842e+7 
           2645      5.19746e+7 
           2655      5.15624e+7 
           2665      4.99334e+7 
           2675      5.06242e+7 
           2685      5.09705e+7 
           2695      4.98419e+7 
           2705      4.98824e+7 
           2715      4.87602e+7 
           2725      4.87571e+7 
           2735      4.99731e+7 
           2745      4.67408e+7 
           2755      4.68473e+7 
           2765      4.79632e+7 
           2775      4.91861e+7 
           2785      4.86635e+7 
           2795      4.22585e+7 
           2805      4.51365e+7 
           2815      4.94194e+7 
           2825      4.90984e+7 
           2835      4.82043e+7 
           2845      4.74983e+7 
           2855      4.66115e+7 
           2865      4.74203e+7 
           2875      4.70819e+7 
           2885       4.7607e+7 
           2895      4.76653e+7 
           2910      4.86522e+7 
           2930      4.74856e+7 
           2950      4.73071e+7 
           2970       4.7317e+7 
           2990      4.71581e+7 
           3010      4.73693e+7 
           3030      4.72056e+7 
           3050      4.67991e+7 
           3070      4.61753e+7 
           3090      4.63331e+7 
           3110      4.59572e+7 
           3130       4.5641e+7 
           3150      4.55113e+7 
           3170      4.53137e+7 
           3190      4.44844e+7 
           3210      4.47142e+7 
           3230      4.40647e+7 
           3250      4.42017e+7 
           3270      4.42722e+7 
           3290      4.42507e+7 
           3310      4.41267e+7 
           3330      4.35337e+7 
           3350      4.30222e+7 
           3370      4.30405e+7 
           3390      4.27538e+7 
           3410        4.296e+7 
           3430      4.27359e+7 
           3450      4.25298e+7 
           3470      4.22444e+7 
           3490      4.20801e+7 
           3510      4.19597e+7 
           3530      4.18212e+7 
           3550      4.16353e+7 
           3570      4.13238e+7 
           3590       4.1116e+7 
           3610      4.09277e+7 
           3630      4.07124e+7 
           3640      4.05771e+7 
           3650      4.08443e+7 
           3670      4.05514e+7 
           3690      3.89482e+7 
           3710      4.20793e+7 
           3730      4.54743e+7 
           3750      6.10509e+7 
           3770      6.60136e+7 
           3790      8.26313e+7 
           3810      9.76126e+7 
           3830      7.65997e+7 
           3850      1.07878e+8 
           3870      1.22095e+8 
           3890      6.51554e+7 
           3910      1.20317e+8 
           3930      1.25628e+8 
           3950      1.19151e+8 
           3970      6.22285e+7 
           3990      1.12945e+8 
           4010      1.23575e+8 
           4030      1.22883e+8 
           4050      1.21272e+8 
           4070      1.16761e+8 
           4090       9.0324e+7 
           4110      6.79188e+7 
           4130      1.10064e+8 
           4150      1.13322e+8 
           4170      1.12396e+8 
           4190       1.1128e+8 
           4210      1.09892e+8 
           4230      1.08103e+8 
           4250      1.06819e+8 
           4270      1.05193e+8 
           4290      1.03156e+8 
           4310      9.85543e+7 
           4330      7.34233e+7 
           4350      6.18555e+7 
           4370      9.43101e+7 
           4390      9.61718e+7 
           4410      9.58923e+7 
           4430      9.50764e+7 
           4450      9.40354e+7 
           4470      9.27829e+7 
           4490      9.09621e+7 
           4510      9.04906e+7 
           4530       8.9328e+7 
           4550      8.79184e+7 
           4570      8.71596e+7 
           4590      8.60673e+7 
           4610      8.52654e+7 
           4630      8.40312e+7 
           4650      8.31671e+7 
           4670      8.21419e+7 
           4690      8.10677e+7 
           4710      7.97303e+7 
           4730      7.91602e+7 
           4750      7.81443e+7 
           4770      7.70533e+7 
           4790      7.59268e+7 
           4810      7.44614e+7 
           4830      7.14205e+7 
           4850      5.55729e+7 
           4870      4.45812e+7 
           4890      6.74477e+7 
           4910      6.99309e+7 
           4930      6.96266e+7 
           4950      6.92004e+7 
           4970      6.85501e+7 
           4990      6.78186e+7 
           5010      6.68579e+7 
           5030      6.62573e+7 
           5050       6.5379e+7 
           5070      6.47778e+7 
           5090      6.40443e+7 
           5110      6.33146e+7 
           5130      6.25885e+7 
           5150      6.18718e+7 
           5170       6.0757e+7 
           5190      6.02295e+7 
           5210       5.9811e+7 
           5230      5.90569e+7 
           5250      5.85053e+7 
           5270      5.77501e+7 
           5290       5.7216e+7 
           5310      5.65306e+7 
           5330      5.59082e+7 
           5350      5.53633e+7 
           5370      5.47453e+7 
           5390      5.41543e+7 
           5410      5.35474e+7 
           5430      5.29812e+7 
           5450      5.24282e+7 
           5470       5.1863e+7 
           5490      5.13095e+7 
           5510       5.0764e+7 
           5530      5.02065e+7 
           5550      4.96973e+7 
           5570      4.91687e+7 
           5590      4.86463e+7 
           5610      4.81396e+7 
           5630      4.76389e+7 
           5650      4.71382e+7 
           5670      4.66469e+7 
           5690      4.61648e+7 
           5710       4.5686e+7 
           5730      4.52185e+7 
           5750      4.47495e+7 
           5770      4.42927e+7 
           5790      4.38378e+7 
           5810      4.33925e+7 
           5830      4.29512e+7 
           5850      4.25149e+7 
           5870       4.2054e+7 
           5890      4.16147e+7 
           5910      4.12408e+7 
           5930      4.08281e+7 
           5950      4.04126e+7 
           5970      4.00143e+7 
           5990       3.9609e+7 
           6010      3.92227e+7 
           6030      3.88355e+7 
           6050      3.84516e+7 
           6070      3.80769e+7 
           6090      3.77033e+7 
           6110      3.73338e+7 
           6130      3.69672e+7 
           6150      3.65638e+7 
           6170       3.6251e+7 
           6190       3.5907e+7 
           6210      3.55608e+7 
           6230      3.52164e+7 
           6250      3.48621e+7 
           6270      3.45481e+7 
           6290      3.42183e+7 
           6310      3.38891e+7 
           6330       3.3569e+7 
           6350      3.31757e+7 
           6370         3.29e+7 
           6390      3.26261e+7 
           6410      3.23146e+7 
           6430      3.20155e+7 
           6450      3.16615e+7 
           6470      3.13265e+7 
           6490      3.09594e+7 
           6510      3.04983e+7 
           6530      2.95961e+7 
           6550      2.57127e+7 
           6570      2.06069e+7 
           6590      2.79571e+7 
           6610      2.89625e+7 
           6630      2.89783e+7 
           6650      2.88102e+7 
           6670      2.85988e+7 
           6690      2.83876e+7 
           6710      2.81367e+7 
           6730       2.7879e+7 
           6750      2.76289e+7 
           6770      2.73862e+7 
           6790      2.71401e+7 
           6810       2.6898e+7 
           6830      2.66568e+7 
           6850      2.64218e+7 
           6870      2.61876e+7 
           6890      2.59564e+7 
           6910      2.57275e+7 
           6930      2.55008e+7 
           6950       2.5277e+7 
           6970      2.50562e+7 
           6990      2.48374e+7 
           7010      2.46139e+7 
           7030      2.44054e+7 
           7050      2.41951e+7 
           7070      2.39846e+7 
           7090       2.3779e+7 
           7110      2.35627e+7 
           7130      2.33699e+7 
           7150      2.31671e+7 
           7170      2.29721e+7 
           7190       2.2776e+7 
           7210      2.25817e+7 
           7230      2.23899e+7 
           7250      2.21985e+7 
           7270       2.2013e+7 
           7290      2.18258e+7 
           7310      2.16424e+7 
           7330      2.14613e+7 
           7350      2.12826e+7 
           7370      2.11048e+7 
           7390      2.09287e+7 
           7410      2.07521e+7 
           7430      2.05763e+7 
           7450       2.0409e+7 
           7470      2.02364e+7 
           7490      2.00727e+7 
           7510      1.99092e+7 
           7530      1.97471e+7 
           7550      1.95858e+7 
           7570      1.94252e+7 
           7590      1.92667e+7 
           7610      1.91103e+7 
           7630      1.89546e+7 
           7650      1.88003e+7 
           7670      1.86486e+7 
           7690      1.84975e+7 
           7710      1.83484e+7 
           7730      1.82026e+7 
           7750       1.8056e+7 
           7770      1.77336e+7 
           7790      1.77693e+7 
           7810      1.76277e+7 
           7830      1.74868e+7 
           7850      1.73471e+7 
           7870      1.71976e+7 
           7890      1.70494e+7 
           7910      1.69398e+7 
           7930      1.68059e+7 
           7950      1.66678e+7 
           7970      1.65451e+7 
           7990      1.63875e+7 
           8010      1.62875e+7 
           8030      1.61609e+7 
           8050      1.60354e+7 
           8070      1.59109e+7 
           8090      1.57874e+7 
           8110      1.56655e+7 
           8130      1.55452e+7 
           8150      1.54259e+7 
           8170       1.5307e+7 
           8190      1.51813e+7 
           8210      1.51174e+7 
           8230      1.50068e+7 
           8250      1.48987e+7 
           8270      1.48157e+7 
           8290      1.47125e+7 
           8310      1.46085e+7 
           8330      1.44896e+7 
           8350       1.4383e+7 
           8370      1.42492e+7 
           8390      1.41102e+7 
           8410      1.39569e+7 
           8430      1.38664e+7 
           8450      1.37227e+7 
           8470      1.33208e+7 
           8490      1.37437e+7 
           8510      1.28687e+7 
           8530      1.37601e+7 
           8550      1.21606e+7 
           8570      1.39146e+7 
           8590      1.27419e+7 
           8610      1.23601e+7 
           8630      1.40996e+7 
           8650      1.34323e+7 
           8670      1.09337e+7 
           8690      1.38298e+7 
           8710      1.43642e+7 
           8730      1.36999e+7 
           8750      1.05147e+7 
           8770      1.29276e+7 
           8790       1.4218e+7 
           8810      1.43385e+7 
           8830      1.39605e+7 
           8850      1.22404e+7 
           8870       1.0179e+7 
           8890      1.31454e+7 
           8910      1.38006e+7 
           8930      1.38589e+7 
           8950      1.38003e+7 
           8970      1.35548e+7 
           8990      1.28317e+7 
           9010      1.00155e+7 
           9030      1.10324e+7 
           9050      1.28194e+7 
           9070      1.31046e+7 
           9090      1.30794e+7 
           9110      1.30792e+7 
           9130      1.30048e+7 
           9150      1.28895e+7 
           9170      1.27245e+7 
           9190      1.24069e+7 
