# Kurucz ODFNEW /NOVER (2003)
# teff = 24000 K (value for the effective temperature for the model. Temperatures are given in K)
# logg = 4 log(cm/s2) (value for Log(G) for the model.)
# meta = -2.5  (value for the Metallicity for the model.)
# lh = 1.25  (l/Hp where l is the  mixing length of the convective element and Hp is the pressure scale height)
# vtur = 2 km/s (Microturbulence velocity)
# alpha = 0.4  (Alpha)
#
# column 1: WAVELENGTH (ANGSTROM), Wavelength in Angstrom
# column 2: FLUX (ERG/CM2/S/A), Flux in erg/cm2/s/A
          147.2     3.04647e-15 
            151     1.61395e-14 
          155.2     9.26283e-14 
          158.8     3.84402e-13 
            162     1.29052e-12 
            166     5.48524e-12 
          170.3      2.4044e-11 
          173.4     6.65877e-11 
          176.8     1.95112e-10 
          180.2     5.48236e-10 
          181.7     8.53866e-10 
          186.1      3.00148e-9 
            191      1.13387e-8 
          193.9      2.40934e-8 
          198.4      7.41475e-8 
          201.8      1.67443e-7 
            205      3.51244e-7 
          210.5      1.18766e-6 
          216.2      3.91886e-6 
          219.8      8.05517e-6 
            223       1.4971e-5 
          226.8      3.05136e-5 
            230     0.000148577 
            234     0.000333605 
            240     0.000860133 
          246.5      0.00227654 
          252.4      0.00531152 
          256.8      0.00940306 
            260       0.0147259 
            264       0.0245758 
          268.5       0.0428593 
          273.5       0.0777258 
          278.5        0.138054 
            284        0.253312 
            290        0.477519 
            296        0.875177 
            301         1.42137 
            308         2.67623 
            318         6.59474 
            328         15.0077 
            338         32.4618 
            348         66.9443 
            357         123.699 
            366         221.567 
            375         384.271 
            385         686.538 
            395         1186.87 
            405         1993.03 
            414         3105.34 
            422         4521.79 
            430         6479.18 
            441         10406.5 
            451         15644.9 
            460         22192.5 
            470         32169.5 
            480         45815.8 
            490         64221.3 
            500         88629.4 
            506          575535 
            512      1.71576e+6 
            520      2.08525e+6 
            530      2.83063e+6 
            540      3.04549e+6 
            550      4.15137e+6 
            560       4.8809e+6 
            570      5.81258e+6 
            580      5.87447e+6 
            590      7.55082e+6 
            600      9.11685e+6 
            610      1.05588e+7 
            620      1.20173e+7 
            630      1.37612e+7 
            640      1.53929e+7 
            650      1.75658e+7 
            658      1.93705e+7 
            665      2.09481e+7 
            675      2.30788e+7 
            685      2.55403e+7 
            695      2.89622e+7 
            705      3.17634e+7 
            716      3.53695e+7 
            726      3.87532e+7 
            735      4.23881e+7 
            745      4.64198e+7 
            755      5.05813e+7 
            765      5.48429e+7 
            775      5.95962e+7 
            785      6.44424e+7 
            795      6.93226e+7 
            805       7.4657e+7 
            815      8.00222e+7 
            825      8.58431e+7 
            835      9.04777e+7 
            845      9.76666e+7 
            855      1.03677e+8 
            865      1.10558e+8 
            875      1.17419e+8 
            885      1.24487e+8 
            895      1.31593e+8 
            905      1.37652e+8 
            915      2.25212e+8 
            925      1.78554e+9 
            935      5.43273e+9 
            945     1.54248e+10 
            955     2.05229e+10 
            965     2.65006e+10 
            975     1.14882e+10 
            985     2.88772e+10 
            995     2.76699e+10 
           1005     2.84715e+10 
           1015     2.59393e+10 
           1025      9.40833e+9 
           1035     2.36713e+10 
           1045      2.7345e+10 
           1055     2.67106e+10 
           1065     2.49828e+10 
           1075     2.53504e+10 
           1085     2.36821e+10 
           1095      2.4683e+10 
           1105      2.3602e+10 
           1115     2.32136e+10 
           1125     2.19901e+10 
           1135     2.24141e+10 
           1145     2.14177e+10 
           1155     2.15186e+10 
           1165     2.11627e+10 
           1175     1.89183e+10 
           1185     2.01676e+10 
           1195     1.88918e+10 
           1205      1.6553e+10 
           1215      6.34754e+9 
           1225     1.63269e+10 
           1235     1.79689e+10 
           1245     1.76771e+10 
           1255     1.74285e+10 
           1265       1.699e+10 
           1275     1.69048e+10 
           1285     1.65506e+10 
           1295     1.53879e+10 
           1305     1.53966e+10 
           1315     1.55657e+10 
           1325     1.50853e+10 
           1335     1.45925e+10 
           1345     1.45865e+10 
           1355     1.44109e+10 
           1365     1.40311e+10 
           1375     1.38007e+10 
           1385     1.35728e+10 
           1395      1.2923e+10 
           1405     1.27928e+10 
           1415     1.27534e+10 
           1425     1.25524e+10 
           1435     1.23407e+10 
           1442     1.22127e+10 
           1447     1.20922e+10 
           1455     1.19077e+10 
           1465     1.16777e+10 
           1475     1.14671e+10 
           1485     1.12537e+10 
           1495     1.10462e+10 
           1505     1.07595e+10 
           1512     1.06616e+10 
           1517     1.05856e+10 
           1525     1.04196e+10 
           1535     1.01108e+10 
           1545      9.96657e+9 
           1555      9.74921e+9 
           1565      9.69762e+9 
           1575      9.55907e+9 
           1585      9.39385e+9 
           1595      9.24474e+9 
           1605      9.00573e+9 
           1615      8.84891e+9 
           1625      8.75731e+9 
           1635      8.62417e+9 
           1645       8.3612e+9 
           1655      8.34656e+9 
           1665      8.21589e+9 
           1672       8.0955e+9 
           1677      8.07502e+9 
           1685      7.96297e+9 
           1695      7.81644e+9 
           1705      7.67669e+9 
           1715       7.5262e+9 
           1725      7.41387e+9 
           1735      7.31364e+9 
           1745      7.19145e+9 
           1755      7.09408e+9 
           1765      6.91197e+9 
           1775      6.83718e+9 
           1785      6.74695e+9 
           1795       6.6603e+9 
           1805      6.56566e+9 
           1815       6.4465e+9 
           1825      6.35445e+9 
           1835      6.25662e+9 
           1845        6.101e+9 
           1855      5.94376e+9 
           1865      5.88843e+9 
           1875      5.86929e+9 
           1885      5.70731e+9 
           1895      5.56204e+9 
           1905         5.58e+9 
           1915      5.42757e+9 
           1925       5.3451e+9 
           1935      5.31082e+9 
           1945      5.27109e+9 
           1955      5.11312e+9 
           1967      5.10369e+9 
           1976      5.06628e+9 
           1984      4.96569e+9 
           1995      4.83877e+9 
           2005      4.84319e+9 
           2015      4.79348e+9 
           2025      4.73688e+9 
           2035      4.65078e+9 
           2045      4.58487e+9 
           2055      4.46916e+9 
           2065       4.4092e+9 
           2074      4.41051e+9 
           2078      4.33134e+9 
           2085      4.32978e+9 
           2095      4.24898e+9 
           2105      4.22443e+9 
           2115      4.17834e+9 
           2125      4.12968e+9 
           2135      4.07158e+9 
           2145      4.01078e+9 
           2155      3.96326e+9 
           2165      3.91203e+9 
           2175       3.8583e+9 
           2185       3.8091e+9 
           2195      3.76086e+9 
           2205      3.71118e+9 
           2215      3.66262e+9 
           2225      3.61386e+9 
           2235      3.56636e+9 
           2245      3.52263e+9 
           2255      3.47545e+9 
           2265      3.43279e+9 
           2275      3.38892e+9 
           2285      3.34641e+9 
           2295      3.28083e+9 
           2305      3.26143e+9 
           2315      3.21967e+9 
           2325      3.17963e+9 
           2335      3.13767e+9 
           2345      3.09939e+9 
           2355       3.0628e+9 
           2365      3.02442e+9 
           2375      2.98685e+9 
           2385      2.94941e+9 
           2395       2.9136e+9 
           2405      2.87848e+9 
           2415      2.84229e+9 
           2425      2.80967e+9 
           2435      2.77495e+9 
           2445      2.74183e+9 
           2455       2.7096e+9 
           2465      2.67687e+9 
           2475      2.64502e+9 
           2485      2.61346e+9 
           2495      2.55195e+9 
           2505       2.5516e+9 
           2513      2.52202e+9 
           2518      2.51178e+9 
           2525      2.49202e+9 
           2535      2.46302e+9 
           2545       2.4284e+9 
           2555      2.40557e+9 
           2565      2.37768e+9 
           2575      2.35152e+9 
           2585      2.32457e+9 
           2595      2.29807e+9 
           2605      2.28913e+9 
           2615      2.26322e+9 
           2625      2.23672e+9 
           2635       2.2068e+9 
           2645      2.18207e+9 
           2655      2.15434e+9 
           2665      2.12674e+9 
           2675      2.10129e+9 
           2685       2.0911e+9 
           2695      2.05237e+9 
           2705      2.04469e+9 
           2715      2.02204e+9 
           2725      1.98374e+9 
           2735      1.97742e+9 
           2745      1.95499e+9 
           2755      1.93392e+9 
           2765      1.89719e+9 
           2775      1.89279e+9 
           2785      1.87213e+9 
           2795      1.83889e+9 
           2805      1.82767e+9 
           2815      1.81242e+9 
           2825      1.77417e+9 
           2835      1.76388e+9 
           2845      1.75499e+9 
           2855      1.73625e+9 
           2865      1.71795e+9 
           2875      1.69983e+9 
           2885        1.682e+9 
           2895      1.66433e+9 
           2910      1.63823e+9 
           2930      1.60418e+9 
           2950      1.56038e+9 
           2970      1.53927e+9 
           2990      1.50783e+9 
           3010      1.47738e+9 
           3030       1.4478e+9 
           3050      1.41888e+9 
           3070      1.39066e+9 
           3090      1.36253e+9 
           3110       1.3363e+9 
           3130      1.31155e+9 
           3150      1.28595e+9 
           3170      1.26063e+9 
           3190      1.22602e+9 
           3210      1.21237e+9 
           3230      1.18902e+9 
           3250      1.16627e+9 
           3270      1.14567e+9 
           3290      1.12249e+9 
           3310      1.10322e+9 
           3330      1.08274e+9 
           3350      1.06072e+9 
           3370      1.04322e+9 
           3390      1.02416e+9 
           3410      1.00554e+9 
           3430      9.82643e+8 
           3450      9.61376e+8 
           3470      9.47072e+8 
           3490      9.30155e+8 
           3510      9.17047e+8 
           3530      9.02543e+8 
           3550      8.86962e+8 
           3570      8.75958e+8 
           3590      8.55556e+8 
           3610      8.42547e+8 
           3630      8.26255e+8 
           3640      8.24565e+8 
           3650      8.15868e+8 
           3670      8.05461e+8 
           3690      7.87098e+8 
           3710      7.61144e+8 
           3730      7.33616e+8 
           3750      7.79472e+8 
           3770      7.82939e+8 
           3790      8.24582e+8 
           3810      8.60689e+8 
           3830      7.49817e+8 
           3850      8.83513e+8 
           3870      8.88013e+8 
           3890      7.11056e+8 
           3910      8.72598e+8 
           3930      8.59715e+8 
           3950      8.44415e+8 
           3970      6.60673e+8 
           3990      8.10815e+8 
           4010      8.04036e+8 
           4030      7.58799e+8 
           4050      7.85729e+8 
           4070      7.69201e+8 
           4090      7.11093e+8 
           4110      6.19798e+8 
           4130      7.21901e+8 
           4150      7.15026e+8 
           4170      7.08682e+8 
           4190      6.98885e+8 
           4210      6.87478e+8 
           4230      6.76171e+8 
           4250      6.65004e+8 
           4270      6.53603e+8 
           4290      6.42999e+8 
           4310      6.29461e+8 
           4330       5.7216e+8 
           4350       5.2112e+8 
           4370      5.98387e+8 
           4390        5.768e+8 
           4410        5.839e+8 
           4430      5.72248e+8 
           4450      5.65917e+8 
           4470      5.33073e+8 
           4490      5.47881e+8 
           4510      5.39902e+8 
           4530      5.31529e+8 
           4550      5.23263e+8 
           4570      5.15176e+8 
           4590      5.07352e+8 
           4610       4.9968e+8 
           4630      4.92104e+8 
           4650      4.84273e+8 
           4670      4.77301e+8 
           4690      4.70053e+8 
           4710      4.57273e+8 
           4730      4.56226e+8 
           4750      4.49387e+8 
           4770      4.42911e+8 
           4790       4.3638e+8 
           4810      4.29567e+8 
           4830      4.21107e+8 
           4850      3.89598e+8 
           4870      3.47583e+8 
           4890      4.01746e+8 
           4910      3.98418e+8 
           4930      3.84388e+8 
           4950      3.88299e+8 
           4970      3.82832e+8 
           4990      3.77394e+8 
           5010      3.67527e+8 
           5030      3.66814e+8 
           5050      3.59409e+8 
           5070      3.56623e+8 
           5090      3.51645e+8 
           5110      3.46762e+8 
           5130      3.41959e+8 
           5150      3.37249e+8 
           5170      3.32615e+8 
           5190      3.28057e+8 
           5210      3.23558e+8 
           5230      3.19188e+8 
           5250       3.1486e+8 
           5270      3.10603e+8 
           5290      3.06428e+8 
           5310       3.0232e+8 
           5330      2.98279e+8 
           5350      2.94302e+8 
           5370      2.90403e+8 
           5390      2.86553e+8 
           5410      2.82778e+8 
           5430       2.7905e+8 
           5450      2.75408e+8 
           5470      2.71811e+8 
           5490      2.68284e+8 
           5510      2.64802e+8 
           5530      2.61375e+8 
           5550      2.58014e+8 
           5570      2.54695e+8 
           5590      2.51441e+8 
           5610      2.48227e+8 
           5630      2.45076e+8 
           5650      2.41952e+8 
           5670        2.389e+8 
           5690      2.35886e+8 
           5710      2.32942e+8 
           5730      2.30034e+8 
           5750      2.27149e+8 
           5770      2.24343e+8 
           5790       2.2156e+8 
           5810      2.18821e+8 
           5830      2.16125e+8 
           5850      2.13483e+8 
           5870      2.04497e+8 
           5890      2.08052e+8 
           5910      2.05762e+8 
           5930      2.03262e+8 
           5950      2.00802e+8 
           5970      1.98391e+8 
           5990      1.96008e+8 
           6010      1.93663e+8 
           6030      1.91344e+8 
           6050      1.89072e+8 
           6070      1.86826e+8 
           6090      1.84616e+8 
           6110      1.82441e+8 
           6130        1.803e+8 
           6150      1.78183e+8 
           6170      1.76099e+8 
           6190      1.74049e+8 
           6210      1.72021e+8 
           6230      1.70035e+8 
           6250      1.68071e+8 
           6270      1.66138e+8 
           6290      1.64226e+8 
           6310      1.62344e+8 
           6330      1.60493e+8 
           6350      1.58652e+8 
           6370      1.56859e+8 
           6390      1.55085e+8 
           6410      1.53339e+8 
           6430      1.51612e+8 
           6450      1.49913e+8 
           6470      1.48232e+8 
           6490      1.46577e+8 
           6510      1.44896e+8 
           6530      1.42728e+8 
           6550      1.36625e+8 
           6570      1.21446e+8 
           6590      1.37339e+8 
           6610      1.36915e+8 
           6630      1.35627e+8 
           6650      1.34242e+8 
           6670      1.31448e+8 
           6690      1.30049e+8 
           6710      1.29927e+8 
           6730      1.28524e+8 
           6750      1.27143e+8 
           6770      1.25777e+8 
           6790      1.24424e+8 
           6810      1.23101e+8 
           6830      1.21792e+8 
           6850      1.20496e+8 
           6870       1.1922e+8 
           6890      1.17966e+8 
           6910      1.16724e+8 
           6930      1.15494e+8 
           6950      1.14284e+8 
           6970      1.13094e+8 
           6990      1.11908e+8 
           7010      1.10757e+8 
           7030      1.09602e+8 
           7050      1.08473e+8 
           7070      1.05576e+8 
           7090      1.06248e+8 
           7110      1.05159e+8 
           7130      1.04089e+8 
           7150      1.03021e+8 
           7170      1.01956e+8 
           7190      1.00938e+8 
           7210      9.99146e+7 
           7230      9.88653e+7 
           7250       9.7912e+7 
           7270      9.69321e+7 
           7290      9.51533e+7 
           7310      9.49859e+7 
           7330      9.40546e+7 
           7350       9.3118e+7 
           7370      9.21902e+7 
           7390       9.1278e+7 
           7410      9.03811e+7 
           7430      8.94926e+7 
           7450      8.86258e+7 
           7470      8.77536e+7 
           7490      8.68961e+7 
           7510      8.60131e+7 
           7530      8.52113e+7 
           7550      8.43903e+7 
           7570      8.35702e+7 
           7590      8.27642e+7 
           7610      8.19654e+7 
           7630      8.11804e+7 
           7650      8.04024e+7 
           7670      7.96314e+7 
           7690      7.88738e+7 
           7710      7.81229e+7 
           7730       7.7385e+7 
           7750      7.66411e+7 
           7770      7.59163e+7 
           7790      7.52104e+7 
           7810      7.44428e+7 
           7830      7.38049e+7 
           7850       7.3197e+7 
           7870      7.25091e+7 
           7890       7.1785e+7 
           7910      7.11695e+7 
           7930      7.04995e+7 
           7950      6.97101e+7 
           7970      6.90107e+7 
           7990      6.84001e+7 
           8010      6.77478e+7 
           8030      6.71244e+7 
           8050      6.65239e+7 
           8070      6.59921e+7 
           8090       6.5246e+7 
           8110      6.47585e+7 
           8130      6.42465e+7 
           8150      6.35516e+7 
           8170       6.3111e+7 
           8190      6.24493e+7 
           8210      6.17933e+7 
           8230      6.14377e+7 
           8250      6.09077e+7 
           8270      6.00351e+7 
           8290      5.97622e+7 
           8310      5.92567e+7 
           8330      5.87119e+7 
           8350      5.78798e+7 
           8370      5.75605e+7 
           8390      5.71473e+7 
           8410      5.66308e+7 
           8430      5.60602e+7 
           8450      5.51884e+7 
           8470      5.49701e+7 
           8490      5.44919e+7 
           8510      5.38095e+7 
           8530      5.36351e+7 
           8550      5.22147e+7 
           8570      5.34229e+7 
