# Kurucz ODFNEW /NOVER (2003)
# teff = 7500 K (value for the effective temperature for the model. Temperatures are given in K)
# logg = 4 log(cm/s2) (value for Log(G) for the model.)
# meta = -4  (value for the Metallicity for the model.)
# lh = 1.25  (l/Hp where l is the  mixing length of the convective element and Hp is the pressure scale height)
# vtur = 2 km/s (Microturbulence velocity)
# alpha = 0.4  (Alpha)
#
# column 1: WAVELENGTH (ANGSTROM), Wavelength in Angstrom
# column 2: FLUX (ERG/CM2/S/A), Flux in erg/cm2/s/A
          147.2     1.73866e-35 
            151     1.65225e-35 
          155.2     1.56403e-35 
          158.8     1.49392e-35 
            162     1.43549e-35 
            166     1.36714e-35 
          170.3     1.29897e-35 
          173.4     1.25294e-35 
          176.8     1.20522e-35 
          180.2     1.16017e-35 
          181.7     1.14109e-35 
          186.1     1.08777e-35 
            191     1.03267e-35 
          193.9     1.00201e-35 
          198.4     9.57076e-36 
          201.8     9.25097e-36 
            205     8.96441e-36 
          210.5     8.50208e-36 
          216.2     8.05969e-36 
          219.8     7.79784e-36 
            223     7.57565e-36 
          226.8     7.32392e-36 
            230     7.12154e-36 
            234     6.88015e-36 
            240     6.54044e-36 
          246.5     6.20006e-36 
          252.4     5.91358e-36 
          256.8     5.71267e-36 
            260     5.57292e-36 
            264     5.40532e-36 
          268.5     5.22566e-36 
          273.5     5.03634e-36 
          278.5     4.85712e-36 
            284     4.67082e-36 
            290     4.47954e-36 
            296     1.88777e-23 
            301     9.87137e-23 
            308     6.48268e-22 
            318     7.68778e-21 
            328     7.78083e-20 
            338     6.83458e-19 
            348     5.27622e-18 
            357     3.00026e-17 
            366     1.56155e-16 
            375     7.48663e-16 
            385     3.90746e-15 
            395     1.86956e-14 
            405     8.25394e-14 
            414     2.94687e-13 
            422     8.70935e-13 
            430       2.468e-12 
            441     9.69074e-12 
            451     3.16273e-11 
            460     8.75842e-11 
            470     2.58884e-10 
            480     7.29815e-10 
            490      1.96791e-9 
            500      5.08992e-9 
            506      8.68533e-9 
            512      1.51198e-8 
            520      3.03376e-8 
            530      7.02254e-8 
            540      1.57306e-7 
            550      3.41597e-7 
            560      7.20387e-7 
            570      1.47758e-6 
            580      2.95213e-6 
            590      5.75311e-6 
            600      1.09492e-5 
            610      2.03754e-5 
            620      3.71163e-5 
            630      6.62518e-5 
            640      0.00011599 
            650     0.000199359 
            658     0.000303601 
            665     0.000434782 
            675     0.000716234 
            685      0.00116152 
            695      0.00185578 
            705       0.0029228 
            716      0.00474167 
            726      0.00726118 
            735       0.0105419 
            745       0.0157703 
            755       0.0233218 
            765       0.0341076 
            775       0.0493535 
            785       0.0706905 
            795        0.100253 
            805        0.140844 
            815        0.196071 
            825        0.270581 
            835        0.370264 
            845        0.502568 
            855        0.676801 
            865        0.904634 
            875         1.20032 
            885         1.58152 
            895         2.06964 
            905          2.6907 
            915         4.30211 
            925         11.6696 
            935         18.3011 
            945          30.159 
            955         42.2487 
            965         53.3848 
            975         46.7273 
            985         93.2597 
            995         117.335 
           1005         129.226 
           1015         126.418 
           1025         115.723 
           1035         196.435 
           1045         282.244 
           1055         346.224 
           1065         437.039 
           1075         513.314 
           1085         616.733 
           1095         698.899 
           1105         790.499 
           1115         890.836 
           1125         1009.26 
           1135         1126.51 
           1145         1232.06 
           1155         1317.71 
           1165         1383.29 
           1175         1395.15 
           1185         2026.21 
           1195         1741.53 
           1205         1501.57 
           1215         1123.43 
           1225         1835.34 
           1235         2764.66 
           1245         850.252 
           1255         2489.01 
           1265         4215.48 
           1275         5073.12 
           1285         6035.06 
           1295         7217.06 
           1305         8590.76 
           1315         10209.4 
           1325           12033 
           1335         14050.1 
           1345         16646.7 
           1355         19995.7 
           1365         23365.3 
           1375         26262.7 
           1385         28777.7 
           1395         32646.9 
           1405         38283.2 
           1415         49289.2 
           1425           54160 
           1435         62575.3 
           1442         71970.1 
           1447         67279.5 
           1455         73136.6 
           1465         74458.6 
           1475         81182.2 
           1485         89949.7 
           1495          101503 
           1505          109413 
           1512          117468 
           1517          108760 
           1525          112504 
           1535          114588 
           1545          111411 
           1555          114745 
           1565          113438 
           1575          118953 
           1585          124148 
           1595          130290 
           1605          138246 
           1615          159388 
           1625          213872 
           1635          402417 
           1645       1.1806e+6 
           1655      2.21896e+6 
           1665       4.6397e+6 
           1672      5.98908e+6 
           1677      7.05789e+6 
           1685       8.3808e+6 
           1695      9.93217e+6 
           1705      1.11227e+7 
           1715      1.22514e+7 
           1725      1.28606e+7 
           1735      1.35124e+7 
           1745      1.36611e+7 
           1755      1.40893e+7 
           1765      1.42687e+7 
           1775      1.45377e+7 
           1785      1.47631e+7 
           1795      1.51649e+7 
           1805      1.51014e+7 
           1815      1.53358e+7 
           1825      1.54509e+7 
           1835      1.58077e+7 
           1845       1.5608e+7 
           1855      1.60303e+7 
           1865       1.6408e+7 
           1875      1.65603e+7 
           1885      1.67286e+7 
           1895      1.69008e+7 
           1905      1.69138e+7 
           1915      1.72101e+7 
           1925      1.73897e+7 
           1935      1.72396e+7 
           1945      1.76722e+7 
           1955      1.78014e+7 
           1967      1.79675e+7 
           1976       1.7946e+7 
           1984      1.79442e+7 
           1995      1.82779e+7 
           2005      1.83237e+7 
           2015      1.84105e+7 
           2025      1.83724e+7 
           2035      1.87017e+7 
           2045      1.87985e+7 
           2055      1.87017e+7 
           2065      1.88178e+7 
           2074      1.91103e+7 
           2078       1.9145e+7 
           2085      1.91717e+7 
           2095      1.92681e+7 
           2105      1.93405e+7 
           2115      1.94402e+7 
           2125      1.93428e+7 
           2135      1.95513e+7 
           2145      1.96781e+7 
           2155      1.97279e+7 
           2165      1.95782e+7 
           2175      1.97402e+7 
           2185       1.9904e+7 
           2195      2.00194e+7 
           2205      1.98948e+7 
           2215      1.95743e+7 
           2225      1.99763e+7 
           2235      2.02505e+7 
           2245      2.02536e+7 
           2255      2.01136e+7 
           2265      2.00326e+7 
           2275      2.02507e+7 
           2285      2.03682e+7 
           2295       2.0327e+7 
           2305      2.04779e+7 
           2315      2.04644e+7 
           2325      2.04435e+7 
           2335      2.03164e+7 
           2345      1.98393e+7 
           2355      2.04476e+7 
           2365      1.99363e+7 
           2375      2.04039e+7 
           2385      1.97682e+7 
           2395      2.03667e+7 
           2405      2.04146e+7 
           2415      2.04286e+7 
           2425      2.08736e+7 
           2435      2.07546e+7 
           2445      2.08158e+7 
           2455      2.09122e+7 
           2465      2.08173e+7 
           2475      2.07903e+7 
           2485      2.06477e+7 
           2495      2.06078e+7 
           2505      2.08806e+7 
           2513      2.05451e+7 
           2518      2.04802e+7 
           2525      2.04637e+7 
           2535       2.0608e+7 
           2545       2.0825e+7 
           2555      2.10322e+7 
           2565      2.07953e+7 
           2575         2.09e+7 
           2585      2.08874e+7 
           2595      2.08543e+7 
           2605      2.07867e+7 
           2615      2.07514e+7 
           2625      2.07729e+7 
           2635      2.08619e+7 
           2645      2.12752e+7 
           2655      2.12697e+7 
           2665      2.11751e+7 
           2675      2.11966e+7 
           2685      2.12679e+7 
           2695      2.12328e+7 
           2705      2.12496e+7 
           2715      2.10458e+7 
           2725       2.1018e+7 
           2735      2.10655e+7 
           2745      2.05388e+7 
           2755      2.07106e+7 
           2765      2.10213e+7 
           2775      2.12003e+7 
           2785      2.11416e+7 
           2795      2.02446e+7 
           2805      2.07368e+7 
           2815      2.12311e+7 
           2825      2.12184e+7 
           2835      2.11388e+7 
           2845      2.11562e+7 
           2855      2.08585e+7 
           2865      2.10918e+7 
           2875      2.11285e+7 
           2885      2.10185e+7 
           2895       2.1146e+7 
           2910      2.11438e+7 
           2930      2.10392e+7 
           2950      2.09934e+7 
           2970      2.10238e+7 
           2990      2.09753e+7 
           3010      2.09835e+7 
           3030       2.0952e+7 
           3050      2.09312e+7 
           3070       2.0868e+7 
           3090      2.08588e+7 
           3110      2.08313e+7 
           3130      2.07951e+7 
           3150      2.07479e+7 
           3170       2.0719e+7 
           3190      2.06285e+7 
           3210      2.06292e+7 
           3230      2.05197e+7 
           3250       2.0539e+7 
           3270      2.05257e+7 
           3290      2.04864e+7 
           3310      2.04424e+7 
           3330      2.03773e+7 
           3350      2.03019e+7 
           3370       2.0267e+7 
           3390      2.02249e+7 
           3410      2.02035e+7 
           3430      2.01534e+7 
           3450      2.00964e+7 
           3470      2.00484e+7 
           3490      2.00005e+7 
           3510      1.99506e+7 
           3530      1.99002e+7 
           3550      1.98479e+7 
           3570       1.9784e+7 
           3590      1.97317e+7 
           3610      1.96778e+7 
           3630      1.96251e+7 
           3640      1.95971e+7 
           3650      1.96612e+7 
           3670       1.9589e+7 
           3690      1.88682e+7 
           3710      1.98373e+7 
           3730      2.04832e+7 
           3750      2.51566e+7 
           3770      2.62141e+7 
           3790      3.00275e+7 
           3810      3.40705e+7 
           3830      2.85201e+7 
           3850      3.68965e+7 
           3870      4.01307e+7 
           3890      2.60438e+7 
           3910      4.00457e+7 
           3930      4.18271e+7 
           3950      3.98472e+7 
           3970      2.54708e+7 
           3990       3.8553e+7 
           4010      4.16555e+7 
           4030      4.18508e+7 
           4050      4.14339e+7 
           4070      4.01817e+7 
           4090      3.34794e+7 
           4110      2.69945e+7 
           4130      3.86538e+7 
           4150      3.98461e+7 
           4170      3.98808e+7 
           4190      3.96791e+7 
           4210       3.9405e+7 
           4230      3.90901e+7 
           4250      3.87585e+7 
           4270      3.83591e+7 
           4290      3.77894e+7 
           4310      3.64701e+7 
           4330      2.96157e+7 
           4350      2.58619e+7 
           4370       3.5298e+7 
           4390      3.62888e+7 
           4410      3.63226e+7 
           4430      3.61547e+7 
           4450      3.59179e+7 
           4470      3.57179e+7 
           4490      3.54415e+7 
           4510      3.51668e+7 
           4530      3.48937e+7 
           4550      3.46203e+7 
           4570      3.43523e+7 
           4590      3.40857e+7 
           4610      3.38225e+7 
           4630      3.35591e+7 
           4650      3.32989e+7 
           4670      3.30385e+7 
           4690      3.27796e+7 
           4710      3.25171e+7 
           4730      3.22359e+7 
           4750      3.19316e+7 
           4770      3.16379e+7 
           4790      3.12955e+7 
           4810      3.08078e+7 
           4830      2.97425e+7 
           4850       2.5071e+7 
           4870      2.11056e+7 
           4890      2.85807e+7 
           4910      2.95344e+7 
           4930      2.96099e+7 
           4950      2.94941e+7 
           4970      2.93152e+7 
           4990      2.91503e+7 
           5010      2.89405e+7 
           5030      2.87227e+7 
           5050      2.85031e+7 
           5070      2.82845e+7 
           5090      2.80685e+7 
           5110       2.7855e+7 
           5130      2.76425e+7 
           5150      2.74325e+7 
           5170      2.72094e+7 
           5190      2.70098e+7 
           5210      2.68112e+7 
           5230      2.66065e+7 
           5250      2.64069e+7 
           5270      2.62042e+7 
           5290      2.60064e+7 
           5310      2.58082e+7 
           5330      2.56122e+7 
           5350      2.54198e+7 
           5370      2.52269e+7 
           5390      2.50374e+7 
           5410      2.48488e+7 
           5430      2.46609e+7 
           5450      2.44765e+7 
           5470      2.42928e+7 
           5490      2.41111e+7 
           5510      2.39302e+7 
           5530      2.37512e+7 
           5550      2.35743e+7 
           5570       2.3398e+7 
           5590      2.32236e+7 
           5610      2.30499e+7 
           5630      2.28793e+7 
           5650      2.27094e+7 
           5670      2.25413e+7 
           5690      2.23749e+7 
           5710      2.22092e+7 
           5730      2.20453e+7 
           5750      2.18831e+7 
           5770      2.17214e+7 
           5790      2.15626e+7 
           5810      2.14044e+7 
           5830      2.12467e+7 
           5850      2.10918e+7 
           5870      2.09374e+7 
           5890      2.07824e+7 
           5910      2.06333e+7 
           5930      2.04826e+7 
           5950      2.03345e+7 
           5970      2.01858e+7 
           5990      2.00397e+7 
           6010       1.9894e+7 
           6030      1.97498e+7 
           6050      1.96071e+7 
           6070      1.94659e+7 
           6090       1.9326e+7 
           6110      1.91866e+7 
           6130      1.90486e+7 
           6150      1.89119e+7 
           6170      1.87757e+7 
           6190      1.86417e+7 
           6210      1.85092e+7 
           6230      1.83769e+7 
           6250       1.8246e+7 
           6270      1.81164e+7 
           6290      1.79871e+7 
           6310        1.786e+7 
           6330      1.77332e+7 
           6350      1.76076e+7 
           6370      1.74833e+7 
           6390      1.73602e+7 
           6410      1.72374e+7 
           6430      1.71167e+7 
           6450      1.69563e+7 
           6470      1.68166e+7 
           6490      1.66549e+7 
           6510      1.64363e+7 
           6530      1.60107e+7 
           6550      1.44387e+7 
           6570      1.20067e+7 
           6590      1.53197e+7 
           6610      1.57841e+7 
           6630      1.58296e+7 
           6650       1.5778e+7 
           6670      1.56953e+7 
           6690      1.56193e+7 
           6710      1.55205e+7 
           6730      1.54134e+7 
           6750      1.53073e+7 
           6770      1.52022e+7 
           6790      1.50981e+7 
           6810      1.49941e+7 
           6830      1.48919e+7 
           6850      1.47898e+7 
           6870      1.46886e+7 
           6890      1.45884e+7 
           6910      1.44891e+7 
           6930      1.43907e+7 
           6950      1.42931e+7 
           6970      1.41965e+7 
           6990         1.41e+7 
           7010       1.4005e+7 
           7030      1.39102e+7 
           7050       1.3817e+7 
           7070      1.37239e+7 
           7090      1.36316e+7 
           7110      1.35408e+7 
           7130      1.34501e+7 
           7150      1.33595e+7 
           7170      1.32705e+7 
           7190      1.31822e+7 
           7210      1.30946e+7 
           7230      1.30071e+7 
           7250      1.29211e+7 
           7270      1.28352e+7 
           7290        1.275e+7 
           7310      1.26655e+7 
           7330      1.25817e+7 
           7350      1.24987e+7 
           7370      1.24164e+7 
           7390      1.23348e+7 
           7410      1.22539e+7 
           7430      1.21737e+7 
           7450      1.20935e+7 
           7470      1.20146e+7 
           7490      1.19358e+7 
           7510      1.18576e+7 
           7530      1.17807e+7 
           7550      1.17039e+7 
           7570      1.16277e+7 
           7590      1.15521e+7 
           7610      1.14771e+7 
           7630      1.14028e+7 
           7650      1.13291e+7 
           7670       1.1256e+7 
           7690      1.11835e+7 
           7710       1.1111e+7 
           7730      1.10397e+7 
           7750       1.0969e+7 
           7770      1.08976e+7 
           7790      1.08287e+7 
           7810      1.07597e+7 
           7830      1.06907e+7 
           7850      1.06228e+7 
           7870      1.05549e+7 
           7890      1.04876e+7 
           7910      1.04213e+7 
           7930      1.03551e+7 
           7950      1.02893e+7 
           7970      1.02241e+7 
           7990        1.016e+7 
           8010      1.00958e+7 
           8030      1.00322e+7 
           8050      9.96899e+6 
           8070      9.90634e+6 
           8090      9.84418e+6 
           8110      9.78251e+6 
           8130      9.72133e+6 
           8150      9.66063e+6 
           8170      9.59984e+6 
           8190       9.5401e+6 
           8210      9.48809e+6 
           8230      9.43146e+6 
           8250      9.37582e+6 
           8270      9.32061e+6 
           8290      9.26583e+6 
           8310      9.21037e+6 
           8330      9.15371e+6 
           8350      9.09694e+6 
           8370       9.0347e+6 
           8390      8.97509e+6 
           8410      8.91061e+6 
           8430      8.86202e+6 
           8450      8.81168e+6 
           8470      8.67612e+6 
           8490       8.7372e+6 
           8510      8.49747e+6 
           8530      8.66581e+6 
           8550      8.22025e+6 
           8570       8.6246e+6 
           8590      8.29347e+6 
