# Kurucz ODFNEW /NOVER (2003)
# teff = 25000 K (value for the effective temperature for the model. Temperatures are given in K)
# logg = 4.5 log(cm/s2) (value for Log(G) for the model.)
# meta = -1  (value for the Metallicity for the model.)
# lh = 1.25  (l/Hp where l is the  mixing length of the convective element and Hp is the pressure scale height)
# vtur = 2 km/s (Microturbulence velocity)
# alpha = 0.4  (Alpha)
#
# column 1: WAVELENGTH (ANGSTROM), Wavelength in Angstrom
# column 2: FLUX (ERG/CM2/S/A), Flux in erg/cm2/s/A
          147.2     3.93719e-14 
            151      1.7271e-13 
          155.2     8.18897e-13 
          158.8      2.9269e-12 
            162     8.69676e-12 
            166     3.21265e-11 
          170.3     1.22771e-10 
          173.4     3.10705e-10 
          176.8     8.30261e-10 
          180.2      2.14225e-9 
          181.7       3.2197e-9 
          186.1      1.02695e-8 
            191      3.51945e-8 
          193.9      7.09206e-8 
          198.4       2.0222e-7 
          201.8      4.33001e-7 
            205      8.66778e-7 
          210.5      2.72288e-6 
          216.2      8.39013e-6 
          219.8       1.6572e-5 
            223       2.9792e-5 
          226.8      5.85042e-5 
            230      0.00206923 
            234      0.00476395 
            240       0.0113052 
          246.5       0.0274526 
          252.4       0.0597804 
          256.8       0.0989435 
            260        0.152141 
            264        0.241575 
          268.5        0.401806 
          273.5        0.689777 
          278.5         1.16678 
            284         2.05058 
            290         3.64751 
            296         6.33099 
            301         9.82604 
            308         17.2599 
            318         40.2755 
            328         83.9748 
            338         172.348 
            348         333.415 
            357          619.68 
            366         1072.93 
            375         1743.44 
            385         2968.34 
            395         4875.21 
            405         7779.65 
            414         11717.6 
            422         16268.9 
            430           22561 
            441         34679.9 
            451         50511.9 
            460         68922.3 
            470         96783.1 
            480          133046 
            490          181100 
            500          243563 
            506      1.56777e+6 
            512      5.60199e+6 
            520      6.66716e+6 
            530      8.57103e+6 
            540      9.19395e+6 
            550      1.24408e+7 
            560      1.42415e+7 
            570      1.70346e+7 
            580      1.70637e+7 
            590      2.17369e+7 
            600      2.50829e+7 
            610      2.91492e+7 
            620      3.23101e+7 
            630      3.64029e+7 
            640      3.85246e+7 
            650      4.22472e+7 
            658      4.82019e+7 
            665      5.20448e+7 
            675      5.56356e+7 
            685      6.02719e+7 
            695      6.99862e+7 
            705      7.44841e+7 
            716      8.33035e+7 
            726      8.89439e+7 
            735      9.57192e+7 
            745      1.05439e+8 
            755      1.13754e+8 
            765      1.22187e+8 
            775      1.32107e+8 
            785       1.4209e+8 
            795      1.49881e+8 
            805       1.5965e+8 
            815      1.68353e+8 
            825      1.80697e+8 
            835       1.8263e+8 
            845      1.98789e+8 
            855      2.09054e+8 
            865      2.22138e+8 
            875      2.35561e+8 
            885      2.49888e+8 
            895      2.62244e+8 
            905       2.6919e+8 
            915      3.61892e+8 
            925      1.84665e+9 
            935      5.18538e+9 
            945      1.5324e+10 
            955     2.26961e+10 
            965     3.04203e+10 
            975      8.67929e+9 
            985     3.42329e+10 
            995        3.21e+10 
           1005     3.40708e+10 
           1015     3.08017e+10 
           1025       9.2753e+9 
           1035     2.55043e+10 
           1045      3.5716e+10 
           1055     3.42535e+10 
           1065     2.96398e+10 
           1075     3.21618e+10 
           1085     2.93742e+10 
           1095     3.18312e+10 
           1105      2.9135e+10 
           1115     2.85856e+10 
           1125     2.55463e+10 
           1135     2.85706e+10 
           1145     2.57823e+10 
           1155     2.68024e+10 
           1165     2.66765e+10 
           1175     2.09146e+10 
           1185     2.52671e+10 
           1195     2.27872e+10 
           1205     1.66619e+10 
           1215      6.92173e+9 
           1225     1.84064e+10 
           1235     2.22277e+10 
           1245     2.22369e+10 
           1255     2.16452e+10 
           1265     2.13771e+10 
           1275     2.15761e+10 
           1285     2.10394e+10 
           1295     1.72116e+10 
           1305     1.74678e+10 
           1315     1.98076e+10 
           1325     1.88639e+10 
           1335     1.81759e+10 
           1345     1.80255e+10 
           1355     1.81189e+10 
           1365     1.70648e+10 
           1375     1.67888e+10 
           1385     1.66619e+10 
           1395     1.41911e+10 
           1405     1.46528e+10 
           1415     1.54101e+10 
           1425     1.50126e+10 
           1435     1.50017e+10 
           1442     1.51444e+10 
           1447     1.48804e+10 
           1455      1.4559e+10 
           1465     1.40407e+10 
           1475     1.38403e+10 
           1485     1.34936e+10 
           1495     1.32506e+10 
           1505     1.24685e+10 
           1512     1.19343e+10 
           1517     1.20948e+10 
           1525     1.20388e+10 
           1535     1.10971e+10 
           1545     1.11308e+10 
           1555     1.06373e+10 
           1565      1.0926e+10 
           1575     1.10679e+10 
           1585     1.08531e+10 
           1595     1.07964e+10 
           1605     1.04596e+10 
           1615     1.02355e+10 
           1625     1.01697e+10 
           1635     1.02429e+10 
           1645      9.97753e+9 
           1655      9.87382e+9 
           1665      9.82923e+9 
           1672      9.56868e+9 
           1677      9.81472e+9 
           1685      9.61705e+9 
           1695      9.32112e+9 
           1705      9.03132e+9 
           1715      8.72034e+9 
           1725      8.58066e+9 
           1735      8.59242e+9 
           1745      8.43558e+9 
           1755      8.41347e+9 
           1765      8.08658e+9 
           1775      7.92613e+9 
           1785      7.86949e+9 
           1795      7.90658e+9 
           1805      7.84084e+9 
           1815      7.47129e+9 
           1825      7.50037e+9 
           1835      7.32576e+9 
           1845      6.84261e+9 
           1855      6.77342e+9 
           1865      6.81492e+9 
           1875      6.87808e+9 
           1885      6.38905e+9 
           1895      6.04767e+9 
           1905       6.3212e+9 
           1915      6.06891e+9 
           1925      5.87609e+9 
           1935      6.02047e+9 
           1945      6.06776e+9 
           1955      5.66194e+9 
           1967      5.85607e+9 
           1976      6.00305e+9 
           1984      5.67393e+9 
           1995      5.52738e+9 
           2005      5.58334e+9 
           2015      5.56833e+9 
           2025      5.60736e+9 
           2035      5.32623e+9 
           2045      5.28553e+9 
           2055      5.11155e+9 
           2065      5.13002e+9 
           2074      5.21924e+9 
           2078      5.00636e+9 
           2085      5.03415e+9 
           2095       4.8578e+9 
           2105      4.92806e+9 
           2115      4.88595e+9 
           2125      4.90456e+9 
           2135      4.80484e+9 
           2145      4.65984e+9 
           2155      4.68987e+9 
           2165       4.6386e+9 
           2175      4.56021e+9 
           2185      4.49939e+9 
           2195       4.4656e+9 
           2205      4.40311e+9 
           2215      4.34793e+9 
           2225      4.26472e+9 
           2235      4.20266e+9 
           2245      4.17861e+9 
           2255      4.09948e+9 
           2265      4.07246e+9 
           2275      4.01738e+9 
           2285      3.97594e+9 
           2295      3.84081e+9 
           2305      3.86421e+9 
           2315      3.79434e+9 
           2325      3.75041e+9 
           2335      3.67082e+9 
           2345      3.63985e+9 
           2355      3.61634e+9 
           2365      3.56481e+9 
           2375      3.51315e+9 
           2385      3.46838e+9 
           2395      3.42726e+9 
           2405      3.38273e+9 
           2415      3.33133e+9 
           2425      3.31448e+9 
           2435      3.25466e+9 
           2445      3.22342e+9 
           2455      3.19365e+9 
           2465      3.15112e+9 
           2475      3.11144e+9 
           2485      3.07223e+9 
           2495      2.92637e+9 
           2505      2.99083e+9 
           2513      2.90834e+9 
           2518      2.93834e+9 
           2525      2.91776e+9 
           2535      2.88294e+9 
           2545       2.8124e+9 
           2555      2.81121e+9 
           2565      2.77289e+9 
           2575      2.75805e+9 
           2585      2.72655e+9 
           2595      2.69461e+9 
           2605      2.67685e+9 
           2615      2.64787e+9 
           2625      2.62025e+9 
           2635      2.58694e+9 
           2645      2.56101e+9 
           2655      2.52973e+9 
           2665      2.48553e+9 
           2675      2.46082e+9 
           2685      2.45068e+9 
           2695      2.39367e+9 
           2705       2.3878e+9 
           2715      2.36257e+9 
           2725      2.31609e+9 
           2735      2.31102e+9 
           2745      2.26822e+9 
           2755      2.24995e+9 
           2765      2.21202e+9 
           2775      2.21289e+9 
           2785      2.18498e+9 
           2795      2.11309e+9 
           2805      2.12166e+9 
           2815      2.11631e+9 
           2825      2.06935e+9 
           2835      2.03303e+9 
           2845      2.04594e+9 
           2855      2.02211e+9 
           2865      2.00265e+9 
           2875      1.98072e+9 
           2885      1.96027e+9 
           2895      1.93821e+9 
           2910      1.90489e+9 
           2930      1.86278e+9 
           2950       1.8109e+9 
           2970      1.78868e+9 
           2990      1.74849e+9 
           3010      1.71098e+9 
           3030      1.67997e+9 
           3050      1.64607e+9 
           3070      1.61318e+9 
           3090      1.57118e+9 
           3110      1.54745e+9 
           3130      1.51674e+9 
           3150      1.48706e+9 
           3170      1.45685e+9 
           3190      1.41509e+9 
           3210      1.40055e+9 
           3230      1.37199e+9 
           3250      1.34581e+9 
           3270       1.3214e+9 
           3290       1.2939e+9 
           3310       1.2716e+9 
           3330      1.24717e+9 
           3350      1.22141e+9 
           3370      1.20049e+9 
           3390       1.1785e+9 
           3410      1.15671e+9 
           3430      1.12969e+9 
           3450       1.1046e+9 
           3470      1.08746e+9 
           3490      1.06739e+9 
           3510      1.05064e+9 
           3530      1.03427e+9 
           3550      1.01595e+9 
           3570      1.00395e+9 
           3590      9.77858e+8 
           3610      9.63815e+8 
           3630      9.44475e+8 
           3640      9.43871e+8 
           3650      9.26122e+8 
           3670      9.14685e+8 
           3690      8.97797e+8 
           3710      8.66548e+8 
           3730      8.30554e+8 
           3750      8.48776e+8 
           3770      8.41491e+8 
           3790      8.87815e+8 
           3810      9.26661e+8 
           3830      8.05753e+8 
           3850      9.56254e+8 
           3870      9.70543e+8 
           3890      7.59329e+8 
           3910      9.57687e+8 
           3930      9.44013e+8 
           3950      9.26702e+8 
           3970      7.06471e+8 
           3990      8.87154e+8 
           4010      8.89549e+8 
           4030      8.31334e+8 
           4050      8.70181e+8 
           4070      8.43615e+8 
           4090      7.65886e+8 
           4110      6.67279e+8 
           4130      7.91474e+8 
           4150      7.89005e+8 
           4170      7.84856e+8 
           4190      7.73905e+8 
           4210      7.63083e+8 
           4230      7.49694e+8 
           4250      7.35126e+8 
           4270      7.17449e+8 
           4290      7.08523e+8 
           4310      6.90849e+8 
           4330      6.15783e+8 
           4350      5.60002e+8 
           4370      6.55675e+8 
           4390      6.32942e+8 
           4410       6.4275e+8 
           4430      6.32486e+8 
           4450      6.24778e+8 
           4470      5.82999e+8 
           4490       6.0282e+8 
           4510      5.97022e+8 
           4530      5.87301e+8 
           4550      5.77382e+8 
           4570      5.68028e+8 
           4590      5.59548e+8 
           4610      5.50875e+8 
           4630      5.42646e+8 
           4650      5.30758e+8 
           4670      5.25651e+8 
           4690        5.189e+8 
           4710       5.0163e+8 
           4730      5.02129e+8 
           4750      4.93935e+8 
           4770       4.8899e+8 
           4790      4.81402e+8 
           4810      4.72115e+8 
           4830      4.61398e+8 
           4850       4.2006e+8 
           4870      3.74158e+8 
           4890      4.39904e+8 
           4910      4.37906e+8 
           4930      4.20643e+8 
           4950      4.27168e+8 
           4970      4.21922e+8 
           4990      4.15717e+8 
           5010      4.02799e+8 
           5030      4.03786e+8 
           5050      3.94419e+8 
           5070      3.92662e+8 
           5090      3.87023e+8 
           5110      3.81503e+8 
           5130      3.75872e+8 
           5150      3.70643e+8 
           5170      3.65836e+8 
           5190      3.60826e+8 
           5210      3.55257e+8 
           5230      3.51017e+8 
           5250      3.46215e+8 
           5270      3.41436e+8 
           5290      3.36853e+8 
           5310      3.32263e+8 
           5330      3.27705e+8 
           5350      3.23114e+8 
           5370      3.19079e+8 
           5390       3.1477e+8 
           5410      3.10581e+8 
           5430      3.06265e+8 
           5450      3.02271e+8 
           5470       2.9829e+8 
           5490      2.94495e+8 
           5510      2.90649e+8 
           5530      2.86826e+8 
           5550      2.83148e+8 
           5570       2.7943e+8 
           5590      2.75879e+8 
           5610       2.7224e+8 
           5630      2.68847e+8 
           5650         2.65e+8 
           5670       2.6154e+8 
           5690       2.5818e+8 
           5710      2.55289e+8 
           5730      2.52133e+8 
           5750      2.48718e+8 
           5770      2.45877e+8 
           5790      2.42799e+8 
           5810      2.39746e+8 
           5830      2.36741e+8 
           5850      2.33837e+8 
           5870      2.23051e+8 
           5890      2.27251e+8 
           5910       2.2523e+8 
           5930      2.22471e+8 
           5950      2.19648e+8 
           5970      2.17174e+8 
           5990      2.14435e+8 
           6010      2.11946e+8 
           6030      2.09372e+8 
           6050      2.06878e+8 
           6070      2.04403e+8 
           6090      2.01955e+8 
           6110      1.99576e+8 
           6130      1.97203e+8 
           6150      1.94707e+8 
           6170      1.92536e+8 
           6190      1.90311e+8 
           6210      1.88081e+8 
           6230      1.85885e+8 
           6250      1.83666e+8 
           6270      1.81566e+8 
           6290      1.79471e+8 
           6310       1.7736e+8 
           6330      1.75357e+8 
           6350      1.73077e+8 
           6370       1.7125e+8 
           6390      1.69386e+8 
           6410      1.67441e+8 
           6430       1.6559e+8 
           6450      1.63704e+8 
           6470      1.61767e+8 
           6490      1.59975e+8 
           6510       1.5791e+8 
           6530      1.55353e+8 
           6550      1.47179e+8 
           6570      1.30069e+8 
           6590      1.48668e+8 
           6610      1.49081e+8 
           6630      1.47934e+8 
           6650      1.46424e+8 
           6670      1.43134e+8 
           6690      1.41606e+8 
           6710        1.417e+8 
           6730      1.40119e+8 
           6750      1.38653e+8 
           6770      1.37153e+8 
           6790      1.35512e+8 
           6810      1.34198e+8 
           6830      1.32743e+8 
           6850       1.3135e+8 
           6870      1.29948e+8 
           6890      1.28552e+8 
           6910      1.27178e+8 
           6930      1.25841e+8 
           6950      1.24525e+8 
           6970      1.23214e+8 
           6990      1.21916e+8 
           7010      1.20639e+8 
           7030      1.19374e+8 
           7050      1.18137e+8 
           7070      1.14899e+8 
           7090      1.15699e+8 
           7110      1.14497e+8 
           7130      1.13322e+8 
           7150      1.12151e+8 
           7170      1.10991e+8 
           7190      1.09872e+8 
           7210      1.08756e+8 
           7230       1.0706e+8 
           7250      1.06527e+8 
           7270      1.05478e+8 
           7290      1.03497e+8 
           7310      1.03347e+8 
           7330      1.02321e+8 
           7350      1.01298e+8 
           7370      1.00284e+8 
           7390      9.92869e+7 
           7410      9.82988e+7 
           7430      9.73131e+7 
           7450      9.63705e+7 
           7470      9.53691e+7 
           7490      9.44777e+7 
           7510      9.35209e+7 
           7530      9.26328e+7 
           7550      9.17329e+7 
           7570      9.08412e+7 
           7590      8.99577e+7 
           7610      8.90756e+7 
           7630       8.8221e+7 
           7650      8.73741e+7 
           7670      8.65348e+7 
           7690       8.5703e+7 
           7710      8.48787e+7 
           7730      8.40681e+7 
           7750      8.32647e+7 
           7770      8.23124e+7 
           7790      8.16916e+7 
           7810      8.08661e+7 
           7830      8.01525e+7 
           7850      7.94511e+7 
           7870       7.8695e+7 
           7890      7.78608e+7 
           7910      7.72689e+7 
           7930      7.65382e+7 
           7950      7.57482e+7 
           7970      7.49297e+7 
           7990      7.42127e+7 
           8010       7.3549e+7 
           8030      7.28618e+7 
           8050      7.21979e+7 
           8070      7.15512e+7 
           8090      7.08065e+7 
           8110      7.02171e+7 
           8130      6.96498e+7 
           8150      6.89567e+7 
           8170      6.84276e+7 
           8190      6.77007e+7 
           8210      6.69241e+7 
           8230      6.64824e+7 
           8250      6.59391e+7 
           8270      6.49926e+7 
           8290      6.47177e+7 
           8310       6.4172e+7 
           8330       6.3571e+7 
           8350      6.26779e+7 
           8370      6.23357e+7 
           8390      6.18944e+7 
           8410      6.13447e+7 
           8430      6.07518e+7 
           8450      5.97417e+7 
           8470      5.96647e+7 
           8490      5.89919e+7 
           8510      5.85069e+7 
           8530      5.79636e+7 
           8550      5.70486e+7 
           8570        5.747e+7 
