# Kurucz ODFNEW /NOVER (2003)
# teff = 9000 K (value for the effective temperature for the model. Temperatures are given in K)
# logg = 4.5 log(cm/s2) (value for Log(G) for the model.)
# meta = -2  (value for the Metallicity for the model.)
# lh = 1.25  (l/Hp where l is the  mixing length of the convective element and Hp is the pressure scale height)
# vtur = 2 km/s (Microturbulence velocity)
# alpha = 0  (Alpha)
#
# column 1: WAVELENGTH (ANGSTROM), Wavelength in Angstrom
# column 2: FLUX (ERG/CM2/S/A), Flux in erg/cm2/s/A
            264     1.91359e-23 
          268.5     1.16031e-22 
          273.5     5.31485e-22 
          278.5     2.20081e-21 
            284     9.86944e-21 
            290      4.7398e-20 
            296     2.13209e-19 
            301     7.12493e-19 
            308     3.60614e-18 
            318     3.22074e-17 
            328     2.50699e-16 
            338     1.72216e-15 
            348     1.05537e-14 
            357     4.93137e-14 
            366     2.13071e-13 
            375     8.55849e-13 
            385     3.70668e-12 
            395     1.48613e-11 
            405     5.54741e-11 
            414     1.71513e-10 
            422     4.48372e-10 
            430      1.12927e-9 
            441      3.79749e-9 
            451      1.08375e-8 
            460      2.67325e-8 
            470      6.98476e-8 
            480      1.74957e-7 
            490      4.21322e-7 
            500      9.77703e-7 
            506      1.61485e-6 
            512      2.61511e-6 
            520      4.84008e-6 
            530      1.01683e-5 
            540      2.07305e-5 
            550      4.11451e-5 
            560      7.95396e-5 
            570     0.000150008 
            580     0.000276298 
            590     0.000498222 
            600      0.00087936 
            610       0.0015214 
            620      0.00258252 
            630      0.00430538 
            640      0.00705558 
            650       0.0113759 
            658       0.0164835 
            665       0.0226221 
            675       0.0351234 
            685       0.0537814 
            695       0.0812617 
            705         0.12123 
            716         0.18561 
            726        0.270091 
            735        0.374983 
            745        0.534484 
            755        0.754021 
            765         1.05328 
            775         1.45749 
            785         1.99869 
            795         2.71705 
            805         3.66262 
            815         4.89741 
            825          6.4976 
            835         8.55662 
            845         11.1875 
            855          14.526 
            865         18.7346 
            875         24.0064 
            885         30.5703 
            895         38.6952 
            905         48.6927 
            915         89.8373 
            925         332.085 
            935         584.987 
            945         1129.31 
            955         1786.81 
            965         2461.62 
            975         1722.74 
            985         4549.21 
            995         6130.26 
           1005         6951.79 
           1015         5795.98 
           1025         3161.75 
           1035         7523.16 
           1045           12526 
           1055           16288 
           1065         24292.9 
           1075         48270.3 
           1085         98516.6 
           1095          128048 
           1105          376012 
           1115       1.6824e+6 
           1125      1.61926e+6 
           1135      1.61626e+6 
           1145          824565 
           1155          301067 
           1165          107821 
           1175         68981.2 
           1185         70601.3 
           1195         42879.9 
           1205         30895.4 
           1215         13198.3 
           1225           34248 
           1235         62769.9 
           1245           81732 
           1255          123568 
           1265          186116 
           1275          456907 
           1285      2.12633e+6 
           1295      4.03568e+6 
           1305      6.96375e+6 
           1315      9.94902e+6 
           1325      1.39514e+7 
           1335      1.74918e+7 
           1345      2.18225e+7 
           1355      2.29728e+7 
           1365      2.52154e+7 
           1375      2.24767e+7 
           1385      1.81153e+7 
           1395      1.61111e+7 
           1405      2.75978e+7 
           1415      4.41243e+7 
           1425      4.79023e+7 
           1435      4.68455e+7 
           1442       5.2722e+7 
           1447      5.03773e+7 
           1455      5.45673e+7 
           1465      5.07759e+7 
           1475      5.27737e+7 
           1485      5.31741e+7 
           1495      5.40512e+7 
           1505      5.58834e+7 
           1512      5.55715e+7 
           1517      5.31791e+7 
           1525      5.35914e+7 
           1535      5.20224e+7 
           1545      5.01817e+7 
           1555      4.63927e+7 
           1565      3.86677e+7 
           1575      4.06173e+7 
           1585      3.92771e+7 
           1595      3.87432e+7 
           1605      3.73377e+7 
           1615      4.43774e+7 
           1625      4.93156e+7 
           1635       5.7129e+7 
           1645      6.53743e+7 
           1655      6.02033e+7 
           1665      7.07982e+7 
           1672      6.64091e+7 
           1677      6.94684e+7 
           1685      7.28295e+7 
           1695      6.98707e+7 
           1705      7.00488e+7 
           1715      7.26439e+7 
           1725      7.14838e+7 
           1735      7.33979e+7 
           1745      7.16263e+7 
           1755      7.31546e+7 
           1765      6.91802e+7 
           1775      7.19171e+7 
           1785      7.09161e+7 
           1795      7.26105e+7 
           1805      7.09976e+7 
           1815      7.04072e+7 
           1825      6.90247e+7 
           1835      6.93574e+7 
           1845      6.67317e+7 
           1855      6.81951e+7 
           1865      6.85207e+7 
           1875      6.85515e+7 
           1885      6.82968e+7 
           1895      6.81339e+7 
           1905      6.68641e+7 
           1915      6.70942e+7 
           1925      6.74786e+7 
           1935      6.57235e+7 
           1945      6.74414e+7 
           1955      6.70292e+7 
           1967      6.69149e+7 
           1976      6.54905e+7 
           1984       6.5107e+7 
           1995      6.51473e+7 
           2005      6.38121e+7 
           2015      6.27888e+7 
           2025      6.23567e+7 
           2035      6.35493e+7 
           2045      6.33518e+7 
           2055       6.1709e+7 
           2065      6.16994e+7 
           2074      6.28695e+7 
           2078      6.29033e+7 
           2085      6.25181e+7 
           2095      6.18343e+7 
           2105      6.15389e+7 
           2115      6.12649e+7 
           2125      6.08741e+7 
           2135      5.92712e+7 
           2145      6.07005e+7 
           2155      6.00233e+7 
           2165      5.84622e+7 
           2175      5.84761e+7 
           2185      5.85868e+7 
           2195      5.97369e+7 
           2205       5.8268e+7 
           2215      5.61406e+7 
           2225      5.64178e+7 
           2235      5.84828e+7 
           2245      5.70697e+7 
           2255      5.55823e+7 
           2265      5.49171e+7 
           2275      5.64495e+7 
           2285      5.67242e+7 
           2295       5.5389e+7 
           2305      5.56292e+7 
           2315      5.50428e+7 
           2325      5.50714e+7 
           2335      5.43955e+7 
           2345      5.17526e+7 
           2355      5.40176e+7 
           2365      5.18745e+7 
           2375      5.30963e+7 
           2385      5.01445e+7 
           2395      5.24352e+7 
           2405      5.18105e+7 
           2415       5.1912e+7 
           2425      5.28179e+7 
           2435      5.15348e+7 
           2445      5.21842e+7 
           2455      5.20418e+7 
           2465      5.08826e+7 
           2475      5.02773e+7 
           2485      5.09088e+7 
           2495      5.00337e+7 
           2505      5.15952e+7 
           2513      5.01636e+7 
           2518       4.9942e+7 
           2525      4.86415e+7 
           2535      4.84719e+7 
           2545       4.8539e+7 
           2555      5.01536e+7 
           2565      4.97135e+7 
           2575       5.0548e+7 
           2585      5.07367e+7 
           2595       5.0286e+7 
           2605      4.95098e+7 
           2615      4.91848e+7 
           2625       4.9253e+7 
           2635      4.94561e+7 
           2645      5.13758e+7 
           2655      5.10665e+7 
           2665      4.98644e+7 
           2675      5.02604e+7 
           2685       5.0552e+7 
           2695      4.98559e+7 
           2705      4.97835e+7 
           2715      4.88072e+7 
           2725       4.8747e+7 
           2735      4.92947e+7 
           2745      4.69993e+7 
           2755      4.71099e+7 
           2765      4.80061e+7 
           2775      4.89219e+7 
           2785      4.85193e+7 
           2795      4.52551e+7 
           2805      4.70431e+7 
           2815      4.89677e+7 
           2825      4.86925e+7 
           2835      4.79699e+7 
           2845       4.7624e+7 
           2855      4.68519e+7 
           2865      4.72918e+7 
           2875      4.72278e+7 
           2885      4.73852e+7 
           2895      4.76203e+7 
           2910      4.78825e+7 
           2930      4.69941e+7 
           2950      4.66924e+7 
           2970      4.66422e+7 
           2990      4.63827e+7 
           3010      4.64545e+7 
           3030      4.62577e+7 
           3050      4.60013e+7 
           3070      4.56597e+7 
           3090       4.5548e+7 
           3110      4.52912e+7 
           3130      4.49411e+7 
           3150      4.47481e+7 
           3170      4.46089e+7 
           3190       4.3918e+7 
           3210      4.39867e+7 
           3230      4.35772e+7 
           3250      4.35954e+7 
           3270      4.35288e+7 
           3290      4.33492e+7 
           3310      4.31536e+7 
           3330      4.28067e+7 
           3350      4.23877e+7 
           3370      4.22145e+7 
           3390       4.2026e+7 
           3410      4.19686e+7 
           3430      4.17304e+7 
           3450      4.15202e+7 
           3470      4.12963e+7 
           3490      4.10997e+7 
           3510      4.09262e+7 
           3530      4.07268e+7 
           3550      4.05203e+7 
           3570       4.0236e+7 
           3590      4.00345e+7 
           3610      3.98234e+7 
           3630      3.96288e+7 
           3640      3.95251e+7 
           3650      3.96312e+7 
           3670      3.95472e+7 
           3690      3.84142e+7 
           3710      3.83816e+7 
           3730      3.80523e+7 
           3750      4.59094e+7 
           3770      4.82465e+7 
           3790       5.7823e+7 
           3810       6.8211e+7 
           3830      5.50318e+7 
           3850      7.69395e+7 
           3870      8.86478e+7 
           3890      4.79025e+7 
           3910      8.95367e+7 
           3930      1.01338e+8 
           3950      8.92971e+7 
           3970      4.64575e+7 
           3990      8.41791e+7 
           4010      1.02054e+8 
           4030      1.04532e+8 
           4050      1.02515e+8 
           4070      9.45297e+7 
           4090      6.67493e+7 
           4110        5.086e+7 
           4130      8.74785e+7 
           4150      9.60914e+7 
           4170      9.74771e+7 
           4190      9.70701e+7 
           4210      9.61033e+7 
           4230      9.47419e+7 
           4250       9.3408e+7 
           4270      9.14544e+7 
           4290      8.83889e+7 
           4310      8.06062e+7 
           4330      5.58537e+7 
           4350      4.76026e+7 
           4370      7.60387e+7 
           4390      8.26779e+7 
           4410       8.3923e+7 
           4430      8.37697e+7 
           4450      8.31497e+7 
           4470      8.22828e+7 
           4490      8.12151e+7 
           4510      8.05186e+7 
           4530      7.95778e+7 
           4550      7.86833e+7 
           4570       7.7886e+7 
           4590      7.69298e+7 
           4610      7.60971e+7 
           4630      7.51371e+7 
           4650      7.42343e+7 
           4670      7.33079e+7 
           4690       7.2374e+7 
           4710      7.12869e+7 
           4730      7.05977e+7 
           4750      6.96221e+7 
           4770      6.85113e+7 
           4790      6.70948e+7 
           4810      6.47924e+7 
           4830       5.9611e+7 
           4850      4.43411e+7 
           4870      3.62419e+7 
           4890      5.55277e+7 
           4910      6.06752e+7 
           4930      6.17603e+7 
           4950      6.18404e+7 
           4970      6.14946e+7 
           4990      6.09694e+7 
           5010       6.0344e+7 
           5030      5.97951e+7 
           5050      5.92308e+7 
           5070      5.86457e+7 
           5090      5.80127e+7 
           5110      5.73936e+7 
           5130      5.67709e+7 
           5150      5.61589e+7 
           5170      5.53715e+7 
           5190      5.48854e+7 
           5210       5.4383e+7 
           5230      5.37805e+7 
           5250       5.3254e+7 
           5270      5.26498e+7 
           5290      5.21394e+7 
           5310       5.1583e+7 
           5330      5.10401e+7 
           5350      5.05289e+7 
           5370      4.99939e+7 
           5390      4.94848e+7 
           5410      4.89638e+7 
           5430      4.84722e+7 
           5450      4.79776e+7 
           5470      4.74901e+7 
           5490       4.7011e+7 
           5510      4.65376e+7 
           5530      4.60599e+7 
           5550      4.56038e+7 
           5570      4.51421e+7 
           5590       4.4687e+7 
           5610      4.42433e+7 
           5630      4.38059e+7 
           5650      4.33701e+7 
           5670      4.29381e+7 
           5690      4.25157e+7 
           5710      4.20971e+7 
           5730      4.16844e+7 
           5750      4.12753e+7 
           5770       4.0872e+7 
           5790      4.04744e+7 
           5810      4.00812e+7 
           5830      3.96925e+7 
           5850      3.93093e+7 
           5870      3.89173e+7 
           5890      3.85177e+7 
           5910      3.81873e+7 
           5930       3.7822e+7 
           5950      3.74617e+7 
           5970      3.71054e+7 
           5990      3.67531e+7 
           6010      3.64056e+7 
           6030       3.6063e+7 
           6050      3.57241e+7 
           6070      3.53888e+7 
           6090      3.50583e+7 
           6110      3.47312e+7 
           6130      3.44057e+7 
           6150      3.40817e+7 
           6170      3.37701e+7 
           6190      3.34617e+7 
           6210      3.31537e+7 
           6230       3.2848e+7 
           6250      3.25417e+7 
           6270      3.22511e+7 
           6290      3.19577e+7 
           6310      3.16646e+7 
           6330      3.13793e+7 
           6350      3.10857e+7 
           6370      3.08054e+7 
           6390      3.04846e+7 
           6410      3.01764e+7 
           6430      2.98751e+7 
           6450      2.95497e+7 
           6470      2.91982e+7 
           6490      2.87546e+7 
           6510      2.80866e+7 
           6530      2.67009e+7 
           6550      2.25989e+7 
           6570      1.84128e+7 
           6590      2.48914e+7 
           6610      2.65474e+7 
           6630      2.69171e+7 
           6650       2.6919e+7 
           6670      2.67943e+7 
           6690        2.662e+7 
           6710      2.64239e+7 
           6730      2.62255e+7 
           6750      2.60397e+7 
           6770      2.58203e+7 
           6790      2.55982e+7 
           6810       2.5379e+7 
           6830      2.51619e+7 
           6850      2.49478e+7 
           6870      2.47357e+7 
           6890      2.45256e+7 
           6910      2.43176e+7 
           6930      2.41123e+7 
           6950       2.3909e+7 
           6970      2.37076e+7 
           6990      2.35089e+7 
           7010      2.33113e+7 
           7030      2.31164e+7 
           7050       2.2924e+7 
           7070      2.27327e+7 
           7090      2.25447e+7 
           7110      2.23509e+7 
           7130      2.21724e+7 
           7150      2.19895e+7 
           7170      2.18084e+7 
           7190      2.16297e+7 
           7210      2.14519e+7 
           7230      2.12771e+7 
           7250      2.11033e+7 
           7270      2.09317e+7 
           7290      2.07611e+7 
           7310      2.05926e+7 
           7330      2.04257e+7 
           7350       2.0261e+7 
           7370      2.00978e+7 
           7390       1.9936e+7 
           7410      1.97757e+7 
           7430      1.96175e+7 
           7450      1.94608e+7 
           7470      1.93034e+7 
           7490        1.915e+7 
           7510      1.89994e+7 
           7530      1.88488e+7 
           7550      1.87002e+7 
           7570      1.85522e+7 
           7590      1.84061e+7 
           7610      1.82614e+7 
           7630      1.81179e+7 
           7650      1.79756e+7 
           7670      1.78353e+7 
           7690      1.76961e+7 
           7710      1.75582e+7 
           7730       1.7422e+7 
           7750      1.72864e+7 
           7770      1.71102e+7 
           7790      1.70206e+7 
           7810      1.68891e+7 
           7830      1.67586e+7 
           7850      1.66293e+7 
           7870      1.65005e+7 
           7890      1.63734e+7 
           7910      1.62516e+7 
           7930      1.61272e+7 
           7950      1.60038e+7 
           7970      1.58839e+7 
           7990      1.57602e+7 
           8010       1.5644e+7 
           8030      1.55258e+7 
           8050      1.54093e+7 
           8070      1.52931e+7 
           8090      1.51784e+7 
           8110      1.50647e+7 
           8130      1.49525e+7 
           8150      1.48406e+7 
           8170      1.47302e+7 
           8190      1.46174e+7 
           8210       1.4539e+7 
           8230      1.44378e+7 
           8250      1.43391e+7 
           8270      1.42461e+7 
           8290      1.41501e+7 
           8310      1.40542e+7 
           8330      1.39515e+7 
           8350      1.38605e+7 
           8370      1.37604e+7 
           8390      1.36537e+7 
           8410      1.35436e+7 
           8430      1.34354e+7 
           8450      1.33354e+7 
           8470      1.31334e+7 
           8490      1.31599e+7 
           8510      1.27808e+7 
           8530      1.30202e+7 
           8550      1.22636e+7 
           8570        1.298e+7 
           8590      1.22784e+7 
           8610      1.20466e+7 
           8630      1.29185e+7 
           8650      1.23941e+7 
           8670      1.07783e+7 
           8690      1.25766e+7 
           8710      1.29112e+7 
           8730      1.23519e+7 
           8750      1.00241e+7 
           8770      1.17305e+7 
           8790      1.27367e+7 
           8810      1.28707e+7 
           8830      1.24916e+7 
           8850      1.10317e+7 
           8870       9.4799e+6 
           8890       1.1754e+7 
           8910      1.24719e+7 
           8930      1.26485e+7 
           8950      1.25812e+7 
           8970      1.22583e+7 
           8990      1.14562e+7 
           9010       9.1899e+6 
           9030       9.9573e+6 
           9050      1.14961e+7 
           9070      1.19529e+7 
           9090      1.20663e+7 
           9110      1.21042e+7 
           9130      1.20426e+7 
           9150      1.19068e+7 
           9170      1.16734e+7 
