# Kurucz ODFNEW /NOVER (2003)
# teff = 22000 K (value for the effective temperature for the model. Temperatures are given in K)
# logg = 3 log(cm/s2) (value for Log(G) for the model.)
# meta = -4  (value for the Metallicity for the model.)
# lh = 1.25  (l/Hp where l is the  mixing length of the convective element and Hp is the pressure scale height)
# vtur = 2 km/s (Microturbulence velocity)
# alpha = 0.4  (Alpha)
#
# column 1: WAVELENGTH (ANGSTROM), Wavelength in Angstrom
# column 2: FLUX (ERG/CM2/S/A), Flux in erg/cm2/s/A
          147.2     4.78478e-17 
            151     2.85905e-16 
          155.2     1.85588e-15 
          158.8     8.49998e-15 
            162     3.09951e-14 
            166     1.45218e-13 
          170.3     7.02316e-13 
          173.4     2.08026e-12 
          176.8     6.53962e-12 
          180.2     1.96532e-11 
          181.7     3.15021e-11 
          186.1     1.20079e-10 
            191     4.94051e-10 
          193.9      1.10161e-9 
          198.4      3.64225e-9 
          201.8      8.66279e-9 
            205      1.90485e-8 
          210.5      6.95827e-8 
          216.2      2.47666e-7 
          219.8       5.3285e-7 
            223      1.03006e-6 
          226.8      2.19659e-6 
            230        5.322e-6 
            234      1.17135e-5 
            240      3.34151e-5 
          246.5      9.80787e-5 
          252.4     0.000248601 
          256.8     0.000475643 
            260     0.000768004 
            264      0.00135311 
          268.5      0.00250403 
          273.5      0.00483906 
          278.5      0.00912751 
            284       0.0178463 
            290       0.0359627 
            296       0.0702885 
            301        0.120199 
            308        0.245257 
            318        0.653103 
            328         1.61902 
            338         3.78827 
            348         8.41158 
            357         16.5443 
            366         31.3997 
            375         57.6192 
            385         109.096 
            395         199.379 
            405         352.694 
            414         574.251 
            422         868.734 
            430         1292.03 
            441         2172.65 
            451         3400.55 
            460         4995.23 
            470         7512.08 
            480         11082.6 
            490         16060.8 
            500         22887.1 
            506          145510 
            512          414146 
            520          515662 
            530          751259 
            540          802307 
            550      1.14725e+6 
            560      1.38835e+6 
            570      1.66983e+6 
            580      1.66919e+6 
            590      2.20053e+6 
            600       2.7968e+6 
            610      3.29297e+6 
            620      3.83756e+6 
            630      4.45241e+6 
            640      5.12779e+6 
            650      5.89918e+6 
            658      6.56773e+6 
            665      7.19511e+6 
            675      8.14629e+6 
            685      9.17446e+6 
            695       1.0395e+7 
            705      1.16432e+7 
            716      1.31466e+7 
            726      1.46196e+7 
            735      1.60859e+7 
            745      1.77958e+7 
            755      1.96215e+7 
            765      2.15645e+7 
            775      2.36409e+7 
            785      2.58399e+7 
            795      2.81618e+7 
            805      3.06197e+7 
            815      3.32016e+7 
            825      3.59258e+7 
            835      3.84507e+7 
            845      4.17627e+7 
            855      4.48664e+7 
            865      4.81404e+7 
            875      5.15329e+7 
            885       5.5055e+7 
            895       5.8704e+7 
            905      6.23079e+7 
            915      1.60744e+8 
            925      3.01282e+9 
            935      6.67768e+9 
            945     1.21866e+10 
            955     1.35966e+10 
            965     1.58665e+10 
            975      9.83925e+9 
            985     1.58419e+10 
            995     1.53709e+10 
           1005     1.56298e+10 
           1015     1.50315e+10 
           1025        8.807e+9 
           1035     1.44442e+10 
           1045     1.49143e+10 
           1055     1.47236e+10 
           1065     1.42893e+10 
           1075      1.4172e+10 
           1085     1.36909e+10 
           1095     1.39117e+10 
           1105     1.34932e+10 
           1115      1.3345e+10 
           1125     1.30287e+10 
           1135     1.30835e+10 
           1145     1.28632e+10 
           1155     1.27114e+10 
           1165     1.25274e+10 
           1175     1.17153e+10 
           1185     1.21347e+10 
           1195     1.17462e+10 
           1205     1.11271e+10 
           1215      5.86368e+9 
           1225     1.09138e+10 
           1235     1.12004e+10 
           1245     1.10701e+10 
           1255     1.09405e+10 
           1265     1.07671e+10 
           1275     1.06294e+10 
           1285     1.04726e+10 
           1295     1.01147e+10 
           1305     1.00267e+10 
           1315     1.00139e+10 
           1325      9.85199e+9 
           1335      9.55698e+9 
           1345      9.57075e+9 
           1355       9.4335e+9 
           1365      9.29053e+9 
           1375      9.15349e+9 
           1385      9.02041e+9 
           1395      8.77811e+9 
           1405      8.66524e+9 
           1415      8.62109e+9 
           1425      8.49588e+9 
           1435      8.37221e+9 
           1442       8.2866e+9 
           1447      8.22547e+9 
           1455      8.12797e+9 
           1465      8.00931e+9 
           1475      7.89311e+9 
           1485       7.7788e+9 
           1495      7.66514e+9 
           1505      7.54997e+9 
           1512      7.47611e+9 
           1517      7.42232e+9 
           1525      7.33574e+9 
           1535      7.22289e+9 
           1545      7.09529e+9 
           1555       6.9956e+9 
           1565      6.92463e+9 
           1575      6.82696e+9 
           1585      6.73044e+9 
           1595      6.63505e+9 
           1605       6.5342e+9 
           1615      6.44097e+9 
           1625      6.35324e+9 
           1635      6.25532e+9 
           1645      6.08121e+9 
           1655      6.08758e+9 
           1665      6.00163e+9 
           1672      5.94138e+9 
           1677      5.90172e+9 
           1685      5.83493e+9 
           1695      5.75238e+9 
           1705      5.67137e+9 
           1715      5.59044e+9 
           1725      5.51391e+9 
           1735      5.43914e+9 
           1745      5.36411e+9 
           1755      5.29227e+9 
           1765      5.21603e+9 
           1775      5.14809e+9 
           1785      5.07993e+9 
           1795      5.01203e+9 
           1805      4.94462e+9 
           1815      4.87645e+9 
           1825      4.81071e+9 
           1835      4.74634e+9 
           1845       4.6792e+9 
           1855      4.59101e+9 
           1865      4.53855e+9 
           1875      4.49627e+9 
           1885      4.43088e+9 
           1895      4.35895e+9 
           1905      4.31715e+9 
           1915       4.2464e+9 
           1925      4.19284e+9 
           1935      4.14408e+9 
           1945       4.0948e+9 
           1955      4.03429e+9 
           1967      3.97928e+9 
           1976      3.93481e+9 
           1984       3.8908e+9 
           1995      3.82993e+9 
           2005      3.78948e+9 
           2015       3.7424e+9 
           2025      3.69561e+9 
           2035      3.64801e+9 
           2045      3.60197e+9 
           2055      3.53114e+9 
           2065      3.48412e+9 
           2074      3.45833e+9 
           2078      3.43098e+9 
           2085      3.42306e+9 
           2095      3.38059e+9 
           2105      3.34234e+9 
           2115      3.30163e+9 
           2125      3.26103e+9 
           2135      3.22022e+9 
           2145      3.18012e+9 
           2155      3.14167e+9 
           2165      3.10266e+9 
           2175      3.06504e+9 
           2185      3.02711e+9 
           2195      2.99091e+9 
           2205      2.95462e+9 
           2215      2.91833e+9 
           2225      2.88378e+9 
           2235      2.84906e+9 
           2245      2.81514e+9 
           2255      2.78097e+9 
           2265      2.74868e+9 
           2275      2.71627e+9 
           2285      2.68432e+9 
           2295      2.64675e+9 
           2305      2.62135e+9 
           2315      2.59137e+9 
           2325      2.56105e+9 
           2335      2.53086e+9 
           2345      2.50145e+9 
           2355      2.47244e+9 
           2365      2.44383e+9 
           2375      2.41568e+9 
           2385      2.38732e+9 
           2395      2.36046e+9 
           2405      2.33338e+9 
           2415       2.3066e+9 
           2425      2.28044e+9 
           2435      2.25451e+9 
           2445      2.22905e+9 
           2455      2.20386e+9 
           2465      2.17913e+9 
           2475      2.15467e+9 
           2485      2.13053e+9 
           2495      2.09291e+9 
           2505      2.08338e+9 
           2513      2.06352e+9 
           2518      2.05343e+9 
           2525      2.03763e+9 
           2535      2.01537e+9 
           2545      1.99281e+9 
           2555      1.97136e+9 
           2565      1.94978e+9 
           2575       1.9287e+9 
           2585      1.90777e+9 
           2595      1.88716e+9 
           2605      1.88109e+9 
           2615      1.86045e+9 
           2625      1.83804e+9 
           2635      1.81354e+9 
           2645      1.79603e+9 
           2655      1.77526e+9 
           2665      1.75522e+9 
           2675      1.73554e+9 
           2685      1.72619e+9 
           2695      1.69753e+9 
           2705      1.68974e+9 
           2715       1.6719e+9 
           2725      1.64316e+9 
           2735      1.63661e+9 
           2745      1.61981e+9 
           2755      1.60296e+9 
           2765      1.57448e+9 
           2775      1.56976e+9 
           2785       1.5535e+9 
           2795      1.53662e+9 
           2805      1.52137e+9 
           2815      1.50597e+9 
           2825      1.47805e+9 
           2835      1.47261e+9 
           2845      1.46032e+9 
           2855      1.44553e+9 
           2865      1.43092e+9 
           2875      1.41647e+9 
           2885      1.40223e+9 
           2895      1.38815e+9 
           2910      1.36743e+9 
           2930       1.3404e+9 
           2950      1.30649e+9 
           2970      1.28835e+9 
           2990      1.26313e+9 
           3010      1.23854e+9 
           3030      1.21457e+9 
           3050       1.1912e+9 
           3070      1.16837e+9 
           3090      1.14612e+9 
           3110      1.12445e+9 
           3130      1.10463e+9 
           3150       1.0837e+9 
           3170      1.06298e+9 
           3190      1.03566e+9 
           3210      1.02393e+9 
           3230      1.00501e+9 
           3250      9.86398e+8 
           3270      9.69507e+8 
           3290       9.5062e+8 
           3310        9.348e+8 
           3330      9.18034e+8 
           3350      9.00022e+8 
           3370      8.85589e+8 
           3390      8.69925e+8 
           3410      8.54567e+8 
           3430        8.356e+8 
           3450      8.18091e+8 
           3470      8.06466e+8 
           3490      7.93321e+8 
           3510      7.83909e+8 
           3530      7.70819e+8 
           3550      7.57853e+8 
           3570      7.47848e+8 
           3590      7.31881e+8 
           3610       7.2018e+8 
           3630       7.0732e+8 
           3640      7.05202e+8 
           3650      6.97865e+8 
           3670      6.88154e+8 
           3690      6.64252e+8 
           3710      6.63624e+8 
           3730      6.65705e+8 
           3750      7.32188e+8 
           3770      7.31835e+8 
           3790      7.45953e+8 
           3810       7.7079e+8 
           3830      6.91416e+8 
           3850      7.73639e+8 
           3870       7.6101e+8 
           3890      6.63554e+8 
           3910      7.45766e+8 
           3930      7.30243e+8 
           3950      7.21635e+8 
           3970       6.1619e+8 
           3990      6.96732e+8 
           4010      6.83966e+8 
           4030      6.57964e+8 
           4050      6.66273e+8 
           4070      6.55306e+8 
           4090      6.30041e+8 
           4110      5.64868e+8 
           4130      6.18912e+8 
           4150      6.09745e+8 
           4170         6.03e+8 
           4190      5.94897e+8 
           4210      5.85453e+8 
           4230      5.76246e+8 
           4250      5.67185e+8 
           4270       5.5831e+8 
           4290      5.49616e+8 
           4310      5.40734e+8 
           4330      5.13869e+8 
           4350      4.73517e+8 
           4370      5.15907e+8 
           4390      5.00915e+8 
           4410      5.00838e+8 
           4430      4.91392e+8 
           4450      4.85805e+8 
           4470      4.66271e+8 
           4490      4.71339e+8 
           4510      4.64297e+8 
           4530      4.57379e+8 
           4550      4.50565e+8 
           4570      4.43906e+8 
           4590      4.37346e+8 
           4610        4.309e+8 
           4630      4.24567e+8 
           4650      4.18344e+8 
           4670      4.12264e+8 
           4690      4.06084e+8 
           4710      3.96342e+8 
           4730      3.94647e+8 
           4750      3.88977e+8 
           4770       3.8342e+8 
           4790      3.77976e+8 
           4810      3.72608e+8 
           4830      3.67106e+8 
           4850      3.52185e+8 
           4870      3.19484e+8 
           4890      3.51489e+8 
           4910      3.47225e+8 
           4930      3.37268e+8 
           4950      3.37669e+8 
           4970      3.33004e+8 
           4990      3.28434e+8 
           5010      3.20834e+8 
           5030      3.19479e+8 
           5050      3.13556e+8 
           5070      3.10838e+8 
           5090       3.0664e+8 
           5110      3.02499e+8 
           5130      2.98427e+8 
           5150      2.94438e+8 
           5170      2.90501e+8 
           5190      2.86644e+8 
           5210      2.82837e+8 
           5230      2.79095e+8 
           5250      2.75428e+8 
           5270      2.71808e+8 
           5290      2.68263e+8 
           5310      2.64763e+8 
           5330      2.61321e+8 
           5350      2.57923e+8 
           5370      2.54581e+8 
           5390      2.51308e+8 
           5410      2.48076e+8 
           5430      2.44897e+8 
           5450      2.41784e+8 
           5470       2.3871e+8 
           5490      2.35686e+8 
           5510      2.32713e+8 
           5530      2.29776e+8 
           5550      2.26888e+8 
           5570      2.24047e+8 
           5590      2.21253e+8 
           5610      2.18493e+8 
           5630      2.15779e+8 
           5650      2.13109e+8 
           5670      2.10484e+8 
           5690      2.07901e+8 
           5710      2.05349e+8 
           5730       2.0284e+8 
           5750       2.0036e+8 
           5770      1.97933e+8 
           5790      1.95534e+8 
           5810      1.93174e+8 
           5830      1.90843e+8 
           5850       1.8856e+8 
           5870      1.81909e+8 
           5890      1.84053e+8 
           5910      1.81893e+8 
           5930      1.79736e+8 
           5950      1.77614e+8 
           5970      1.75517e+8 
           5990      1.73455e+8 
           6010      1.71426e+8 
           6030       1.6941e+8 
           6050      1.67438e+8 
           6070      1.65487e+8 
           6090      1.63569e+8 
           6110      1.61683e+8 
           6130      1.59817e+8 
           6150      1.57983e+8 
           6170      1.56179e+8 
           6190      1.54394e+8 
           6210       1.5263e+8 
           6230      1.50904e+8 
           6250      1.49197e+8 
           6270      1.47509e+8 
           6290      1.45848e+8 
           6310      1.44216e+8 
           6330      1.42601e+8 
           6350      1.41013e+8 
           6370      1.39441e+8 
           6390      1.37896e+8 
           6410      1.36368e+8 
           6430      1.34865e+8 
           6450      1.33387e+8 
           6470      1.31915e+8 
           6490      1.30478e+8 
           6510      1.29055e+8 
           6530      1.27568e+8 
           6550      1.24313e+8 
           6570      1.12491e+8 
           6590      1.23217e+8 
           6610      1.22213e+8 
           6630      1.20903e+8 
           6650      1.19683e+8 
           6670      1.17527e+8 
           6690      1.16295e+8 
           6710      1.15895e+8 
           6730      1.14667e+8 
           6750      1.13459e+8 
           6770      1.12264e+8 
           6790       1.1108e+8 
           6810      1.09917e+8 
           6830      1.08766e+8 
           6850      1.07634e+8 
           6870      1.06513e+8 
           6890      1.05403e+8 
           6910      1.04313e+8 
           6930      1.03233e+8 
           6950      1.02172e+8 
           6970      1.01121e+8 
           6990      1.00073e+8 
           7010      9.90657e+7 
           7030      9.80531e+7 
           7050      9.70579e+7 
           7070      9.46103e+7 
           7090      9.50965e+7 
           7110      9.41375e+7 
           7130      9.31951e+7 
           7150      9.22544e+7 
           7170      9.13154e+7 
           7190      9.04219e+7 
           7210      8.95151e+7 
           7230      8.86242e+7 
           7250      8.77488e+7 
           7270      8.68818e+7 
           7290      8.53495e+7 
           7310      8.51651e+7 
           7330      8.43434e+7 
           7350      8.35154e+7 
           7370      8.26952e+7 
           7390      8.18895e+7 
           7410      8.10981e+7 
           7430      8.03072e+7 
           7450       7.9544e+7 
           7470      7.87743e+7 
           7490      7.80184e+7 
           7510      7.72361e+7 
           7530      7.65273e+7 
           7550      7.57986e+7 
           7570      7.50765e+7 
           7590      7.43609e+7 
           7610      7.36518e+7 
           7630      7.29556e+7 
           7650      7.22656e+7 
           7670      7.15883e+7 
           7690      7.09106e+7 
           7710       7.0239e+7 
           7730      6.95923e+7 
           7750      6.89325e+7 
           7770      6.82973e+7 
           7790      6.76677e+7 
           7810      6.69818e+7 
           7830      6.64189e+7 
           7850      6.58791e+7 
           7870       6.5271e+7 
           7890      6.46319e+7 
           7910      6.40285e+7 
           7930      6.33465e+7 
           7950       6.2748e+7 
           7970      6.21369e+7 
           7990      6.16138e+7 
           8010      6.10364e+7 
           8030      6.05166e+7 
           8050       6.0007e+7 
           8070      5.95132e+7 
           8090      5.88452e+7 
           8110      5.83777e+7 
           8130      5.79484e+7 
           8150       5.7307e+7 
           8170      5.69308e+7 
           8190      5.63723e+7 
           8210      5.57375e+7 
           8230      5.54285e+7 
           8250      5.49404e+7 
           8270      5.41665e+7 
           8290      5.38918e+7 
           8310      5.34379e+7 
           8330      5.29585e+7 
           8350      5.22496e+7 
           8370      5.18448e+7 
           8390      5.14604e+7 
           8410      5.09682e+7 
           8430      5.04902e+7 
           8450      4.98479e+7 
           8470      4.92221e+7 
           8490       4.9522e+7 
           8510      4.81221e+7 
           8530      4.89659e+7 
           8550      4.65711e+7 
           8570      4.89331e+7 
           8590      4.64299e+7 
