# Kurucz ODFNEW /NOVER (2003)
# teff = 3500 K (value for the effective temperature for the model. Temperatures are given in K)
# logg = 4 log(cm/s2) (value for Log(G) for the model.)
# meta = -4  (value for the Metallicity for the model.)
# lh = 1.25  (l/Hp where l is the  mixing length of the convective element and Hp is the pressure scale height)
# vtur = 2 km/s (Microturbulence velocity)
# alpha = 0.4  (Alpha)
#
# column 1: WAVELENGTH (ANGSTROM), Wavelength in Angstrom
# column 2: FLUX (ERG/CM2/S/A), Flux in erg/cm2/s/A
          147.2     1.73866e-35 
            151     1.65225e-35 
          155.2     1.56403e-35 
          158.8     1.49392e-35 
            162     1.43549e-35 
            166     1.36714e-35 
          170.3     1.29897e-35 
          173.4     1.25294e-35 
          176.8     1.20522e-35 
          180.2     1.16017e-35 
          181.7     1.14109e-35 
          186.1     1.08777e-35 
            191     1.03267e-35 
          193.9     1.00201e-35 
          198.4     9.57076e-36 
          201.8     9.25097e-36 
            205     8.96441e-36 
          210.5     8.50208e-36 
          216.2     8.05969e-36 
          219.8     7.79784e-36 
            223     7.57565e-36 
          226.8     7.32392e-36 
            230     7.12154e-36 
            234     6.88015e-36 
            240     6.54044e-36 
          246.5     6.20006e-36 
          252.4     5.91358e-36 
          256.8     5.71267e-36 
            260     5.57292e-36 
            264     5.40532e-36 
          268.5     5.22566e-36 
          273.5     5.03634e-36 
          278.5     4.85712e-36 
            284     4.67082e-36 
            290     4.47954e-36 
            296     4.29978e-36 
            301     4.15812e-36 
            308     3.97126e-36 
            318     3.72542e-36 
            328     3.50172e-36 
            338     3.29759e-36 
            348     3.11079e-36 
            357     2.95592e-36 
            366     2.81234e-36 
            375     2.67896e-36 
            385     2.54161e-36 
            395     2.41455e-36 
            405     2.29678e-36 
            414     2.19801e-36 
            422     2.11546e-36 
            430     2.03748e-36 
            441      1.9371e-36 
            451     1.85215e-36 
            460     1.78038e-36 
            470     1.70543e-36 
            480     1.63511e-36 
            490     1.56905e-36 
            500     1.50692e-36 
            506     1.47139e-36 
            512     1.43711e-36 
            520     1.39323e-36 
            530     1.34115e-36 
            540     1.29194e-36 
            550     1.24539e-36 
            560     1.20131e-36 
            570     1.15952e-36 
            580     1.11989e-36 
            590     1.08224e-36 
            600     1.04647e-36 
            610     1.01244e-36 
            620     9.80045e-37 
            630      9.4918e-37 
            640      9.1975e-37 
            650     8.91667e-37 
            658     8.70117e-37 
            665     8.51895e-37 
            675     8.26841e-37 
            685     8.02876e-37 
            695     7.79938e-37 
            705     7.57969e-37 
            716     7.34858e-37 
            726     7.14754e-37 
            735     6.97357e-37 
            745     6.78761e-37 
            755       6.609e-37 
            765     6.43734e-37 
            775     6.27229e-37 
            785      6.1135e-37 
            795     5.96067e-37 
            805      5.8135e-37 
            815     5.67171e-37 
            825     5.53505e-37 
            835     5.40327e-37 
            845     5.27614e-37 
            855     5.15344e-37 
            865     5.03498e-37 
            875     4.92055e-37 
            885     4.80998e-37 
            895     4.70309e-37 
            905     4.59973e-37 
            915     7.94924e-22 
            925     5.13827e-21 
            935     1.08336e-20 
            945     2.25242e-20 
            955     4.59663e-20 
            965     9.24605e-20 
            975     1.83176e-19 
            985     4.77947e-19 
            995     9.20795e-19 
           1005     1.75067e-18 
           1015     3.28308e-18 
           1025     6.08468e-18 
           1035     1.11254e-17 
           1045     2.51658e-17 
           1055     3.59594e-17 
           1065     7.94795e-17 
           1075     1.38887e-16 
           1085     2.40744e-16 
           1095     4.12634e-16 
           1105     6.99419e-16 
           1115      1.1812e-15 
           1125     2.35841e-15 
           1135     4.58313e-15 
           1145     7.49019e-15 
           1155     1.22579e-14 
           1165       1.961e-14 
           1175     3.66599e-14 
           1185     5.11803e-14 
           1195     8.99465e-14 
           1205     1.32852e-13 
           1215     1.50975e-13 
           1225     3.13107e-13 
           1235     5.80004e-13 
           1245     8.95095e-13 
           1255     1.53129e-12 
           1265     2.65698e-12 
           1275     3.67315e-12 
           1285     6.86074e-12 
           1295     9.37811e-12 
           1305     2.00593e-11 
           1315     2.95811e-11 
           1325     5.11032e-11 
           1335     6.34567e-11 
           1345     1.04937e-10 
           1355     1.50569e-10 
           1365      2.6932e-10 
           1375     3.71902e-10 
           1385      5.4476e-10 
           1395     7.40208e-10 
           1405      1.05529e-9 
           1415      1.74708e-9 
           1425      2.28732e-9 
           1435        3.506e-9 
           1442      5.37873e-9 
           1447      4.64675e-9 
           1455      7.16703e-9 
           1465      8.94998e-9 
           1475      1.33712e-8 
           1485      1.65407e-8 
           1495      2.91064e-8 
           1505      4.28868e-8 
           1512      3.70213e-8 
           1517      4.23059e-8 
           1525      8.51406e-8 
           1535      2.38183e-7 
           1545      1.65731e-7 
           1555      3.24626e-7 
           1565      3.18845e-7 
           1575      5.45543e-7 
           1585      6.72999e-7 
           1595      7.28129e-7 
           1605      8.86315e-7 
           1615      1.48859e-6 
           1625      2.10005e-6 
           1635      3.69285e-6 
           1645      8.73083e-6 
           1655       8.5764e-6 
           1665      3.45131e-5 
           1672      6.19702e-5 
           1677     0.000143655 
           1685     0.000239315 
           1695     0.000329114 
           1705     0.000613674 
           1715      0.00104913 
           1725      0.00199466 
           1735      0.00286481 
           1745      0.00484894 
           1755      0.00612584 
           1765      0.00586833 
           1775      0.00754565 
           1785       0.0214565 
           1795       0.0192116 
           1805       0.0343818 
           1815       0.0253011 
           1825       0.0309539 
           1835       0.0406912 
           1845       0.0257788 
           1855        0.041291 
           1865       0.0966057 
           1875       0.0977479 
           1885        0.134694 
           1895        0.201855 
           1905         0.19591 
           1915        0.330448 
           1925        0.288421 
           1935        0.106351 
           1945        0.392501 
           1955        0.559029 
           1967        0.778572 
           1976        0.729333 
           1984        0.767268 
           1995        0.936905 
           2005         1.09232 
           2015         1.31523 
           2025         0.44066 
           2035         1.40058 
           2045         1.99435 
           2055         1.92904 
           2065         2.28049 
           2074         1.99108 
           2078         3.29217 
           2085         3.15026 
           2095         4.32614 
           2105         5.34305 
           2115         9.57483 
           2125          9.4307 
           2135         13.9428 
           2145         12.0453 
           2155         14.3828 
           2165         9.73566 
           2175         10.8799 
           2185         15.0227 
           2195         19.8435 
           2205          17.358 
           2215         13.6986 
           2225         23.1496 
           2235         44.4898 
           2245         52.2074 
           2255          39.922 
           2265           18.42 
           2275         24.9034 
           2285         42.8534 
           2295         47.9968 
           2305         25.8016 
           2315         68.6682 
           2325         78.7939 
           2335         152.482 
           2345         104.749 
           2355         103.277 
           2365         106.845 
           2375         97.5715 
           2385         155.057 
           2395         159.807 
           2405         261.456 
           2415         183.875 
           2425         221.472 
           2435         278.848 
           2445         348.514 
           2455         378.509 
           2465         227.449 
           2475         198.942 
           2485          40.354 
           2495         129.183 
           2505         156.653 
           2513         70.7027 
           2518         23.5949 
           2525         54.3654 
           2535         311.392 
           2545         318.843 
           2555         674.682 
           2565         718.275 
           2575          817.25 
           2585         988.304 
           2595         987.191 
           2605         1018.71 
           2615         1007.79 
           2625         1241.51 
           2635         1380.12 
           2645         1461.25 
           2655         1840.94 
           2665         1664.68 
           2675         1832.52 
           2685         2002.84 
           2695          1814.5 
           2705         2058.18 
           2715         1414.37 
           2725         893.877 
           2735         1243.47 
           2745         1257.98 
           2755         1355.82 
           2765         1931.39 
           2775         1714.91 
           2785          1373.4 
           2795          880.19 
           2805         907.155 
           2815            1081 
           2825         783.611 
           2835         426.072 
           2845         110.305 
           2855         18.4431 
           2865         262.515 
           2875         713.202 
           2885         1195.15 
           2895         1915.65 
           2910          2813.6 
           2930         3630.99 
           2950         3581.84 
           2970          3729.5 
           2990         4044.23 
           3010         3959.15 
           3030         4805.09 
           3050         5738.11 
           3070         5410.57 
           3090         4582.41 
           3110         6756.29 
           3130         8579.84 
           3150         9386.63 
           3170         12532.4 
           3190         12788.5 
           3210           16367 
           3230         16497.1 
           3250         20847.2 
           3270         26991.7 
           3290         24553.3 
           3310         18795.4 
           3330         15905.4 
           3350         15225.3 
           3370           10821 
           3390         15538.2 
           3410         19969.3 
           3430         26124.7 
           3450         23614.1 
           3470         27126.2 
           3490         34666.2 
           3510         40213.7 
           3530         42921.7 
           3550         56315.9 
           3570         36842.6 
           3590         35161.7 
           3610         45223.4 
           3630         52588.7 
           3640         57998.2 
           3650         53922.7 
           3670         69615.3 
           3690         62421.6 
           3710         53457.2 
           3730         28055.2 
           3750         36409.8 
           3770         71084.2 
           3790         80008.5 
           3810         80341.2 
           3830         42167.6 
           3850         68506.4 
           3870         62641.1 
           3890         62093.2 
           3910         70377.6 
           3930         27016.4 
           3950         59970.1 
           3970         39427.6 
           3990          102329 
           4010          128792 
           4030          113952 
           4050          132759 
           4070          129515 
           4090          132863 
           4110         60505.6 
           4130           83207 
           4150         63533.8 
           4170         75599.8 
           4190         91400.8 
           4210           89427 
           4230         71558.6 
           4250          117064 
           4270          114028 
           4290          109675 
           4310          114949 
           4330          176571 
           4350          180052 
           4370          178248 
           4390          181430 
           4410          205933 
           4430          225770 
           4450          236511 
           4470          250953 
           4490          258290 
           4510          270099 
           4530          251234 
           4550          273214 
           4570          283437 
           4590          293078 
           4610          297844 
           4630          309458 
           4650          304293 
           4670          316980 
           4690          319420 
           4710          324050 
           4730          326013 
           4750          326296 
           4770          312405 
           4790          314695 
           4810          346197 
           4830          348245 
           4850          361539 
           4870          368153 
           4890          372190 
           4910          378275 
           4930          371833 
           4950          368973 
           4970          370844 
           4990          342883 
           5010          321525 
           5030          325852 
           5050          306066 
           5070          288649 
           5090          280045 
           5110          255105 
           5130          242054 
           5150          217338 
           5170          207132 
           5190          277693 
           5210          290748 
           5230          451518 
           5250          467630 
           5270          438586 
           5290          477682 
           5310          489228 
           5330          465380 
           5350          487534 
           5370          484928 
           5390          491347 
           5410          489754 
           5430          488900 
           5450          488667 
           5470          517459 
           5490          520882 
           5510          517058 
           5530          533405 
           5550          537591 
           5570          540780 
           5590          536688 
           5610          551626 
           5630          561952 
           5650          571057 
           5670          574359 
           5690          578579 
           5710          581558 
           5730          586593 
           5750          591350 
           5770          595031 
           5790          598895 
           5810          602301 
           5830          606899 
           5850          609053 
           5870          611043 
           5890          471953 
           5910          613165 
           5930          623660 
           5950          627913 
           5970          632253 
           5990          635976 
           6010          639510 
           6030          643336 
           6050          646386 
           6070          649322 
           6090          652428 
           6110          652201 
           6130          646037 
           6150          661723 
           6170          641557 
           6190          668252 
           6210          671193 
           6230          673403 
           6250          673633 
           6270          677392 
           6290          682642 
           6310          686004 
           6330          688916 
           6350          692524 
           6370          694979 
           6390          697343 
           6410          699031 
           6430          700302 
           6450          695060 
           6470          699283 
           6490          702359 
           6510          711437 
           6530          715170 
           6550          716262 
           6570          714928 
           6590          721603 
           6610          723960 
           6630          726618 
           6650          728711 
           6670          730267 
           6690          732641 
           6710          734346 
           6730          737075 
           6750          737683 
           6770          740967 
           6790          742565 
           6810          744554 
           6830          746451 
           6850          748176 
           6870          749358 
           6890          751203 
           6910          752487 
           6930          754096 
           6950          755042 
           6970          757144 
           6990          758222 
           7010          760089 
           7030          761038 
           7050          763350 
           7070          763710 
           7090          765179 
           7110          766245 
           7130          768029 
           7150          764697 
           7170          770110 
           7190          771516 
           7210          770068 
           7230          773597 
           7250          772775 
           7270          775585 
           7290          776865 
           7310          777484 
           7330          777174 
           7350          777622 
           7370          779442 
           7390          780057 
           7410          780929 
           7430          781235 
           7450          782069 
           7470          783287 
           7490          784079 
           7510          784651 
           7530          785538 
           7550          785876 
           7570          786725 
           7590          787358 
           7610          787714 
           7630          788443 
           7650          788575 
           7670          781906 
           7690          789056 
           7710          786299 
           7730          790494 
           7750          790058 
           7770          791050 
           7790          791339 
           7810          791738 
           7830          791816 
           7850          791943 
           7870          792303 
           7890          792467 
           7910          792378 
           7930          792580 
           7950          792412 
           7970          792829 
           7990          792759 
           8010          792798 
           8030          792768 
           8050          792438 
           8070          792507 
           8090          792623 
           8110          792498 
           8130          792423 
           8150          792282 
           8170          792076 
           8190          788886 
           8210          791419 
           8230          791304 
           8250          791125 
           8270          790883 
           8290          790580 
           8310          790053 
           8330          784472 
           8350          789310 
           8370          787585 
           8390          775593 
           8410          785864 
           8430          770106 
           8450          787305 
           8470          785114 
           8490          778859 
           8510          762145 
           8530          778354 
           8550          702311 
           8570          783364 
           8590          783754 
