# Kurucz ODFNEW /NOVER (2003)
# teff = 30000 K (value for the effective temperature for the model. Temperatures are given in K)
# logg = 3.5 log(cm/s2) (value for Log(G) for the model.)
# meta = -0.5  (value for the Metallicity for the model.)
# lh = 1.25  (l/Hp where l is the  mixing length of the convective element and Hp is the pressure scale height)
# vtur = 2 km/s (Microturbulence velocity)
# alpha = 0.4  (Alpha)
#
# column 1: WAVELENGTH (ANGSTROM), Wavelength in Angstrom
# column 2: FLUX (ERG/CM2/S/A), Flux in erg/cm2/s/A
          147.2      1.60198e-8 
            151      5.01887e-8 
          155.2      1.66679e-7 
          158.8      4.44711e-7 
            162       1.0285e-6 
            166      2.81016e-6 
          170.3      7.86334e-6 
          173.4      1.60452e-5 
          176.8      3.41341e-5 
          180.2      7.05334e-5 
          181.7       9.6535e-5 
          186.1     0.000234403 
            191     0.000600892 
          193.9      0.00102566 
          198.4      0.00228301 
          201.8       0.0040782 
            205      0.00691739 
          210.5       0.0165323 
          216.2       0.0388235 
          219.8       0.0652843 
            223        0.101968 
          226.8        0.170618 
            230         169.094 
            234         390.923 
            240         664.574 
          246.5         1211.31 
          252.4         2101.63 
          256.8         2734.31 
            260         4777.83 
            264            6968 
          268.5         10670.8 
          273.5         15312.5 
          278.5         20270.2 
            284         46424.7 
            290         68980.5 
            296         94431.7 
            301          122020 
            308          312832 
            318          733275 
            328      1.10623e+6 
            338      1.96457e+6 
            348      3.07135e+6 
            357      6.31474e+6 
            366      1.18096e+7 
            375      1.47252e+7 
            385      2.17805e+7 
            395      3.45835e+7 
            405      4.38754e+7 
            414      5.81988e+7 
            422      6.59706e+7 
            430      7.76686e+7 
            441      9.82885e+7 
            451      1.17488e+8 
            460      1.30741e+8 
            470      1.57655e+8 
            480      1.86027e+8 
            490      2.09782e+8 
            500      2.58572e+8 
            506      6.56521e+8 
            512      4.17911e+9 
            520      3.96263e+9 
            530      3.58396e+9 
            540      3.46304e+9 
            550      3.96294e+9 
            560       4.9877e+9 
            570      5.34065e+9 
            580      4.85739e+9 
            590      5.26361e+9 
            600      4.16862e+9 
            610      5.23857e+9 
            620      6.14675e+9 
            630       6.0496e+9 
            640      5.97837e+9 
            650      5.78023e+9 
            658      4.90302e+9 
            665      5.87331e+9 
            675      6.56429e+9 
            685      5.50018e+9 
            695      6.87655e+9 
            705      5.43994e+9 
            716      7.37357e+9 
            726      7.22044e+9 
            735       7.3341e+9 
            745      6.98988e+9 
            755      7.04321e+9 
            765      7.37462e+9 
            775      7.63777e+9 
            785      7.84301e+9 
            795       7.8961e+9 
            805      7.63138e+9 
            815      7.63413e+9 
            825      8.09446e+9 
            835      6.63089e+9 
            845      7.91948e+9 
            855      7.93166e+9 
            865      8.15968e+9 
            875      8.23355e+9 
            885      8.38764e+9 
            895      8.49049e+9 
            905      8.31217e+9 
            915      1.1158e+10 
            925     3.69876e+10 
            935     5.12418e+10 
            945     5.95072e+10 
            955     6.25263e+10 
            965      6.6116e+10 
            975     3.49423e+10 
            985     5.63177e+10 
            995     5.31023e+10 
           1005       5.452e+10 
           1015     5.61826e+10 
           1025     4.89995e+10 
           1035     5.40463e+10 
           1045     5.97579e+10 
           1055       5.773e+10 
           1065     5.16156e+10 
           1075     5.30135e+10 
           1085     5.03223e+10 
           1095     5.27473e+10 
           1105     5.06214e+10 
           1115     4.94781e+10 
           1125     4.11042e+10 
           1135     4.81153e+10 
           1145     4.57814e+10 
           1155     4.46052e+10 
           1165     4.42785e+10 
           1175     3.22203e+10 
           1185     4.08219e+10 
           1195     3.97828e+10 
           1205     3.77086e+10 
           1215     3.27342e+10 
           1225     3.76999e+10 
           1235      3.9263e+10 
           1245     3.77963e+10 
           1255     3.78135e+10 
           1265     3.80867e+10 
           1275     3.82401e+10 
           1285     3.78846e+10 
           1295     3.51384e+10 
           1305     3.52612e+10 
           1315     3.63805e+10 
           1325     3.52176e+10 
           1335     3.42354e+10 
           1345     3.41113e+10 
           1355     3.35482e+10 
           1365     3.24154e+10 
           1375     3.17803e+10 
           1385     3.09557e+10 
           1395     2.39199e+10 
           1405     2.50425e+10 
           1415     2.93466e+10 
           1425     2.72201e+10 
           1435      2.8183e+10 
           1442     2.81728e+10 
           1447     2.79028e+10 
           1455     2.68975e+10 
           1465      2.6421e+10 
           1475     2.62925e+10 
           1485     2.61309e+10 
           1495     2.53712e+10 
           1505     2.48273e+10 
           1512     2.45073e+10 
           1517     2.44852e+10 
           1525     2.38369e+10 
           1535     2.15991e+10 
           1545      1.9477e+10 
           1555     1.93255e+10 
           1565     2.05929e+10 
           1575     2.12966e+10 
           1585     2.11936e+10 
           1595     2.10087e+10 
           1605     1.98205e+10 
           1615     1.91916e+10 
           1625     1.93157e+10 
           1635     1.94211e+10 
           1645     1.90479e+10 
           1655     1.93026e+10 
           1665     1.88512e+10 
           1672     1.79121e+10 
           1677     1.96996e+10 
           1685     1.90128e+10 
           1695     1.84783e+10 
           1705     1.81676e+10 
           1715     1.75708e+10 
           1725     1.70727e+10 
           1735     1.74884e+10 
           1745     1.72242e+10 
           1755     1.69258e+10 
           1765     1.67031e+10 
           1775      1.6348e+10 
           1785     1.63179e+10 
           1795     1.60173e+10 
           1805     1.59814e+10 
           1815     1.55679e+10 
           1825     1.53729e+10 
           1835     1.53143e+10 
           1845     1.45921e+10 
           1855     1.45403e+10 
           1865     1.44898e+10 
           1875     1.42457e+10 
           1885     1.36888e+10 
           1895     1.33874e+10 
           1905      1.3623e+10 
           1915     1.32325e+10 
           1925     1.26796e+10 
           1935      1.3057e+10 
           1945     1.30903e+10 
           1955     1.22619e+10 
           1967     1.25363e+10 
           1976     1.26597e+10 
           1984     1.22621e+10 
           1995     1.19265e+10 
           2005     1.20553e+10 
           2015      1.1999e+10 
           2025     1.19038e+10 
           2035     1.15469e+10 
           2045     1.13856e+10 
           2055      9.72996e+9 
           2065      9.48753e+9 
           2074      9.88619e+9 
           2078      9.85864e+9 
           2085     1.04425e+10 
           2095     1.04727e+10 
           2105     1.04771e+10 
           2115     1.05189e+10 
           2125     1.03309e+10 
           2135     1.02575e+10 
           2145     1.00794e+10 
           2155     1.00453e+10 
           2165      9.74691e+9 
           2175      9.77137e+9 
           2185      9.57166e+9 
           2195      9.57535e+9 
           2205      9.43756e+9 
           2215      9.20511e+9 
           2225       9.1644e+9 
           2235      9.03356e+9 
           2245      8.92187e+9 
           2255      8.71771e+9 
           2265       8.6879e+9 
           2275      8.58403e+9 
           2285      8.41093e+9 
           2295      7.86929e+9 
           2305      8.13159e+9 
           2315      8.07203e+9 
           2325      7.99996e+9 
           2335      7.88598e+9 
           2345      7.79968e+9 
           2355      7.68875e+9 
           2365      7.58413e+9 
           2375      7.46496e+9 
           2385       7.2495e+9 
           2395       7.2193e+9 
           2405      7.18479e+9 
           2415      7.06986e+9 
           2425      7.00335e+9 
           2435      6.88939e+9 
           2445      6.81614e+9 
           2455       6.7226e+9 
           2465      6.64398e+9 
           2475      6.54305e+9 
           2485      6.38983e+9 
           2495      4.93093e+9 
           2505      6.12671e+9 
           2513      6.02512e+9 
           2518       6.0743e+9 
           2525       6.1488e+9 
           2535      6.09277e+9 
           2545      5.96413e+9 
           2555       5.9135e+9 
           2565      5.85145e+9 
           2575      5.79075e+9 
           2585      5.72235e+9 
           2595      5.63302e+9 
           2605      5.59374e+9 
           2615      5.50834e+9 
           2625      5.45131e+9 
           2635      5.38587e+9 
           2645      5.31523e+9 
           2655       5.2518e+9 
           2665      5.16637e+9 
           2675      5.08253e+9 
           2685      5.06272e+9 
           2695      4.97532e+9 
           2705      4.93515e+9 
           2715      4.87316e+9 
           2725      4.80352e+9 
           2735      4.71532e+9 
           2745      4.71508e+9 
           2755      4.65579e+9 
           2765      4.58399e+9 
           2775      4.55806e+9 
           2785      4.49012e+9 
           2795      4.37293e+9 
           2805      4.37571e+9 
           2815       4.3452e+9 
           2825      4.28187e+9 
           2835       4.2234e+9 
           2845      4.20154e+9 
           2855      4.14286e+9 
           2865      4.09296e+9 
           2875      4.04595e+9 
           2885      4.00446e+9 
           2895      3.95783e+9 
           2910      3.87776e+9 
           2930      3.80569e+9 
           2950      3.70517e+9 
           2970      3.63246e+9 
           2990      3.54109e+9 
           3010       3.4534e+9 
           3030      3.37099e+9 
           3050      3.31445e+9 
           3070      3.25458e+9 
           3090      3.15849e+9 
           3110      3.11441e+9 
           3130      3.04059e+9 
           3150      2.97966e+9 
           3170      2.91722e+9 
           3190       2.8521e+9 
           3210       2.7864e+9 
           3230       2.7369e+9 
           3250      2.68895e+9 
           3270      2.62061e+9 
           3290      2.57349e+9 
           3310      2.52165e+9 
           3330      2.46461e+9 
           3350      2.41214e+9 
           3370      2.36714e+9 
           3390      2.32903e+9 
           3410      2.28219e+9 
           3430      2.23728e+9 
           3450      2.18482e+9 
           3470      2.14698e+9 
           3490      2.10469e+9 
           3510      2.06796e+9 
           3530      2.03156e+9 
           3550      1.99086e+9 
           3570      1.95593e+9 
           3590      1.91207e+9 
           3610      1.87854e+9 
           3630      1.84035e+9 
           3640      1.82215e+9 
           3650      1.75135e+9 
           3670      1.72459e+9 
           3690      1.68902e+9 
           3710      1.64515e+9 
           3730      1.61112e+9 
           3750      1.65043e+9 
           3770       1.6288e+9 
           3790      1.64444e+9 
           3810      1.66605e+9 
           3830      1.54558e+9 
           3850        1.639e+9 
           3870      1.59741e+9 
           3890      1.47213e+9 
           3910      1.56809e+9 
           3930      1.52537e+9 
           3950       1.5003e+9 
           3970      1.35959e+9 
           3990      1.45982e+9 
           4010      1.43098e+9 
           4030      1.38939e+9 
           4050      1.38859e+9 
           4070      1.34466e+9 
           4090      1.29893e+9 
           4110       1.2168e+9 
           4130      1.28138e+9 
           4150      1.26411e+9 
           4170      1.25148e+9 
           4190      1.22797e+9 
           4210      1.20689e+9 
           4230      1.19138e+9 
           4250      1.16526e+9 
           4270      1.14187e+9 
           4290      1.12429e+9 
           4310      1.10185e+9 
           4330      1.06435e+9 
           4350      9.99376e+8 
           4370      1.05267e+9 
           4390      1.03139e+9 
           4410      1.01839e+9 
           4430      1.00759e+9 
           4450      9.90616e+8 
           4470      9.61955e+8 
           4490       9.6002e+8 
           4510      9.44764e+8 
           4530      9.32016e+8 
           4550      9.12922e+8 
           4570      9.02099e+8 
           4590      8.86315e+8 
           4610      8.72384e+8 
           4630      8.57183e+8 
           4650      8.25503e+8 
           4670      8.30557e+8 
           4690      8.11944e+8 
           4710      7.99578e+8 
           4730      7.99667e+8 
           4750      7.86636e+8 
           4770      7.76527e+8 
           4790      7.64834e+8 
           4810      7.52576e+8 
           4830      7.39784e+8 
           4850      7.19105e+8 
           4870      6.68655e+8 
           4890      7.08287e+8 
           4910       6.9784e+8 
           4930      6.80859e+8 
           4950      6.75753e+8 
           4970      6.69181e+8 
           4990      6.59455e+8 
           5010      6.43379e+8 
           5030       6.3942e+8 
           5050      6.29091e+8 
           5070      6.22379e+8 
           5090      6.13266e+8 
           5110      6.04594e+8 
           5130      5.95881e+8 
           5150      5.87483e+8 
           5170      5.78902e+8 
           5190      5.71246e+8 
           5210      5.63413e+8 
           5230      5.55641e+8 
           5250      5.47561e+8 
           5270      5.39791e+8 
           5290      5.32958e+8 
           5310       5.2557e+8 
           5330      5.18437e+8 
           5350       5.1141e+8 
           5370      5.04485e+8 
           5390      4.97364e+8 
           5410      4.88519e+8 
           5430      4.84352e+8 
           5450      4.77772e+8 
           5470      4.71363e+8 
           5490      4.65123e+8 
           5510      4.58874e+8 
           5530      4.52887e+8 
           5550      4.46987e+8 
           5570      4.41051e+8 
           5590      4.34718e+8 
           5610      4.29649e+8 
           5630       4.2407e+8 
           5650        4.185e+8 
           5670      4.12858e+8 
           5690      4.04887e+8 
           5710      3.96464e+8 
           5730      3.91601e+8 
           5750      3.86181e+8 
           5770      3.81924e+8 
           5790      3.77167e+8 
           5810      3.72543e+8 
           5830      3.68118e+8 
           5850      3.64329e+8 
           5870      3.54252e+8 
           5890      3.55955e+8 
           5910      3.52288e+8 
           5930      3.48501e+8 
           5950      3.44928e+8 
           5970      3.41553e+8 
           5990      3.37176e+8 
           6010      3.33173e+8 
           6030      3.28988e+8 
           6050      3.25025e+8 
           6070      3.21139e+8 
           6090      3.17286e+8 
           6110      3.13345e+8 
           6130      3.09629e+8 
           6150      3.05746e+8 
           6170      3.01986e+8 
           6190      2.98651e+8 
           6210      2.95109e+8 
           6230      2.91422e+8 
           6250      2.88074e+8 
           6270      2.84725e+8 
           6290      2.81375e+8 
           6310      2.77797e+8 
           6330      2.74812e+8 
           6350      2.71524e+8 
           6370      2.68447e+8 
           6390      2.65312e+8 
           6410      2.62008e+8 
           6430      2.59224e+8 
           6450      2.56215e+8 
           6470      2.53094e+8 
           6490      2.50213e+8 
           6510      2.47416e+8 
           6530      2.44197e+8 
           6550      2.39688e+8 
           6570      2.21238e+8 
           6590      2.35815e+8 
           6610      2.33752e+8 
           6630      2.31187e+8 
           6650      2.28512e+8 
           6670      2.24477e+8 
           6690      2.21849e+8 
           6710      2.20813e+8 
           6730      2.18288e+8 
           6750      2.16136e+8 
           6770      2.13842e+8 
           6790      2.11334e+8 
           6810      2.09168e+8 
           6830      2.06831e+8 
           6850      2.04621e+8 
           6870      2.02378e+8 
           6890      1.99744e+8 
           6910      1.97761e+8 
           6930      1.95931e+8 
           6950      1.93822e+8 
           6970      1.91742e+8 
           6990      1.89691e+8 
           7010      1.87598e+8 
           7030      1.85533e+8 
           7050      1.83603e+8 
           7070      1.79679e+8 
           7090      1.79828e+8 
           7110      1.77879e+8 
           7130      1.76038e+8 
           7150      1.74229e+8 
           7170      1.72174e+8 
           7190      1.70554e+8 
           7210      1.68834e+8 
           7230      1.66546e+8 
           7250      1.65177e+8 
           7270      1.63649e+8 
           7290      1.61058e+8 
           7310       1.6027e+8 
           7330      1.58653e+8 
           7350      1.57031e+8 
           7370      1.55437e+8 
           7390      1.53866e+8 
           7410      1.52296e+8 
           7430       1.5076e+8 
           7450      1.49226e+8 
           7470       1.4755e+8 
           7490      1.46152e+8 
           7510      1.44767e+8 
           7530      1.43328e+8 
           7550      1.41928e+8 
           7570      1.40509e+8 
           7590       1.3886e+8 
           7610      1.37637e+8 
           7630      1.36366e+8 
           7650       1.3501e+8 
           7670      1.33724e+8 
           7690      1.32316e+8 
           7710      1.31086e+8 
           7730      1.29708e+8 
           7750      1.28563e+8 
           7770      1.27322e+8 
           7790      1.26098e+8 
           7810      1.24841e+8 
           7830      1.23676e+8 
           7850      1.22539e+8 
           7870       1.2126e+8 
           7890      1.20077e+8 
           7910      1.19061e+8 
           7930       1.1791e+8 
           7950      1.16817e+8 
           7970      1.15627e+8 
           7990      1.14588e+8 
           8010      1.13459e+8 
           8030       1.1238e+8 
           8050      1.11358e+8 
           8070       1.1032e+8 
           8090      1.09189e+8 
           8110      1.07923e+8 
           8130      1.07285e+8 
           8150      1.06163e+8 
           8170        1.053e+8 
           8190      1.04095e+8 
           8210      1.02527e+8 
           8230      1.01556e+8 
           8250      1.00849e+8 
           8270      9.95132e+7 
           8290      9.89568e+7 
           8310      9.81101e+7 
           8330      9.71618e+7 
           8350      9.60269e+7 
           8370      9.53158e+7 
           8390      9.45676e+7 
           8410      9.36922e+7 
           8430      9.28241e+7 
           8450      9.17204e+7 
           8470      9.10252e+7 
           8490        9.044e+7 
           8510      8.90739e+7 
           8530      8.90243e+7 
           8550      8.69489e+7 
           8570      8.81182e+7 
