# Kurucz ODFNEW /NOVER (2003)
# teff = 31000 K (value for the effective temperature for the model. Temperatures are given in K)
# logg = 4 log(cm/s2) (value for Log(G) for the model.)
# meta = 0  (value for the Metallicity for the model.)
# lh = 1.25  (l/Hp where l is the  mixing length of the convective element and Hp is the pressure scale height)
# vtur = 2 km/s (Microturbulence velocity)
# alpha = 0  (Alpha)
#
# column 1: WAVELENGTH (ANGSTROM), Wavelength in Angstrom
# column 2: FLUX (ERG/CM2/S/A), Flux in erg/cm2/s/A
          147.2      8.17551e-8 
            151      2.41708e-7 
          155.2      7.53911e-7 
          158.8      1.90834e-6 
            162      4.21832e-6 
            166      1.09043e-5 
          170.3      2.87891e-5 
          173.4      5.64438e-5 
          176.8     0.000115009 
          180.2     0.000227973 
          181.7     0.000306474 
          186.1     0.000707681 
            191      0.00172136 
          193.9      0.00285283 
          198.4      0.00608126 
          201.8       0.0105332 
            205       0.0173793 
          210.5         0.03976 
          216.2       0.0895592 
          219.8        0.146958 
            223        0.224913 
          226.8        0.370165 
            230         168.667 
            234         367.957 
            240         622.434 
          246.5         1118.12 
          252.4         1899.33 
          256.8         2621.26 
            260         4604.63 
            264         7382.05 
          268.5         11101.4 
          273.5           15727 
          278.5         20786.5 
            284         45694.1 
            290         67582.8 
            296         92595.7 
            301          133218 
            308          317446 
            318          698889 
            328      1.04992e+6 
            338      1.87718e+6 
            348      2.96116e+6 
            357      6.51663e+6 
            366       1.2419e+7 
            375      1.53933e+7 
            385      2.25593e+7 
            395      3.74158e+7 
            405      4.71276e+7 
            414      6.18717e+7 
            422      7.10265e+7 
            430       8.4977e+7 
            441        1.079e+8 
            451      1.24796e+8 
            460       1.3803e+8 
            470      1.68208e+8 
            480      2.00906e+8 
            490      2.28376e+8 
            500      2.75796e+8 
            506      6.26416e+8 
            512       4.2639e+9 
            520      4.04594e+9 
            530      3.66993e+9 
            540      3.42416e+9 
            550      4.18163e+9 
            560      5.21475e+9 
            570      5.51447e+9 
            580      5.01955e+9 
            590      5.43049e+9 
            600      4.49616e+9 
            610      5.50748e+9 
            620      6.43067e+9 
            630         6.24e+9 
            640        6.048e+9 
            650      5.80761e+9 
            658       5.2495e+9 
            665      6.19226e+9 
            675      6.81863e+9 
            685      5.57822e+9 
            695      7.38835e+9 
            705      6.07845e+9 
            716      7.93941e+9 
            726      7.74435e+9 
            735      7.78041e+9 
            745      7.66661e+9 
            755       7.6942e+9 
            765      7.89991e+9 
            775      8.19349e+9 
            785      8.51672e+9 
            795       8.5339e+9 
            805      8.23948e+9 
            815      8.19109e+9 
            825      8.69003e+9 
            835      7.14798e+9 
            845      8.35951e+9 
            855      8.31662e+9 
            865       8.5947e+9 
            875      8.70986e+9 
            885      8.93646e+9 
            895      9.04169e+9 
            905      8.80158e+9 
            915     1.02846e+10 
            925     3.58464e+10 
            935     5.64216e+10 
            945       7.226e+10 
            955      7.6897e+10 
            965     8.47902e+10 
            975      3.3044e+10 
            985     6.77373e+10 
            995     6.31596e+10 
           1005     6.68063e+10 
           1015     6.97492e+10 
           1025     5.60455e+10 
           1035     6.62848e+10 
           1045      7.7214e+10 
           1055     7.30392e+10 
           1065     6.33105e+10 
           1075     6.60338e+10 
           1085     6.09692e+10 
           1095     6.46019e+10 
           1105     6.17873e+10 
           1115     6.06779e+10 
           1125     4.97156e+10 
           1135     5.82425e+10 
           1145     5.55629e+10 
           1155     5.36646e+10 
           1165     5.20811e+10 
           1175     3.37921e+10 
           1185     4.73278e+10 
           1195     4.61591e+10 
           1205     4.34347e+10 
           1215     3.51331e+10 
           1225     4.29719e+10 
           1235     4.58109e+10 
           1245     4.38579e+10 
           1255      4.3743e+10 
           1265     4.47515e+10 
           1275     4.57556e+10 
           1285      4.5539e+10 
           1295     4.17586e+10 
           1305     4.18953e+10 
           1315     4.42627e+10 
           1325     4.24812e+10 
           1335     4.11052e+10 
           1345     4.10981e+10 
           1355     4.01552e+10 
           1365     3.86692e+10 
           1375     3.75609e+10 
           1385     3.63291e+10 
           1395      2.8266e+10 
           1405     2.93574e+10 
           1415     3.40975e+10 
           1425     3.09138e+10 
           1435        3.27e+10 
           1442     3.25427e+10 
           1447     3.22768e+10 
           1455     3.08107e+10 
           1465      2.9835e+10 
           1475     3.00622e+10 
           1485     2.99217e+10 
           1495     2.89716e+10 
           1505     2.78777e+10 
           1512     2.68951e+10 
           1517     2.72059e+10 
           1525     2.64045e+10 
           1535     2.29837e+10 
           1545      2.0173e+10 
           1555     2.00172e+10 
           1565     2.22218e+10 
           1575     2.33589e+10 
           1585      2.3443e+10 
           1595      2.3184e+10 
           1605       2.202e+10 
           1615     2.10433e+10 
           1625     2.14628e+10 
           1635     2.17605e+10 
           1645     2.15956e+10 
           1655       2.166e+10 
           1665     2.13707e+10 
           1672     1.98351e+10 
           1677     2.28302e+10 
           1685     2.16705e+10 
           1695     2.08294e+10 
           1705     2.05534e+10 
           1715     1.95959e+10 
           1725     1.89287e+10 
           1735     1.95284e+10 
           1745     1.92607e+10 
           1755     1.90088e+10 
           1765     1.87613e+10 
           1775     1.80603e+10 
           1785     1.82712e+10 
           1795     1.79407e+10 
           1805     1.79286e+10 
           1815     1.72124e+10 
           1825     1.70876e+10 
           1835     1.69769e+10 
           1845     1.58847e+10 
           1855     1.61387e+10 
           1865     1.61751e+10 
           1875     1.59259e+10 
           1885      1.4941e+10 
           1895     1.44386e+10 
           1905     1.49403e+10 
           1915     1.44642e+10 
           1925     1.35966e+10 
           1935     1.43831e+10 
           1945     1.45741e+10 
           1955     1.32259e+10 
           1967     1.38595e+10 
           1976     1.42439e+10 
           1984     1.35742e+10 
           1995     1.32347e+10 
           2005     1.34478e+10 
           2015     1.34177e+10 
           2025      1.3449e+10 
           2035     1.27641e+10 
           2045     1.26459e+10 
           2055     1.07273e+10 
           2065      1.0432e+10 
           2074     1.09153e+10 
           2078     1.06552e+10 
           2085     1.12311e+10 
           2095     1.14495e+10 
           2105      1.1698e+10 
           2115     1.17527e+10 
           2125     1.16173e+10 
           2135     1.14741e+10 
           2145     1.11929e+10 
           2155     1.12653e+10 
           2165     1.08963e+10 
           2175     1.09635e+10 
           2185      1.0689e+10 
           2195     1.07873e+10 
           2205     1.06238e+10 
           2215     1.03216e+10 
           2225       1.028e+10 
           2235     1.00969e+10 
           2245      9.98702e+9 
           2255      9.71935e+9 
           2265      9.72991e+9 
           2275      9.62127e+9 
           2285      9.41747e+9 
           2295      8.50015e+9 
           2305      9.03139e+9 
           2315       8.9683e+9 
           2325      8.90386e+9 
           2335       8.7483e+9 
           2345      8.68138e+9 
           2355      8.52766e+9 
           2365      8.40451e+9 
           2375      8.23637e+9 
           2385      7.98267e+9 
           2395      7.96475e+9 
           2405       7.9247e+9 
           2415      7.81335e+9 
           2425      7.74968e+9 
           2435      7.60165e+9 
           2445      7.52636e+9 
           2455      7.43517e+9 
           2465      7.33343e+9 
           2475      7.22263e+9 
           2485      7.03528e+9 
           2495      5.49333e+9 
           2505      6.74688e+9 
           2513      6.53815e+9 
           2518      6.66551e+9 
           2525       6.7586e+9 
           2535      6.70128e+9 
           2545      6.54228e+9 
           2555      6.48136e+9 
           2565      6.41661e+9 
           2575      6.34016e+9 
           2585      6.26696e+9 
           2595      6.17344e+9 
           2605      6.13002e+9 
           2615      6.01932e+9 
           2625      5.96808e+9 
           2635      5.89899e+9 
           2645      5.80547e+9 
           2655      5.74097e+9 
           2665      5.60727e+9 
           2675      5.51225e+9 
           2685      5.52195e+9 
           2695       5.3799e+9 
           2705      5.32784e+9 
           2715      5.26618e+9 
           2725      5.21847e+9 
           2735      5.11541e+9 
           2745       5.1112e+9 
           2755      5.05531e+9 
           2765      4.96706e+9 
           2775      4.95922e+9 
           2785      4.87704e+9 
           2795      4.72439e+9 
           2805      4.73812e+9 
           2815      4.72025e+9 
           2825      4.64587e+9 
           2835      4.54645e+9 
           2845      4.55239e+9 
           2855      4.48312e+9 
           2865      4.42516e+9 
           2875      4.37752e+9 
           2885      4.32804e+9 
           2895      4.27617e+9 
           2910      4.18081e+9 
           2930      4.11292e+9 
           2950      3.99128e+9 
           2970      3.91425e+9 
           2990      3.80665e+9 
           3010      3.69918e+9 
           3030       3.6206e+9 
           3050      3.56177e+9 
           3070      3.49944e+9 
           3090      3.38359e+9 
           3110      3.34624e+9 
           3130      3.26051e+9 
           3150      3.19737e+9 
           3170      3.12206e+9 
           3190      3.05401e+9 
           3210      2.98401e+9 
           3230      2.92485e+9 
           3250      2.87659e+9 
           3270      2.80001e+9 
           3290      2.74867e+9 
           3310      2.69179e+9 
           3330      2.62758e+9 
           3350      2.56978e+9 
           3370      2.51957e+9 
           3390      2.48229e+9 
           3410      2.43074e+9 
           3430      2.38137e+9 
           3450      2.32314e+9 
           3470      2.28183e+9 
           3490      2.23509e+9 
           3510      2.19495e+9 
           3530      2.15806e+9 
           3550      2.11339e+9 
           3570      2.07654e+9 
           3590      2.02464e+9 
           3610      1.98701e+9 
           3630       1.9493e+9 
           3640      1.93372e+9 
           3650      1.86169e+9 
           3670      1.83399e+9 
           3690       1.7972e+9 
           3710      1.73857e+9 
           3730      1.69211e+9 
           3750      1.71706e+9 
           3770      1.69165e+9 
           3790      1.73676e+9 
           3810      1.77131e+9 
           3830      1.60871e+9 
           3850      1.76093e+9 
           3870      1.71759e+9 
           3890      1.52249e+9 
           3910      1.70106e+9 
           3930      1.64933e+9 
           3950      1.61977e+9 
           3970      1.40493e+9 
           3990      1.57584e+9 
           4010      1.55002e+9 
           4030      1.49183e+9 
           4050      1.50152e+9 
           4070      1.44536e+9 
           4090      1.37582e+9 
           4110      1.26674e+9 
           4130      1.37631e+9 
           4150      1.35999e+9 
           4170       1.3496e+9 
           4190      1.32582e+9 
           4210      1.30356e+9 
           4230      1.28573e+9 
           4250      1.25348e+9 
           4270      1.22464e+9 
           4290      1.20631e+9 
           4310       1.1761e+9 
           4330       1.1149e+9 
           4350      1.03967e+9 
           4370      1.12163e+9 
           4390      1.10082e+9 
           4410      1.09003e+9 
           4430      1.08071e+9 
           4450      1.06141e+9 
           4470      1.02476e+9 
           4490      1.02897e+9 
           4510         1.01e+9 
           4530      9.97408e+8 
           4550      9.77158e+8 
           4570       9.6664e+8 
           4590      9.48829e+8 
           4610      9.31396e+8 
           4630      9.12998e+8 
           4650      8.73382e+8 
           4670      8.85696e+8 
           4690      8.68669e+8 
           4710      8.51883e+8 
           4730      8.53568e+8 
           4750      8.38998e+8 
           4770      8.31116e+8 
           4790      8.17853e+8 
           4810      8.03494e+8 
           4830      7.88311e+8 
           4850      7.54772e+8 
           4870      6.90814e+8 
           4890      7.53597e+8 
           4910      7.43798e+8 
           4930      7.22834e+8 
           4950      7.19634e+8 
           4970      7.13609e+8 
           4990      7.02741e+8 
           5010      6.80647e+8 
           5030      6.80307e+8 
           5050      6.68637e+8 
           5070      6.62551e+8 
           5090      6.52338e+8 
           5110      6.42524e+8 
           5130      6.32055e+8 
           5150      6.23235e+8 
           5170      6.14716e+8 
           5190      6.06728e+8 
           5210      5.98346e+8 
           5230      5.89784e+8 
           5250      5.80461e+8 
           5270      5.72021e+8 
           5290      5.65213e+8 
           5310      5.57196e+8 
           5330      5.49574e+8 
           5350      5.41893e+8 
           5370       5.3448e+8 
           5390      5.26722e+8 
           5410      5.17145e+8 
           5430      5.12806e+8 
           5450      5.05663e+8 
           5470      4.98698e+8 
           5490      4.91934e+8 
           5510      4.85404e+8 
           5530      4.78622e+8 
           5550      4.72635e+8 
           5570      4.66102e+8 
           5590      4.59409e+8 
           5610      4.53972e+8 
           5630      4.48007e+8 
           5650      4.41761e+8 
           5670      4.35041e+8 
           5690      4.25553e+8 
           5710      4.19145e+8 
           5730      4.14067e+8 
           5750      4.07956e+8 
           5770      4.03843e+8 
           5790      3.98507e+8 
           5810       3.9319e+8 
           5830       3.8777e+8 
           5850      3.84033e+8 
           5870      3.71701e+8 
           5890      3.73829e+8 
           5910      3.70365e+8 
           5930      3.65942e+8 
           5950      3.61794e+8 
           5970      3.58624e+8 
           5990      3.53986e+8 
           6010      3.50184e+8 
           6030      3.45441e+8 
           6050       3.4138e+8 
           6070      3.37396e+8 
           6090      3.33314e+8 
           6110      3.29118e+8 
           6130      3.25209e+8 
           6150      3.20607e+8 
           6170       3.1687e+8 
           6190        3.134e+8 
           6210      3.09763e+8 
           6230      3.05972e+8 
           6250      3.02078e+8 
           6270      2.98611e+8 
           6290      2.95163e+8 
           6310      2.91393e+8 
           6330      2.88191e+8 
           6350      2.84576e+8 
           6370      2.81436e+8 
           6390      2.78062e+8 
           6410      2.74716e+8 
           6430      2.71652e+8 
           6450      2.68376e+8 
           6470      2.64767e+8 
           6490      2.61841e+8 
           6510      2.58936e+8 
           6530       2.5525e+8 
           6550      2.48609e+8 
           6570      2.25497e+8 
           6590      2.45583e+8 
           6610      2.44384e+8 
           6630      2.41815e+8 
           6650      2.38974e+8 
           6670      2.34376e+8 
           6690      2.31672e+8 
           6710      2.30853e+8 
           6730      2.27953e+8 
           6750       2.2581e+8 
           6770      2.23483e+8 
           6790      2.20298e+8 
           6810      2.18453e+8 
           6830      2.16013e+8 
           6850      2.13718e+8 
           6870      2.11318e+8 
           6890      2.08561e+8 
           6910      2.06345e+8 
           6930      2.04544e+8 
           6950      2.02316e+8 
           6970      2.00125e+8 
           6990      1.97948e+8 
           7010      1.95739e+8 
           7030      1.93438e+8 
           7050      1.91508e+8 
           7070      1.87065e+8 
           7090      1.87532e+8 
           7110      1.85115e+8 
           7130      1.83263e+8 
           7150      1.81627e+8 
           7170      1.79524e+8 
           7190      1.77761e+8 
           7210      1.75943e+8 
           7230      1.72744e+8 
           7250      1.72029e+8 
           7270      1.70478e+8 
           7290      1.67601e+8 
           7310      1.66904e+8 
           7330      1.65181e+8 
           7350      1.63495e+8 
           7370      1.61825e+8 
           7390      1.60164e+8 
           7410      1.58519e+8 
           7430      1.56902e+8 
           7450      1.55287e+8 
           7470       1.5339e+8 
           7490      1.51941e+8 
           7510      1.50578e+8 
           7530      1.49035e+8 
           7550      1.47612e+8 
           7570       1.4611e+8 
           7590      1.44399e+8 
           7610       1.4303e+8 
           7630      1.41737e+8 
           7650      1.40334e+8 
           7670      1.38982e+8 
           7690      1.37483e+8 
           7710      1.36168e+8 
           7730      1.34727e+8 
           7750      1.33562e+8 
           7770      1.32245e+8 
           7790      1.30983e+8 
           7810      1.29659e+8 
           7830      1.28444e+8 
           7850      1.27253e+8 
           7870      1.25871e+8 
           7890      1.24592e+8 
           7910      1.23535e+8 
           7930      1.22332e+8 
           7950      1.21216e+8 
           7970      1.19986e+8 
           7990      1.18896e+8 
           8010      1.17698e+8 
           8030      1.16564e+8 
           8050      1.15514e+8 
           8070      1.14422e+8 
           8090      1.13235e+8 
           8110      1.11795e+8 
           8130      1.11229e+8 
           8150      1.10077e+8 
           8170      1.09177e+8 
           8190      1.07802e+8 
           8210      1.06339e+8 
           8230      1.05238e+8 
           8250      1.04624e+8 
           8270      1.03077e+8 
           8290      1.02646e+8 
           8310      1.01787e+8 
           8330      1.00756e+8 
           8350       9.9485e+7 
           8370      9.88327e+7 
           8390      9.81051e+7 
           8410       9.7165e+7 
           8430      9.62751e+7 
           8450      9.49758e+7 
           8470      9.44752e+7 
           8490      9.35864e+7 
           8510      9.23719e+7 
           8530      9.19962e+7 
           8550      9.03604e+7 
           8570      9.10266e+7 
           8590      8.82904e+7 
