# Kurucz ODFNEW /NOVER (2003)
# teff = 7750 K (value for the effective temperature for the model. Temperatures are given in K)
# logg = 3 log(cm/s2) (value for Log(G) for the model.)
# meta = -1  (value for the Metallicity for the model.)
# lh = 1.25  (l/Hp where l is the  mixing length of the convective element and Hp is the pressure scale height)
# vtur = 2 km/s (Microturbulence velocity)
# alpha = 0  (Alpha)
#
# column 1: WAVELENGTH (ANGSTROM), Wavelength in Angstrom
# column 2: FLUX (ERG/CM2/S/A), Flux in erg/cm2/s/A
            348     3.41752e-23 
            357     2.95453e-22 
            366     2.05452e-21 
            375     1.29129e-20 
            385     8.96195e-20 
            395     5.61985e-19 
            405     2.81241e-19 
            414     1.15573e-18 
            422     3.84464e-18 
            430     1.21947e-17 
            441     5.54437e-17 
            451     2.05015e-16 
            460     6.31485e-16 
            470     2.08864e-15 
            480     6.54567e-15 
            490      1.9519e-14 
            500     5.54787e-14 
            506     1.34931e-13 
            512     2.74301e-13 
            520     5.87079e-13 
            530     1.47808e-12 
            540     3.52725e-12 
            550     8.23624e-12 
            560     1.84941e-11 
            570     4.02564e-11 
            580      8.4109e-11 
            590     1.74826e-10 
            600     3.49898e-10 
            610     6.82963e-10 
            620       1.3014e-9 
            630      2.42439e-9 
            640       4.4217e-9 
            650      7.90187e-9 
            658      1.23957e-8 
            665      1.81965e-8 
            675      3.10115e-8 
            685      5.19364e-8 
            695      8.55514e-8 
            705      1.38617e-7 
            716      2.31811e-7 
            726       3.6421e-7 
            735      5.40577e-7 
            745      8.27885e-7 
            755      1.25188e-6 
            765      1.86966e-6 
            775      2.75968e-6 
            785       4.0277e-6 
            795      5.80415e-6 
            805       8.3011e-6 
            815      1.17439e-5 
            825      1.64507e-5 
            835      2.28321e-5 
            845      3.14062e-5 
            855      4.28251e-5 
            865      5.79173e-5 
            875      7.76659e-5 
            885     0.000103429 
            895     0.000136667 
            905     0.000179159 
            915         0.31207 
            925         1.44457 
            935         1.98154 
            945         2.71925 
            955         3.77954 
            965          4.8255 
            975         5.25053 
            985          7.5142 
            995         8.97697 
           1005         11.7033 
           1015         13.7443 
           1025         14.1846 
           1035         20.7221 
           1045         26.1607 
           1055         31.8111 
           1065         37.5758 
           1075         45.9524 
           1085         55.3594 
           1095         64.5988 
           1105         165.949 
           1115         435.054 
           1125          575.62 
           1135         753.824 
           1145         875.283 
           1155         884.394 
           1165         1036.07 
           1175         1035.48 
           1185          1253.2 
           1195         445.762 
           1205          281.92 
           1215         68.8881 
           1225         320.589 
           1235         831.399 
           1245         1528.79 
           1255         2711.93 
           1265         3601.03 
           1275         5109.04 
           1285         7513.03 
           1295         9871.65 
           1305         10816.4 
           1315         15855.2 
           1325         21610.8 
           1335           28156 
           1345           41750 
           1355         48272.4 
           1365         60837.6 
           1375         67103.4 
           1385         65381.8 
           1395         74752.5 
           1405          112470 
           1415          166903 
           1425          197954 
           1435          198937 
           1442          266672 
           1447          258859 
           1455          341312 
           1465          318870 
           1475          350924 
           1485          397447 
           1495          452171 
           1505          512829 
           1512          487394 
           1517          485987 
           1525          550088 
           1535      1.25839e+6 
           1545      1.79998e+6 
           1555      1.61799e+6 
           1565      1.17045e+6 
           1575      1.51638e+6 
           1585      1.52178e+6 
           1595      1.52334e+6 
           1605      1.50047e+6 
           1615      2.16225e+6 
           1625      3.01826e+6 
           1635      4.55434e+6 
           1645      7.22378e+6 
           1655      5.04034e+6 
           1665      9.25032e+6 
           1672      5.66122e+6 
           1677      9.87781e+6 
           1685      1.18446e+7 
           1695      1.09654e+7 
           1705       1.1086e+7 
           1715      1.26061e+7 
           1725      1.26656e+7 
           1735      1.42033e+7 
           1745      1.36314e+7 
           1755      1.54617e+7 
           1765      1.23919e+7 
           1775      1.46202e+7 
           1785      1.47264e+7 
           1795      1.68498e+7 
           1805      1.52622e+7 
           1815      1.58412e+7 
           1825      1.43504e+7 
           1835      1.45602e+7 
           1845       1.2974e+7 
           1855      1.38965e+7 
           1865      1.45591e+7 
           1875      1.47482e+7 
           1885      1.49611e+7 
           1895       1.5453e+7 
           1905      1.43943e+7 
           1915      1.56692e+7 
           1925      1.59796e+7 
           1935      1.40591e+7 
           1945      1.65539e+7 
           1955      1.65161e+7 
           1967      1.73745e+7 
           1976      1.68625e+7 
           1984      1.64828e+7 
           1995      1.60194e+7 
           2005      1.53418e+7 
           2015      1.53309e+7 
           2025      1.42474e+7 
           2035      1.57415e+7 
           2045      1.68482e+7 
           2055      1.61333e+7 
           2065      1.56665e+7 
           2074      1.74059e+7 
           2078      1.77831e+7 
           2085      1.73571e+7 
           2095      1.66811e+7 
           2105      1.59457e+7 
           2115      1.62172e+7 
           2125      1.66489e+7 
           2135      1.37097e+7 
           2145      1.58486e+7 
           2155      1.58657e+7 
           2165      1.49157e+7 
           2175      1.47797e+7 
           2185      1.54133e+7 
           2195      1.66384e+7 
           2205      1.59795e+7 
           2215      1.45087e+7 
           2225      1.46145e+7 
           2235      1.67058e+7 
           2245      1.49226e+7 
           2255      1.43519e+7 
           2265      1.42218e+7 
           2275      1.54218e+7 
           2285      1.59437e+7 
           2295      1.47823e+7 
           2305      1.51939e+7 
           2315      1.50629e+7 
           2325      1.48758e+7 
           2335      1.38214e+7 
           2345      1.20362e+7 
           2355      1.50093e+7 
           2365      1.25637e+7 
           2375      1.41518e+7 
           2385      1.12657e+7 
           2395      1.27783e+7 
           2405      1.23309e+7 
           2415      1.27283e+7 
           2425       1.4541e+7 
           2435      1.41073e+7 
           2445      1.49758e+7 
           2455      1.46209e+7 
           2465      1.46712e+7 
           2475      1.38302e+7 
           2485      1.43054e+7 
           2495      1.38091e+7 
           2505      1.58676e+7 
           2513      1.39329e+7 
           2518      1.42265e+7 
           2525      1.30906e+7 
           2535      1.26211e+7 
           2545      1.26198e+7 
           2555      1.38457e+7 
           2565       1.3837e+7 
           2575      1.50564e+7 
           2585      1.51346e+7 
           2595      1.47614e+7 
           2605      1.40837e+7 
           2615      1.36341e+7 
           2625      1.52488e+7 
           2635      1.55196e+7 
           2645      1.78488e+7 
           2655      1.78338e+7 
           2665      1.61906e+7 
           2675      1.69679e+7 
           2685      1.71443e+7 
           2695      1.60095e+7 
           2705      1.64351e+7 
           2715       1.5426e+7 
           2725      1.56245e+7 
           2735      1.69181e+7 
           2745      1.37997e+7 
           2755      1.46031e+7 
           2765      1.53378e+7 
           2775      1.67093e+7 
           2785      1.61805e+7 
           2795      1.05925e+7 
           2805      1.23255e+7 
           2815      1.74872e+7 
           2825      1.76926e+7 
           2835      1.71143e+7 
           2845      1.65334e+7 
           2855      1.57305e+7 
           2865      1.70143e+7 
           2875      1.66473e+7 
           2885      1.70988e+7 
           2895      1.64554e+7 
           2910      1.82708e+7 
           2930       1.7694e+7 
           2950      1.75796e+7 
           2970      1.79552e+7 
           2990      1.80984e+7 
           3010      1.83057e+7 
           3030      1.82922e+7 
           3050       1.8294e+7 
           3070      1.82843e+7 
           3090      1.85632e+7 
           3110      1.82158e+7 
           3130      1.81987e+7 
           3150      1.86176e+7 
           3170      1.86061e+7 
           3190       1.7843e+7 
           3210      1.82553e+7 
           3230      1.78097e+7 
           3250      1.82574e+7 
           3270      1.84674e+7 
           3290      1.87197e+7 
           3310      1.88635e+7 
           3330      1.85343e+7 
           3350      1.83042e+7 
           3370      1.82999e+7 
           3390      1.82915e+7 
           3410      1.85826e+7 
           3430       1.8689e+7 
           3450      1.85673e+7 
           3470      1.83936e+7 
           3490      1.83937e+7 
           3510      1.86791e+7 
           3530      1.87136e+7 
           3550      1.88868e+7 
           3570      1.84423e+7 
           3590      1.83926e+7 
           3610      1.84449e+7 
           3630      1.85702e+7 
           3640      1.84267e+7 
           3650      1.88205e+7 
           3670      1.86425e+7 
           3690      1.81488e+7 
           3710       2.0971e+7 
           3730      2.36193e+7 
           3750      3.14537e+7 
           3770      3.35992e+7 
           3790      4.09222e+7 
           3810      4.75269e+7 
           3830      3.76218e+7 
           3850      5.21588e+7 
           3870        5.797e+7 
           3890      3.41051e+7 
           3910      5.76869e+7 
           3930      5.59793e+7 
           3950      5.77125e+7 
           3970       3.2264e+7 
           3990      5.59932e+7 
           4010      6.16961e+7 
           4030      6.15956e+7 
           4050      6.08279e+7 
           4070      5.80528e+7 
           4090      4.67531e+7 
           4110        3.598e+7 
           4130      5.55258e+7 
           4150      5.77065e+7 
           4170      5.74099e+7 
           4190      5.66979e+7 
           4210      5.62923e+7 
           4230      5.51359e+7 
           4250      5.48205e+7 
           4270      5.38247e+7 
           4290       5.3152e+7 
           4310      4.97375e+7 
           4330      3.93489e+7 
           4350      3.36881e+7 
           4370      4.93576e+7 
           4390      5.03222e+7 
           4410      4.98261e+7 
           4430      4.99359e+7 
           4450      4.96022e+7 
           4470      4.91555e+7 
           4490      4.85971e+7 
           4510      4.84782e+7 
           4530      4.75389e+7 
           4550      4.66105e+7 
           4570      4.70062e+7 
           4590      4.61879e+7 
           4610      4.64138e+7 
           4630      4.54232e+7 
           4650      4.54201e+7 
           4670      4.49835e+7 
           4690      4.41365e+7 
           4710      4.28862e+7 
           4730      4.35767e+7 
           4750      4.31855e+7 
           4770      4.26287e+7 
           4790      4.20666e+7 
           4810      4.13023e+7 
           4830      3.96271e+7 
           4850      3.20731e+7 
           4870      2.60378e+7 
           4890      3.75735e+7 
           4910      3.90948e+7 
           4930      3.86574e+7 
           4950      3.87669e+7 
           4970      3.87178e+7 
           4990      3.81267e+7 
           5010      3.73186e+7 
           5030      3.75078e+7 
           5050      3.70355e+7 
           5070      3.69007e+7 
           5090      3.65052e+7 
           5110      3.62055e+7 
           5130      3.57277e+7 
           5150      3.52817e+7 
           5170      3.43764e+7 
           5190      3.41553e+7 
           5210      3.41767e+7 
           5230       3.3661e+7 
           5250      3.38657e+7 
           5270      3.28861e+7 
           5290      3.31724e+7 
           5310      3.26905e+7 
           5330      3.22043e+7 
           5350       3.2314e+7 
           5370      3.18504e+7 
           5390      3.16106e+7 
           5410      3.11765e+7 
           5430      3.09932e+7 
           5450      3.07877e+7 
           5470      3.05504e+7 
           5490      3.03407e+7 
           5510      3.00725e+7 
           5530      2.97001e+7 
           5550      2.95721e+7 
           5570      2.92302e+7 
           5590      2.89322e+7 
           5610      2.87239e+7 
           5630       2.8538e+7 
           5650      2.82584e+7 
           5670      2.79809e+7 
           5690      2.77787e+7 
           5710       2.7529e+7 
           5730      2.73394e+7 
           5750      2.70744e+7 
           5770      2.68497e+7 
           5790      2.66072e+7 
           5810      2.63864e+7 
           5830      2.61669e+7 
           5850      2.59211e+7 
           5870      2.57043e+7 
           5890      2.52434e+7 
           5910      2.52691e+7 
           5930      2.50539e+7 
           5950       2.4839e+7 
           5970      2.46327e+7 
           5990      2.44044e+7 
           6010      2.41838e+7 
           6030      2.39947e+7 
           6050      2.38023e+7 
           6070      2.36161e+7 
           6090      2.34074e+7 
           6110      2.32009e+7 
           6130      2.29565e+7 
           6150      2.27049e+7 
           6170      2.25589e+7 
           6190      2.24527e+7 
           6210      2.22721e+7 
           6230      2.20614e+7 
           6250      2.17758e+7 
           6270      2.17301e+7 
           6290      2.15521e+7 
           6310      2.13409e+7 
           6330      2.11847e+7 
           6350      2.09646e+7 
           6370      2.08099e+7 
           6390      2.06743e+7 
           6410      2.04657e+7 
           6430      2.03277e+7 
           6450      2.00633e+7 
           6470      1.99466e+7 
           6490      1.96933e+7 
           6510      1.94853e+7 
           6530      1.90004e+7 
           6550      1.69114e+7 
           6570      1.36082e+7 
           6590      1.81043e+7 
           6610      1.86519e+7 
           6630      1.86707e+7 
           6650      1.85781e+7 
           6670      1.84576e+7 
           6690      1.83474e+7 
           6710      1.82055e+7 
           6730      1.80642e+7 
           6750      1.79119e+7 
           6770      1.77939e+7 
           6790      1.76532e+7 
           6810      1.75172e+7 
           6830      1.73744e+7 
           6850       1.7241e+7 
           6870      1.71152e+7 
           6890       1.6985e+7 
           6910      1.68545e+7 
           6930      1.67244e+7 
           6950      1.65979e+7 
           6970      1.64702e+7 
           6990      1.63475e+7 
           7010      1.62061e+7 
           7030      1.60919e+7 
           7050      1.59772e+7 
           7070      1.58583e+7 
           7090      1.57397e+7 
           7110       1.5541e+7 
           7130      1.54866e+7 
           7150      1.53757e+7 
           7170       1.5263e+7 
           7190      1.51425e+7 
           7210      1.50347e+7 
           7230      1.49228e+7 
           7250      1.48126e+7 
           7270      1.47127e+7 
           7290      1.45895e+7 
           7310      1.44837e+7 
           7330      1.43795e+7 
           7350       1.4284e+7 
           7370      1.41823e+7 
           7390       1.4069e+7 
           7410       1.3952e+7 
           7430      1.38511e+7 
           7450      1.37571e+7 
           7470      1.36377e+7 
           7490      1.35448e+7 
           7510      1.34627e+7 
           7530      1.33727e+7 
           7550      1.32841e+7 
           7570      1.31844e+7 
           7590      1.30921e+7 
           7610       1.2998e+7 
           7630      1.29054e+7 
           7650       1.2809e+7 
           7670      1.27077e+7 
           7690      1.26252e+7 
           7710      1.25268e+7 
           7730      1.24526e+7 
           7750      1.23602e+7 
           7770      1.21275e+7 
           7790      1.21926e+7 
           7810      1.21055e+7 
           7830      1.20112e+7 
           7850      1.19207e+7 
           7870      1.18334e+7 
           7890      1.17463e+7 
           7910      1.16761e+7 
           7930      1.15886e+7 
           7950      1.15065e+7 
           7970      1.14476e+7 
           7990      1.13455e+7 
           8010      1.12837e+7 
           8030      1.12036e+7 
           8050      1.11299e+7 
           8070      1.10529e+7 
           8090      1.09758e+7 
           8110      1.09057e+7 
           8130      1.08322e+7 
           8150      1.07581e+7 
           8170      1.06846e+7 
           8190      1.05651e+7 
           8210      1.05355e+7 
           8230       1.0461e+7 
           8250       1.0386e+7 
           8270      1.03606e+7 
           8290      1.02926e+7 
           8310      1.02207e+7 
           8330      1.00919e+7 
           8350      1.00744e+7 
           8370      9.97307e+6 
           8390      9.88009e+6 
           8410      9.79054e+6 
           8430      9.76853e+6 
           8450      9.65903e+6 
           8470      9.37716e+6 
           8490      9.76579e+6 
           8510      9.03848e+6 
           8530      9.78211e+6 
           8550      8.55007e+6 
           8570      9.85976e+6 
           8590      9.16805e+6 
           8610      8.88107e+6 
           8630      9.92699e+6 
           8650      9.60069e+6 
           8670      7.92762e+6 
           8690      9.71954e+6 
           8710       9.9893e+6 
           8730       9.6722e+6 
           8750      7.77447e+6 
           8770      9.27461e+6 
           8790      9.84632e+6 
           8810      9.84632e+6 
           8830      9.65923e+6 
           8850      8.84988e+6 
           8870      7.53872e+6 
           8890      9.27903e+6 
           8910      9.53401e+6 
           8930      9.54332e+6 
           8950       9.5374e+6 
           8970      9.40221e+6 
           8990      9.05884e+6 
           9010      7.40603e+6 
           9030      8.11941e+6 
           9050      9.00765e+6 
           9070       9.0275e+6 
           9090      8.94724e+6 
           9110      9.04146e+6 
           9130      9.04121e+6 
           9150      8.97878e+6 
           9170      8.88097e+6 
           9190      8.71121e+6 
           9210       8.2093e+6 
           9230      6.58712e+6 
           9250      7.95441e+6 
           9270      8.38571e+6 
           9290      8.54214e+6 
           9310      8.53112e+6 
           9330      8.49156e+6 
           9350      8.44665e+6 
           9370      8.40849e+6 
           9390      8.34536e+6 
           9410      8.18271e+6 
