# Kurucz ODFNEW /NOVER (2003)
# teff = 8000 K (value for the effective temperature for the model. Temperatures are given in K)
# logg = 3.5 log(cm/s2) (value for Log(G) for the model.)
# meta = -1  (value for the Metallicity for the model.)
# lh = 1.25  (l/Hp where l is the  mixing length of the convective element and Hp is the pressure scale height)
# vtur = 2 km/s (Microturbulence velocity)
# alpha = 0.4  (Alpha)
#
# column 1: WAVELENGTH (ANGSTROM), Wavelength in Angstrom
# column 2: FLUX (ERG/CM2/S/A), Flux in erg/cm2/s/A
            338     8.95591e-23 
            348     9.40828e-22 
            357     6.66472e-21 
            366     4.26744e-20 
            375     2.49141e-19 
            385     1.60103e-18 
            395     9.33294e-18 
            405     4.97138e-17 
            414     2.08529e-16 
            422     7.07177e-16 
            430     2.28768e-15 
            441     8.91377e-16 
            451     3.11643e-15 
            460     9.14744e-15 
            470     2.87365e-14 
            480     8.57223e-14 
            490     2.43815e-13 
            500     6.62215e-13 
            506     1.66738e-11 
            512     4.21835e-11 
            520     6.43463e-12 
            530     1.55627e-11 
            540     3.57157e-11 
            550     8.03374e-11 
            560     1.73997e-10 
            570     3.65749e-10 
            580       7.388e-10 
            590      1.48668e-9 
            600      2.88324e-9 
            610      5.45959e-9 
            620      1.01013e-8 
            630      1.82888e-8 
            640      3.24478e-8 
            650      5.64568e-8 
            658      8.67368e-8 
            665      1.25058e-7 
            675      2.07926e-7 
            685      3.39978e-7 
            695       5.4708e-7 
            705      8.65979e-7 
            716      1.41438e-6 
            726      2.17507e-6 
            735      3.16823e-6 
            745      4.75418e-6 
            755      7.04784e-6 
            765      1.03249e-5 
            775      1.49569e-5 
            785      2.14352e-5 
            795      3.02802e-5 
            805      4.26246e-5 
            815      5.93205e-5 
            825      8.17306e-5 
            835      0.00011161 
            845      0.00015113 
            855     0.000202932 
            865     0.000270343 
            875      0.00035705 
            885     0.000468954 
            895     0.000611026 
            905     0.000789912 
            915        0.775755 
            925          4.3486 
            935         6.39586 
            945         9.14208 
            955         12.7391 
            965         16.3641 
            975           16.74 
            985         24.7916 
            995         29.1555 
           1005         37.5265 
           1015         43.5631 
           1025          41.767 
           1035         63.3272 
           1045         79.9255 
           1055         96.2923 
           1065         112.714 
           1075         136.883 
           1085         163.489 
           1095         188.518 
           1105         462.587 
           1115          1142.1 
           1125         1475.81 
           1135         1918.47 
           1145         2226.17 
           1155         2257.65 
           1165         2660.46 
           1175         2716.05 
           1185         3050.11 
           1195         1155.86 
           1205         757.908 
           1215          178.22 
           1225         839.154 
           1235         2254.07 
           1245         4291.49 
           1255         7050.35 
           1265         8459.21 
           1275         12103.8 
           1285           17392 
           1295         22115.7 
           1305         22214.1 
           1315         33844.6 
           1325         43796.6 
           1335         54005.9 
           1345         71217.3 
           1355         77253.1 
           1365         90313.2 
           1375           95823 
           1385         94039.7 
           1395          105105 
           1405          137327 
           1415          183335 
           1425          205523 
           1435          199870 
           1442          251363 
           1447          245544 
           1455          295205 
           1465          277445 
           1475          295063 
           1485          320879 
           1495          354712 
           1505          387553 
           1512          378683 
           1517          394820 
           1525          423314 
           1535      1.24584e+6 
           1545      2.33311e+6 
           1555      2.09287e+6 
           1565      1.56646e+6 
           1575      2.28654e+6 
           1585      2.45962e+6 
           1595      2.44664e+6 
           1605      2.51365e+6 
           1615      3.53904e+6 
           1625      4.66264e+6 
           1635      6.53351e+6 
           1645       1.0723e+7 
           1655      7.87947e+6 
           1665      1.32307e+7 
           1672      9.09136e+6 
           1677      1.42864e+7 
           1685      1.69946e+7 
           1695      1.49471e+7 
           1705      1.62626e+7 
           1715      1.90451e+7 
           1725      1.90617e+7 
           1735      2.16397e+7 
           1745      2.06315e+7 
           1755      2.33986e+7 
           1765      1.86126e+7 
           1775      2.22346e+7 
           1785      2.24851e+7 
           1795      2.51011e+7 
           1805      2.22451e+7 
           1815      2.31306e+7 
           1825      2.09458e+7 
           1835      2.16267e+7 
           1845      1.93189e+7 
           1855      2.09033e+7 
           1865      2.18333e+7 
           1875      2.20061e+7 
           1885       2.2367e+7 
           1895      2.28365e+7 
           1905      2.11347e+7 
           1915      2.31242e+7 
           1925      2.36522e+7 
           1935      2.13558e+7 
           1945      2.43493e+7 
           1955      2.41561e+7 
           1967      2.51543e+7 
           1976      2.42194e+7 
           1984      2.37498e+7 
           1995      2.33069e+7 
           2005      2.23928e+7 
           2015      2.23297e+7 
           2025      2.08217e+7 
           2035      2.29464e+7 
           2045      2.41585e+7 
           2055      2.30265e+7 
           2065      2.28208e+7 
           2074      2.47111e+7 
           2078      2.53009e+7 
           2085      2.47041e+7 
           2095       2.3862e+7 
           2105      2.29616e+7 
           2115      2.32469e+7 
           2125      2.36143e+7 
           2135      1.98943e+7 
           2145       2.2828e+7 
           2155       2.2628e+7 
           2165      2.13344e+7 
           2175       2.1239e+7 
           2185      2.20858e+7 
           2195      2.35482e+7 
           2205      2.26757e+7 
           2215      2.06493e+7 
           2225      2.09359e+7 
           2235      2.36224e+7 
           2245      2.12791e+7 
           2255      2.04989e+7 
           2265      2.01853e+7 
           2275      2.18207e+7 
           2285      2.25335e+7 
           2295       2.0794e+7 
           2305      2.13741e+7 
           2315      2.12939e+7 
           2325       2.1086e+7 
           2335      2.00166e+7 
           2345      1.77293e+7 
           2355      2.11663e+7 
           2365      1.84707e+7 
           2375      2.02149e+7 
           2385      1.68932e+7 
           2395      1.87011e+7 
           2405      1.80978e+7 
           2415      1.84521e+7 
           2425      2.03816e+7 
           2435      1.96071e+7 
           2445      2.07169e+7 
           2455      2.02147e+7 
           2465      2.02915e+7 
           2475      1.91316e+7 
           2485      1.98698e+7 
           2495      1.92491e+7 
           2505      2.17019e+7 
           2513      1.92691e+7 
           2518      1.93495e+7 
           2525      1.79755e+7 
           2535      1.72231e+7 
           2545      1.71729e+7 
           2555      1.89132e+7 
           2565      1.90443e+7 
           2575      2.06983e+7 
           2585      2.09731e+7 
           2595      2.07055e+7 
           2605      1.97763e+7 
           2615      1.93394e+7 
           2625      2.11228e+7 
           2635      2.12439e+7 
           2645      2.38761e+7 
           2655      2.38773e+7 
           2665      2.19002e+7 
           2675      2.27924e+7 
           2685      2.31397e+7 
           2695      2.16597e+7 
           2705      2.21413e+7 
           2715      2.09099e+7 
           2725      2.10986e+7 
           2735      2.26147e+7 
           2745      1.91474e+7 
           2755      1.98609e+7 
           2765      2.06646e+7 
           2775      2.21215e+7 
           2785      2.10032e+7 
           2795      1.24457e+7 
           2805      1.48608e+7 
           2815       2.2712e+7 
           2825      2.30915e+7 
           2835      2.25394e+7 
           2845      2.17459e+7 
           2855      2.04781e+7 
           2865      2.22796e+7 
           2875      2.18728e+7 
           2885      2.23868e+7 
           2895      2.17811e+7 
           2910      2.37931e+7 
           2930       2.2977e+7 
           2950      2.28748e+7 
           2970      2.32916e+7 
           2990      2.33873e+7 
           3010      2.35861e+7 
           3030       2.3549e+7 
           3050      2.34522e+7 
           3070      2.32879e+7 
           3090      2.35958e+7 
           3110      2.31773e+7 
           3130        2.322e+7 
           3150      2.35579e+7 
           3170      2.35409e+7 
           3190      2.25665e+7 
           3210      2.30313e+7 
           3230      2.24267e+7 
           3250      2.29626e+7 
           3270      2.31606e+7 
           3290      2.34719e+7 
           3310      2.36021e+7 
           3330       2.3101e+7 
           3350      2.27864e+7 
           3370      2.28259e+7 
           3390      2.27976e+7 
           3410      2.31456e+7 
           3430      2.32662e+7 
           3450      2.30415e+7 
           3470      2.28402e+7 
           3490      2.28349e+7 
           3510      2.30947e+7 
           3530      2.31097e+7 
           3550      2.32832e+7 
           3570      2.27449e+7 
           3590      2.26717e+7 
           3610      2.27253e+7 
           3630      2.27846e+7 
           3640      2.25959e+7 
           3650      2.30412e+7 
           3670      2.29021e+7 
           3690      2.19481e+7 
           3710      2.40332e+7 
           3730      2.58903e+7 
           3750      3.35969e+7 
           3770      3.58575e+7 
           3790      4.37862e+7 
           3810      5.09837e+7 
           3830      4.03493e+7 
           3850      5.62864e+7 
           3870      6.30989e+7 
           3890      3.64329e+7 
           3910      6.29973e+7 
           3930      6.04771e+7 
           3950      6.31669e+7 
           3970      3.43842e+7 
           3990      6.10667e+7 
           4010      6.89846e+7 
           4030      6.92388e+7 
           4050      6.82649e+7 
           4070      6.46709e+7 
           4090       5.0469e+7 
           4110      3.86785e+7 
           4130      6.13964e+7 
           4150      6.48025e+7 
           4170      6.45182e+7 
           4190      6.39874e+7 
           4210      6.35488e+7 
           4230       6.2204e+7 
           4250      6.18806e+7 
           4270       6.0701e+7 
           4290      5.94117e+7 
           4310      5.50003e+7 
           4330      4.24293e+7 
           4350      3.62345e+7 
           4370      5.45498e+7 
           4390      5.62003e+7 
           4410      5.59939e+7 
           4430      5.60192e+7 
           4450        5.561e+7 
           4470      5.52436e+7 
           4490      5.45582e+7 
           4510      5.44773e+7 
           4530      5.34227e+7 
           4550      5.24828e+7 
           4570      5.27694e+7 
           4590      5.19386e+7 
           4610      5.21643e+7 
           4630      5.11224e+7 
           4650      5.10181e+7 
           4670      5.05492e+7 
           4690      4.95915e+7 
           4710      4.81201e+7 
           4730      4.88371e+7 
           4750      4.83933e+7 
           4770      4.77301e+7 
           4790      4.70154e+7 
           4810      4.59837e+7 
           4830      4.37498e+7 
           4850      3.45363e+7 
           4870      2.79852e+7 
           4890      4.12964e+7 
           4910      4.34828e+7 
           4930      4.32376e+7 
           4950      4.33887e+7 
           4970      4.33086e+7 
           4990      4.26625e+7 
           5010      4.17748e+7 
           5030      4.19554e+7 
           5050      4.14111e+7 
           5070      4.12711e+7 
           5090      4.08587e+7 
           5110      4.05092e+7 
           5130      3.99764e+7 
           5150      3.94946e+7 
           5170      3.84314e+7 
           5190      3.81539e+7 
           5210      3.82724e+7 
           5230      3.76758e+7 
           5250      3.78417e+7 
           5270      3.66842e+7 
           5290      3.70643e+7 
           5310      3.65598e+7 
           5330      3.58815e+7 
           5350      3.60547e+7 
           5370      3.55815e+7 
           5390        3.527e+7 
           5410      3.47715e+7 
           5430      3.45861e+7 
           5450       3.4348e+7 
           5470      3.40683e+7 
           5490      3.37643e+7 
           5510      3.34886e+7 
           5530      3.30719e+7 
           5550      3.29232e+7 
           5570        3.255e+7 
           5590      3.21427e+7 
           5610      3.19427e+7 
           5630      3.17482e+7 
           5650       3.1433e+7 
           5670      3.11061e+7 
           5690      3.08739e+7 
           5710      3.05817e+7 
           5730      3.03755e+7 
           5750      3.00586e+7 
           5770      2.98166e+7 
           5790      2.95469e+7 
           5810      2.92948e+7 
           5830      2.90431e+7 
           5850      2.87623e+7 
           5870      2.85153e+7 
           5890      2.80179e+7 
           5910      2.80249e+7 
           5930      2.77794e+7 
           5950       2.7527e+7 
           5970      2.72995e+7 
           5990      2.70409e+7 
           6010      2.67965e+7 
           6030      2.65704e+7 
           6050      2.63487e+7 
           6070      2.61477e+7 
           6090      2.59113e+7 
           6110      2.56763e+7 
           6130      2.53887e+7 
           6150      2.50864e+7 
           6170      2.48953e+7 
           6190      2.48321e+7 
           6210      2.46206e+7 
           6230      2.43832e+7 
           6250       2.4074e+7 
           6270      2.40108e+7 
           6290      2.38107e+7 
           6310      2.35796e+7 
           6330      2.33932e+7 
           6350      2.30985e+7 
           6370      2.29425e+7 
           6390      2.28194e+7 
           6410      2.25837e+7 
           6430      2.24216e+7 
           6450      2.20627e+7 
           6470      2.19436e+7 
           6490      2.16628e+7 
           6510      2.13868e+7 
           6530      2.07214e+7 
           6550       1.8161e+7 
           6570      1.45988e+7 
           6590      1.96302e+7 
           6610      2.04169e+7 
           6630      2.05013e+7 
           6650      2.04233e+7 
           6670      2.02926e+7 
           6690      2.01723e+7 
           6710      2.00271e+7 
           6730      1.98633e+7 
           6750       1.9678e+7 
           6770      1.95644e+7 
           6790      1.94043e+7 
           6810      1.92507e+7 
           6830      1.90929e+7 
           6850      1.89439e+7 
           6870      1.88018e+7 
           6890      1.86547e+7 
           6910      1.85082e+7 
           6930      1.83615e+7 
           6950      1.82193e+7 
           6970      1.80762e+7 
           6990      1.79389e+7 
           7010      1.77624e+7 
           7030      1.76508e+7 
           7050      1.75227e+7 
           7070      1.73883e+7 
           7090      1.72566e+7 
           7110      1.70464e+7 
           7130      1.69761e+7 
           7150      1.68363e+7 
           7170      1.67154e+7 
           7190      1.65861e+7 
           7210       1.6463e+7 
           7230      1.63404e+7 
           7250      1.62073e+7 
           7270      1.61033e+7 
           7290      1.59605e+7 
           7310      1.58542e+7 
           7330      1.57293e+7 
           7350       1.5625e+7 
           7370      1.55112e+7 
           7390      1.53852e+7 
           7410      1.52453e+7 
           7430      1.51334e+7 
           7450      1.50325e+7 
           7470      1.49076e+7 
           7490      1.48032e+7 
           7510      1.47105e+7 
           7530      1.46072e+7 
           7550      1.45074e+7 
           7570      1.43934e+7 
           7590      1.42928e+7 
           7610      1.41865e+7 
           7630      1.40844e+7 
           7650      1.39742e+7 
           7670      1.38617e+7 
           7690      1.37623e+7 
           7710      1.36675e+7 
           7730      1.35786e+7 
           7750      1.34741e+7 
           7770      1.31721e+7 
           7790      1.32902e+7 
           7810      1.31901e+7 
           7830       1.3089e+7 
           7850      1.29881e+7 
           7870      1.28808e+7 
           7890      1.27751e+7 
           7910      1.27142e+7 
           7930      1.26034e+7 
           7950      1.25138e+7 
           7970      1.24576e+7 
           7990       1.2321e+7 
           8010      1.22783e+7 
           8030      1.21874e+7 
           8050      1.21043e+7 
           8070      1.20195e+7 
           8090       1.1936e+7 
           8110      1.18554e+7 
           8130      1.17749e+7 
           8150      1.16928e+7 
           8170      1.16108e+7 
           8190      1.14778e+7 
           8210      1.14314e+7 
           8230      1.13492e+7 
           8250      1.12633e+7 
           8270      1.12507e+7 
           8290      1.11762e+7 
           8310      1.10941e+7 
           8330       1.0972e+7 
           8350      1.09443e+7 
           8370      1.08561e+7 
           8390      1.07562e+7 
           8410      1.06635e+7 
           8430      1.06008e+7 
           8450      1.04499e+7 
           8470      1.02489e+7 
           8490      1.04991e+7 
           8510      9.85415e+6 
           8530      1.04723e+7 
           8550      9.25352e+6 
           8570      1.05312e+7 
           8590      9.80778e+6 
           8610      9.52799e+6 
           8630      1.05638e+7 
           8650      1.01762e+7 
           8670      8.41878e+6 
           8690      1.02937e+7 
           8710       1.0618e+7 
           8730      1.02362e+7 
           8750      8.19468e+6 
           8770      9.79038e+6 
           8790      1.04782e+7 
           8810      1.04919e+7 
           8830      1.02806e+7 
           8850      9.31115e+6 
           8870      7.91268e+6 
           8890      9.81387e+6 
           8910      1.01633e+7 
           8930      1.02066e+7 
           8950      1.02142e+7 
           8970      1.00385e+7 
           8990      9.59116e+6 
           9010       7.7629e+6 
           9030      8.50473e+6 
           9050      9.56376e+6 
           9070      9.66222e+6 
           9090      9.60607e+6 
           9110      9.70511e+6 
           9130      9.70376e+6 
           9150      9.62854e+6 
           9170       9.5055e+6 
           9190      9.27861e+6 
           9210      8.64366e+6 
           9230      6.86483e+6 
           9250      8.34452e+6 
           9270      8.88066e+6 
           9290      9.13493e+6 
           9310      9.14353e+6 
           9330      9.10784e+6 
           9350      9.06547e+6 
           9370      9.01393e+6 
