# Kurucz ODFNEW /NOVER (2003)
# teff = 36000 K (value for the effective temperature for the model. Temperatures are given in K)
# logg = 4.5 log(cm/s2) (value for Log(G) for the model.)
# meta = 0.2  (value for the Metallicity for the model.)
# lh = 1.25  (l/Hp where l is the  mixing length of the convective element and Hp is the pressure scale height)
# vtur = 2 km/s (Microturbulence velocity)
# alpha = 0.4  (Alpha)
#
# column 1: WAVELENGTH (ANGSTROM), Wavelength in Angstrom
# column 2: FLUX (ERG/CM2/S/A), Flux in erg/cm2/s/A
          147.2     0.000388433 
            151     0.000948259 
          155.2      0.00238765 
          158.8      0.00507606 
            162      0.00960384 
            166       0.0208448 
          170.3       0.0455654 
          173.4       0.0788753 
          176.8        0.142119 
          180.2        0.247162 
          181.7        0.318421 
          186.1        0.627273 
            191         1.28878 
          193.9           1.938 
          198.4         3.59726 
          201.8         5.58564 
            205         8.34892 
          210.5         16.2177 
          216.2         30.7654 
          219.8         46.2225 
            223         64.9635 
          226.8          100.96 
            230           47109 
            234          104833 
            240          148952 
          246.5          222799 
          252.4          370279 
          256.8          506063 
            260          765051 
            264      1.35701e+6 
          268.5      2.11738e+6 
          273.5      2.68402e+6 
          278.5      2.90509e+6 
            284      5.84693e+6 
            290      7.95522e+6 
            296      9.42684e+6 
            301       1.7388e+7 
            308      3.30194e+7 
            318       6.5966e+7 
            328      9.00713e+7 
            338       1.5778e+8 
            348      2.28018e+8 
            357      4.37063e+8 
            366      1.02082e+9 
            375       1.1508e+9 
            385       1.5945e+9 
            395      3.50012e+9 
            405      4.98493e+9 
            414      5.60404e+9 
            422      5.88838e+9 
            430      5.60204e+9 
            441      6.41587e+9 
            451      6.76424e+9 
            460       5.8685e+9 
            470      6.52787e+9 
            480      7.48357e+9 
            490      5.98907e+9 
            500      8.03443e+9 
            506      7.58429e+9 
            512     3.62482e+10 
            520     3.33247e+10 
            530     2.98151e+10 
            540     2.77353e+10 
            550     2.65056e+10 
            560     3.68032e+10 
            570     4.33129e+10 
            580     4.06451e+10 
            590     4.14803e+10 
            600     2.73003e+10 
            610     3.37244e+10 
            620     4.45029e+10 
            630     4.23258e+10 
            640     4.46989e+10 
            650     4.09712e+10 
            658     2.86486e+10 
            665     3.91429e+10 
            675     4.64569e+10 
            685      3.4685e+10 
            695     4.51327e+10 
            705     3.08963e+10 
            716     4.77459e+10 
            726     4.69121e+10 
            735     4.69544e+10 
            745     4.06714e+10 
            755     4.08482e+10 
            765     4.08514e+10 
            775     4.32186e+10 
            785     4.00875e+10 
            795     4.32274e+10 
            805     4.05009e+10 
            815     4.03718e+10 
            825     4.26559e+10 
            835     3.19738e+10 
            845     4.02337e+10 
            855     3.88904e+10 
            865     4.04545e+10 
            875     4.02294e+10 
            885     4.00099e+10 
            895     3.97157e+10 
            905     3.81423e+10 
            915      3.4549e+10 
            925     7.04212e+10 
            935     1.02182e+11 
            945     1.23499e+11 
            955     1.37816e+11 
            965     1.52848e+11 
            975     8.40545e+10 
            985     1.26567e+11 
            995     1.11011e+11 
           1005      1.1149e+11 
           1015     1.18337e+11 
           1025     9.97596e+10 
           1035     1.17595e+11 
           1045     1.29689e+11 
           1055     1.23607e+11 
           1065     1.08343e+11 
           1075     1.11354e+11 
           1085     1.01896e+11 
           1095     1.08297e+11 
           1105     1.03165e+11 
           1115     1.01259e+11 
           1125     8.33902e+10 
           1135     9.65815e+10 
           1145     9.41978e+10 
           1155     8.60757e+10 
           1165      8.4435e+10 
           1175     6.19903e+10 
           1185     7.75901e+10 
           1195     7.36087e+10 
           1205     7.15696e+10 
           1215     5.85705e+10 
           1225     6.84082e+10 
           1235     7.18644e+10 
           1245     6.95358e+10 
           1255     6.92549e+10 
           1265     7.03114e+10 
           1275      7.2288e+10 
           1285     7.18244e+10 
           1295     6.81675e+10 
           1305     6.69719e+10 
           1315     6.94495e+10 
           1325     6.73387e+10 
           1335     6.53359e+10 
           1345     6.43867e+10 
           1355     6.26786e+10 
           1365     6.02169e+10 
           1375     5.80231e+10 
           1385     5.64989e+10 
           1395     4.60645e+10 
           1405      4.6102e+10 
           1415     5.45011e+10 
           1425     4.87186e+10 
           1435     5.17631e+10 
           1442     5.04012e+10 
           1447     5.02963e+10 
           1455     4.78336e+10 
           1465     4.70213e+10 
           1475     4.70993e+10 
           1485      4.7118e+10 
           1495     4.55441e+10 
           1505     4.46631e+10 
           1512     4.43066e+10 
           1517      4.4218e+10 
           1525     4.26537e+10 
           1535     3.78036e+10 
           1545     3.09114e+10 
           1555     3.14842e+10 
           1565     3.53315e+10 
           1575     3.67674e+10 
           1585     3.62914e+10 
           1595     3.65205e+10 
           1605     3.43382e+10 
           1615     3.28411e+10 
           1625     3.34268e+10 
           1635     3.33574e+10 
           1645     3.29712e+10 
           1655     3.32878e+10 
           1665     3.22491e+10 
           1672     3.00674e+10 
           1677      3.4609e+10 
           1685     3.31705e+10 
           1695     3.21548e+10 
           1705     3.15986e+10 
           1715     3.01822e+10 
           1725     2.90382e+10 
           1735     2.99772e+10 
           1745      2.9736e+10 
           1755     2.90838e+10 
           1765     2.85399e+10 
           1775     2.76261e+10 
           1785     2.79488e+10 
           1795     2.71063e+10 
           1805     2.68993e+10 
           1815     2.63578e+10 
           1825     2.57463e+10 
           1835      2.5707e+10 
           1845     2.49211e+10 
           1855     2.49575e+10 
           1865     2.48064e+10 
           1875     2.39649e+10 
           1885     2.32491e+10 
           1895     2.31544e+10 
           1905     2.32607e+10 
           1915     2.26887e+10 
           1925     2.13708e+10 
           1935     2.23106e+10 
           1945      2.2271e+10 
           1955     2.06254e+10 
           1967     2.11953e+10 
           1976      2.1241e+10 
           1984     2.08441e+10 
           1995     2.02912e+10 
           2005     2.05101e+10 
           2015     2.02745e+10 
           2025     2.00187e+10 
           2035     1.94713e+10 
           2045     1.90994e+10 
           2055     1.47265e+10 
           2065     1.40948e+10 
           2074     1.45403e+10 
           2078     1.46257e+10 
           2085     1.56057e+10 
           2095     1.68922e+10 
           2105     1.73349e+10 
           2115     1.74661e+10 
           2125     1.69551e+10 
           2135     1.69173e+10 
           2145     1.66518e+10 
           2155     1.65771e+10 
           2165     1.56552e+10 
           2175     1.61622e+10 
           2185     1.55127e+10 
           2195     1.58862e+10 
           2205     1.56185e+10 
           2215     1.48496e+10 
           2225     1.51304e+10 
           2235     1.49192e+10 
           2245      1.4646e+10 
           2255     1.40586e+10 
           2265     1.42461e+10 
           2275     1.41189e+10 
           2285     1.36161e+10 
           2295      1.2693e+10 
           2305         1.3e+10 
           2315     1.30012e+10 
           2325     1.29948e+10 
           2335     1.28354e+10 
           2345     1.26069e+10 
           2355     1.23337e+10 
           2365      1.2111e+10 
           2375     1.18216e+10 
           2385     1.12206e+10 
           2395     1.13898e+10 
           2405     1.13943e+10 
           2415     1.12084e+10 
           2425     1.11623e+10 
           2435     1.09584e+10 
           2445     1.08292e+10 
           2455     1.06461e+10 
           2465     1.05389e+10 
           2475     1.04096e+10 
           2485     1.00197e+10 
           2495      7.34211e+9 
           2505      9.50315e+9 
           2513      9.21247e+9 
           2518      9.40587e+9 
           2525      9.66696e+9 
           2535      9.61605e+9 
           2545      9.42838e+9 
           2555      9.32125e+9 
           2565        9.184e+9 
           2575      9.10202e+9 
           2585      8.99114e+9 
           2595       8.7575e+9 
           2605      8.76201e+9 
           2615       8.5607e+9 
           2625      8.52622e+9 
           2635      8.44209e+9 
           2645      8.28468e+9 
           2655      8.21651e+9 
           2665        8.051e+9 
           2675      7.81454e+9 
           2685      7.85051e+9 
           2695      7.72752e+9 
           2705      7.68748e+9 
           2715      7.56042e+9 
           2725      7.45582e+9 
           2735      7.22261e+9 
           2745      7.32608e+9 
           2755      7.20598e+9 
           2765      7.10813e+9 
           2775      7.05552e+9 
           2785      6.90586e+9 
           2795      6.69691e+9 
           2805       6.7474e+9 
           2815      6.69622e+9 
           2825      6.60452e+9 
           2835      6.50786e+9 
           2845      6.47894e+9 
           2855      6.37725e+9 
           2865      6.26672e+9 
           2875      6.19403e+9 
           2885      6.13713e+9 
           2895      6.05166e+9 
           2910      5.90045e+9 
           2930      5.82018e+9 
           2950       5.6688e+9 
           2970      5.52608e+9 
           2990      5.35127e+9 
           3010      5.19349e+9 
           3030      5.04062e+9 
           3050      4.98729e+9 
           3070      4.88774e+9 
           3090      4.76312e+9 
           3110      4.69622e+9 
           3130      4.56448e+9 
           3150      4.49304e+9 
           3170      4.38291e+9 
           3190      4.29777e+9 
           3210      4.14567e+9 
           3230      4.10062e+9 
           3250      4.03212e+9 
           3270      3.89381e+9 
           3290         3.84e+9 
           3310      3.75007e+9 
           3330      3.66031e+9 
           3350      3.55866e+9 
           3370       3.4993e+9 
           3390      3.44994e+9 
           3410      3.37395e+9 
           3430      3.32383e+9 
           3450      3.22147e+9 
           3470      3.17912e+9 
           3490       3.1199e+9 
           3510      3.05907e+9 
           3530      2.99856e+9 
           3550      2.93465e+9 
           3570      2.87954e+9 
           3590      2.81747e+9 
           3610      2.75864e+9 
           3630        2.703e+9 
           3640       2.6526e+9 
           3650      2.46598e+9 
           3670      2.42511e+9 
           3690      2.37836e+9 
           3710      2.30744e+9 
           3730      2.29467e+9 
           3750      2.29443e+9 
           3770      2.26265e+9 
           3790      2.32265e+9 
           3810      2.35309e+9 
           3830      2.17107e+9 
           3850      2.32585e+9 
           3870      2.25508e+9 
           3890      2.03428e+9 
           3910      2.25031e+9 
           3930      2.18334e+9 
           3950      2.12306e+9 
           3970      1.86774e+9 
           3990      2.08395e+9 
           4010      2.04485e+9 
           4030      1.97013e+9 
           4050      1.98341e+9 
           4070      1.90335e+9 
           4090      1.80405e+9 
           4110      1.67997e+9 
           4130      1.81554e+9 
           4150      1.79251e+9 
           4170      1.78259e+9 
           4190      1.74255e+9 
           4210      1.69986e+9 
           4230      1.69313e+9 
           4250       1.6476e+9 
           4270       1.6166e+9 
           4290      1.58304e+9 
           4310      1.54345e+9 
           4330      1.46608e+9 
           4350      1.37635e+9 
           4370      1.47775e+9 
           4390      1.44402e+9 
           4410      1.42422e+9 
           4430      1.41401e+9 
           4450      1.38725e+9 
           4470      1.34745e+9 
           4490       1.3466e+9 
           4510      1.31432e+9 
           4530      1.30047e+9 
           4550      1.26424e+9 
           4570      1.26391e+9 
           4590      1.23781e+9 
           4610      1.21632e+9 
           4630       1.1888e+9 
           4650      1.13042e+9 
           4670      1.15355e+9 
           4690      1.11951e+9 
           4710      1.11604e+9 
           4730      1.12137e+9 
           4750      1.10235e+9 
           4770      1.08782e+9 
           4790      1.07063e+9 
           4810      1.05171e+9 
           4830      1.03194e+9 
           4850      9.86023e+8 
           4870      9.06794e+8 
           4890      9.82798e+8 
           4910      9.70088e+8 
           4930      9.46981e+8 
           4950      9.38852e+8 
           4970      9.32211e+8 
           4990      9.18384e+8 
           5010      8.91239e+8 
           5030      8.85253e+8 
           5050      8.73099e+8 
           5070        8.647e+8 
           5090      8.51491e+8 
           5110      8.38808e+8 
           5130      8.26225e+8 
           5150      8.14196e+8 
           5170      8.01256e+8 
           5190      7.90673e+8 
           5210      7.79715e+8 
           5230      7.68915e+8 
           5250      7.55523e+8 
           5270      7.43831e+8 
           5290      7.36521e+8 
           5310      7.25652e+8 
           5330      7.15535e+8 
           5350      7.05786e+8 
           5370      6.95692e+8 
           5390      6.85468e+8 
           5410      6.65826e+8 
           5430      6.67101e+8 
           5450      6.57813e+8 
           5470      6.48504e+8 
           5490      6.39725e+8 
           5510      6.30139e+8 
           5530      6.22312e+8 
           5550      6.14141e+8 
           5570      6.05343e+8 
           5590      5.94907e+8 
           5610      5.89607e+8 
           5630      5.81694e+8 
           5650      5.73759e+8 
           5670      5.65641e+8 
           5690      5.49849e+8 
           5710      5.27436e+8 
           5730      5.20949e+8 
           5750      5.13651e+8 
           5770       5.0798e+8 
           5790      5.01432e+8 
           5810      4.93544e+8 
           5830      4.88401e+8 
           5850      4.84715e+8 
           5870       4.7196e+8 
           5890      4.74765e+8 
           5910      4.70835e+8 
           5930      4.66764e+8 
           5950      4.62993e+8 
           5970      4.59822e+8 
           5990      4.56001e+8 
           6010      4.51918e+8 
           6030      4.46531e+8 
           6050      4.41968e+8 
           6070      4.36637e+8 
           6090      4.31489e+8 
           6110      4.25651e+8 
           6130      4.20502e+8 
           6150      4.14893e+8 
           6170      4.09447e+8 
           6190      4.05487e+8 
           6210       4.0076e+8 
           6230      3.94959e+8 
           6250      3.90429e+8 
           6270       3.8616e+8 
           6290      3.81489e+8 
           6310       3.7547e+8 
           6330      3.72368e+8 
           6350      3.67578e+8 
           6370      3.63602e+8 
           6390      3.59254e+8 
           6410      3.53751e+8 
           6430      3.50834e+8 
           6450      3.46353e+8 
           6470      3.41875e+8 
           6490      3.37848e+8 
           6510      3.32967e+8 
           6530      3.27855e+8 
           6550       3.2007e+8 
           6570      2.92028e+8 
           6590      3.17367e+8 
           6610      3.15277e+8 
           6630      3.11921e+8 
           6650      3.08131e+8 
           6670      3.01484e+8 
           6690      2.97033e+8 
           6710      2.96804e+8 
           6730      2.93404e+8 
           6750      2.90602e+8 
           6770      2.87802e+8 
           6790      2.84467e+8 
           6810      2.81507e+8 
           6830      2.78278e+8 
           6850      2.75121e+8 
           6870       2.7191e+8 
           6890      2.66699e+8 
           6910      2.65252e+8 
           6930      2.63291e+8 
           6950      2.60367e+8 
           6970      2.57525e+8 
           6990      2.54635e+8 
           7010      2.51421e+8 
           7030      2.48468e+8 
           7050       2.4587e+8 
           7070      2.40825e+8 
           7090      2.41125e+8 
           7110      2.38369e+8 
           7130      2.35863e+8 
           7150      2.33469e+8 
           7170      2.29714e+8 
           7190      2.27804e+8 
           7210      2.26078e+8 
           7230      2.23027e+8 
           7250      2.21074e+8 
           7270      2.18976e+8 
           7290      2.15543e+8 
           7310      2.14161e+8 
           7330      2.12131e+8 
           7350      2.09904e+8 
           7370      2.07643e+8 
           7390      2.05596e+8 
           7410      2.03349e+8 
           7430      2.01362e+8 
           7450      1.99033e+8 
           7470      1.96909e+8 
           7490      1.94455e+8 
           7510      1.93053e+8 
           7530      1.91112e+8 
           7550      1.89249e+8 
           7570       1.8729e+8 
           7590      1.83604e+8 
           7610      1.83108e+8 
           7630      1.81548e+8 
           7650      1.79686e+8 
           7670      1.78077e+8 
           7690      1.75604e+8 
           7710      1.74251e+8 
           7730      1.71938e+8 
           7750      1.70951e+8 
           7770      1.69411e+8 
           7790      1.67698e+8 
           7810      1.66062e+8 
           7830      1.64434e+8 
           7850      1.62521e+8 
           7870      1.60851e+8 
           7890      1.59413e+8 
           7910      1.58114e+8 
           7930      1.56587e+8 
           7950      1.55144e+8 
           7970      1.53406e+8 
           7990      1.52084e+8 
           8010      1.50639e+8 
           8030      1.49089e+8 
           8050      1.47802e+8 
           8070      1.46382e+8 
           8090      1.44923e+8 
           8110      1.43138e+8 
           8130      1.42252e+8 
           8150      1.40812e+8 
           8170       1.3944e+8 
           8190      1.37609e+8 
           8210      1.33787e+8 
           8230      1.31891e+8 
           8250      1.31297e+8 
           8270      1.29809e+8 
           8290       1.2903e+8 
           8310      1.27978e+8 
           8330      1.26431e+8 
           8350      1.25096e+8 
           8370      1.24279e+8 
           8390      1.23403e+8 
           8410      1.22237e+8 
           8430      1.21233e+8 
           8450      1.19874e+8 
           8470      1.19125e+8 
           8490      1.18041e+8 
           8510      1.16624e+8 
           8530      1.16067e+8 
           8550      1.14865e+8 
           8570      1.14417e+8 
