# Kurucz ODFNEW /NOVER (2003)
# teff = 24000 K (value for the effective temperature for the model. Temperatures are given in K)
# logg = 3.5 log(cm/s2) (value for Log(G) for the model.)
# meta = 0.5  (value for the Metallicity for the model.)
# lh = 1.25  (l/Hp where l is the  mixing length of the convective element and Hp is the pressure scale height)
# vtur = 2 km/s (Microturbulence velocity)
# alpha = 0  (Alpha)
#
# column 1: WAVELENGTH (ANGSTROM), Wavelength in Angstrom
# column 2: FLUX (ERG/CM2/S/A), Flux in erg/cm2/s/A
          147.2     1.17707e-15 
            151     5.31512e-15 
          155.2     2.59598e-14 
          158.8     9.50136e-14 
            162     2.88045e-13 
            166     1.08963e-12 
          170.3     4.24998e-12 
          173.4     1.09706e-11 
          176.8     2.98436e-11 
          180.2      7.8455e-11 
          181.7     1.18708e-10 
          186.1      3.8705e-10 
            191      1.36106e-9 
          193.9       2.7836e-9 
          198.4      8.12595e-9 
          201.8      1.77193e-8 
            205      3.60853e-8 
          210.5      1.16963e-7 
          216.2      3.72543e-7 
          219.8      7.51875e-7 
            223      1.37839e-6 
          226.8      2.77833e-6 
            230     0.000103654 
            234     0.000242855 
            240     0.000601492 
          246.5      0.00154518 
          252.4      0.00352308 
          256.8      0.00609714 
            260       0.0103757 
            264       0.0170554 
          268.5        0.029538 
          273.5       0.0529168 
          278.5       0.0929022 
            284        0.184063 
            290        0.340181 
            296        0.618179 
            301        0.987386 
            308         2.00318 
            318         5.02559 
            328         11.0343 
            338         24.7326 
            348         51.0201 
            357         318.087 
            366         694.366 
            375         1062.16 
            385         1826.68 
            395         3786.49 
            405         5874.71 
            414         9000.61 
            422         13882.5 
            430         20753.7 
            441         32068.7 
            451           43607 
            460         58558.6 
            470         85812.1 
            480          119926 
            490          166053 
            500          218684 
            506          969780 
            512       1.4287e+7 
            520      1.57923e+7 
            530      1.74363e+7 
            540      1.83662e+7 
            550      3.07224e+7 
            560      3.76177e+7 
            570      4.47124e+7 
            580      4.14414e+7 
            590       5.6635e+7 
            600      6.21719e+7 
            610      7.57519e+7 
            620      8.39811e+7 
            630      8.61086e+7 
            640      7.25066e+7 
            650      4.50961e+7 
            658      7.96079e+7 
            665      1.07007e+8 
            675      1.15543e+8 
            685      1.10765e+8 
            695      1.65292e+8 
            705      1.60674e+8 
            716      1.87727e+8 
            726      1.87666e+8 
            735      1.98258e+8 
            745      2.31166e+8 
            755      2.45663e+8 
            765      2.62592e+8 
            775      2.81638e+8 
            785      3.02521e+8 
            795      3.10277e+8 
            805      3.17644e+8 
            815      3.23333e+8 
            825      3.60254e+8 
            835      2.75221e+8 
            845      3.57585e+8 
            855      3.56613e+8 
            865      3.83635e+8 
            875      4.11067e+8 
            885      4.49468e+8 
            895       4.7006e+8 
            905      4.48428e+8 
            915      7.38272e+8 
            925      6.33015e+9 
            935     1.19406e+10 
            945     1.72569e+10 
            955     1.99901e+10 
            965     1.84605e+10 
            975      2.82793e+9 
            985     1.07642e+10 
            995     1.44889e+10 
           1005     1.96245e+10 
           1015     2.09142e+10 
           1025     1.52259e+10 
           1035     1.58467e+10 
           1045     2.60151e+10 
           1055     2.33912e+10 
           1065      1.7533e+10 
           1075     2.11891e+10 
           1085     1.85909e+10 
           1095     2.16089e+10 
           1105     1.89944e+10 
           1115     1.74767e+10 
           1125     1.24631e+10 
           1135     1.94429e+10 
           1145     1.79924e+10 
           1155     1.82033e+10 
           1165     1.75002e+10 
           1175      7.94594e+9 
           1185     1.62271e+10 
           1195     1.52446e+10 
           1205      8.41685e+9 
           1215     1.06389e+10 
           1225     1.51688e+10 
           1235     1.75802e+10 
           1245     1.64582e+10 
           1255      1.6383e+10 
           1265     1.70357e+10 
           1275     1.78186e+10 
           1285     1.78697e+10 
           1295     1.07949e+10 
           1305      1.2383e+10 
           1315     1.74861e+10 
           1325     1.61251e+10 
           1335     1.53607e+10 
           1345     1.61008e+10 
           1355     1.56228e+10 
           1365     1.38989e+10 
           1375      1.3286e+10 
           1385     1.23444e+10 
           1395      7.16938e+9 
           1405      8.45073e+9 
           1415      1.0682e+10 
           1425      1.0775e+10 
           1435     1.14664e+10 
           1442     1.17813e+10 
           1447     1.15618e+10 
           1455     1.10263e+10 
           1465        9.772e+9 
           1475     1.04517e+10 
           1485     1.03839e+10 
           1495     1.00806e+10 
           1505      8.82785e+9 
           1512      7.72115e+9 
           1517      8.08221e+9 
           1525      8.45785e+9 
           1535      6.76865e+9 
           1545       6.2978e+9 
           1555      6.28935e+9 
           1565      7.08352e+9 
           1575       7.7204e+9 
           1585      7.98424e+9 
           1595      7.71814e+9 
           1605       8.0863e+9 
           1615      7.90688e+9 
           1625      7.71727e+9 
           1635       8.4831e+9 
           1645      8.55959e+9 
           1655      8.39663e+9 
           1665      8.68188e+9 
           1672      8.03971e+9 
           1677       9.2959e+9 
           1685      8.91978e+9 
           1695      8.24339e+9 
           1705      8.17536e+9 
           1715      7.49674e+9 
           1725      7.44147e+9 
           1735      7.91285e+9 
           1745      7.69054e+9 
           1755      7.76998e+9 
           1765      7.77349e+9 
           1775      7.04667e+9 
           1785      7.34523e+9 
           1795      7.67928e+9 
           1805      7.83714e+9 
           1815      6.64092e+9 
           1825      7.07259e+9 
           1835      6.86134e+9 
           1845      6.12568e+9 
           1855       6.2721e+9 
           1865      6.35828e+9 
           1875      6.83211e+9 
           1885      5.89677e+9 
           1895      5.44696e+9 
           1905      6.15729e+9 
           1915      5.55537e+9 
           1925      5.22076e+9 
           1935      5.76591e+9 
           1945      5.87407e+9 
           1955      5.13638e+9 
           1967      5.83474e+9 
           1976      6.07165e+9 
           1984      5.63076e+9 
           1995      5.50959e+9 
           2005      5.93907e+9 
           2015      5.80465e+9 
           2025       6.0013e+9 
           2035      5.34042e+9 
           2045      5.57371e+9 
           2055       5.2335e+9 
           2065      5.13938e+9 
           2074      5.60066e+9 
           2078      4.82585e+9 
           2085      5.33928e+9 
           2095      5.01831e+9 
           2105       5.2451e+9 
           2115      5.33231e+9 
           2125      5.34456e+9 
           2135      5.27065e+9 
           2145      4.92767e+9 
           2155      5.22762e+9 
           2165      5.25145e+9 
           2175      5.21411e+9 
           2185      4.92826e+9 
           2195      5.09387e+9 
           2205      5.12201e+9 
           2215      4.99877e+9 
           2225      4.85128e+9 
           2235      4.77478e+9 
           2245      4.85336e+9 
           2255      4.64846e+9 
           2265      4.76795e+9 
           2275      4.68311e+9 
           2285      4.70729e+9 
           2295      3.99916e+9 
           2305      4.50627e+9 
           2315      4.33976e+9 
           2325      4.31088e+9 
           2335      4.13964e+9 
           2345      4.21018e+9 
           2355      4.19787e+9 
           2365      4.16878e+9 
           2375      4.06836e+9 
           2385      4.03789e+9 
           2395      3.99551e+9 
           2405      3.90907e+9 
           2415       3.9039e+9 
           2425      3.89598e+9 
           2435      3.75807e+9 
           2445       3.8061e+9 
           2455      3.82772e+9 
           2465      3.73076e+9 
           2475      3.65602e+9 
           2485      3.52496e+9 
           2495      2.67649e+9 
           2505      3.35771e+9 
           2513      3.27791e+9 
           2518      3.45326e+9 
           2525      3.41062e+9 
           2535      3.37942e+9 
           2545      3.21571e+9 
           2555      3.30849e+9 
           2565      3.25245e+9 
           2575      3.29354e+9 
           2585      3.22746e+9 
           2595      3.20415e+9 
           2605      3.18237e+9 
           2615       3.1183e+9 
           2625       3.1099e+9 
           2635      3.09046e+9 
           2645      3.05163e+9 
           2655      3.05466e+9 
           2665      2.86389e+9 
           2675      2.91417e+9 
           2685      2.90776e+9 
           2695       2.7788e+9 
           2705      2.67226e+9 
           2715      2.70827e+9 
           2725      2.74845e+9 
           2735      2.72269e+9 
           2745        2.646e+9 
           2755      2.63913e+9 
           2765      2.62067e+9 
           2775      2.65959e+9 
           2785      2.60633e+9 
           2795      2.49855e+9 
           2805      2.53276e+9 
           2815      2.54623e+9 
           2825      2.52446e+9 
           2835      2.39601e+9 
           2845      2.43063e+9 
           2855      2.37716e+9 
           2865      2.39947e+9 
           2875      2.37383e+9 
           2885      2.34523e+9 
           2895      2.29291e+9 
           2910      2.25007e+9 
           2930      2.24153e+9 
           2950      2.16726e+9 
           2970      2.13706e+9 
           2990       2.0904e+9 
           3010      1.98949e+9 
           3030      2.00468e+9 
           3050      1.98034e+9 
           3070      1.95793e+9 
           3090      1.86019e+9 
           3110      1.87058e+9 
           3130      1.81849e+9 
           3150      1.79653e+9 
           3170      1.74034e+9 
           3190      1.71637e+9 
           3210      1.69117e+9 
           3230      1.64523e+9 
           3250      1.62836e+9 
           3270      1.58567e+9 
           3290       1.5558e+9 
           3310      1.52695e+9 
           3330      1.49124e+9 
           3350      1.46952e+9 
           3370        1.437e+9 
           3390      1.42033e+9 
           3410      1.39452e+9 
           3430       1.3654e+9 
           3450      1.33581e+9 
           3470      1.31182e+9 
           3490      1.28412e+9 
           3510      1.26188e+9 
           3530      1.25016e+9 
           3550      1.22556e+9 
           3570      1.20608e+9 
           3590      1.16695e+9 
           3610       1.1464e+9 
           3630      1.13511e+9 
           3640      1.13372e+9 
           3650      1.11397e+9 
           3670      1.10284e+9 
           3690      1.07446e+9 
           3710      1.03726e+9 
           3730      1.01043e+9 
           3750      1.07392e+9 
           3770      1.06269e+9 
           3790      1.09212e+9 
           3810      1.12491e+9 
           3830      1.00422e+9 
           3850      1.11266e+9 
           3870      1.08062e+9 
           3890      9.57253e+8 
           3910      1.08573e+9 
           3930       1.0419e+9 
           3950      1.03094e+9 
           3970      8.86244e+8 
           3990      1.00218e+9 
           4010      9.92165e+8 
           4030      9.47478e+8 
           4050      9.51855e+8 
           4070      9.01905e+8 
           4090      8.62275e+8 
           4110         7.94e+8 
           4130      8.66989e+8 
           4150      8.60883e+8 
           4170      8.59015e+8 
           4190      8.51821e+8 
           4210       8.4515e+8 
           4230      8.24502e+8 
           4250      7.98281e+8 
           4270      7.76481e+8 
           4290      7.64488e+8 
           4310      7.36257e+8 
           4330      6.97322e+8 
           4350      6.53655e+8 
           4370      7.01856e+8 
           4390      7.11251e+8 
           4410      7.00068e+8 
           4430      6.94952e+8 
           4450       6.8383e+8 
           4470      6.63319e+8 
           4490       6.6643e+8 
           4510       6.6007e+8 
           4530      6.50252e+8 
           4550      6.43201e+8 
           4570      6.31595e+8 
           4590      6.20864e+8 
           4610      6.02637e+8 
           4630      5.94682e+8 
           4650      5.72538e+8 
           4670      5.78251e+8 
           4690      5.75608e+8 
           4710      5.51982e+8 
           4730      5.54817e+8 
           4750      5.45796e+8 
           4770      5.49044e+8 
           4790      5.37934e+8 
           4810      5.25882e+8 
           4830      5.17838e+8 
           4850      4.97736e+8 
           4870      4.51197e+8 
           4890      4.97331e+8 
           4910      4.91475e+8 
           4930      4.76676e+8 
           4950      4.74292e+8 
           4970       4.7335e+8 
           4990      4.64601e+8 
           5010      4.41687e+8 
           5030      4.49632e+8 
           5050      4.39371e+8 
           5070      4.38828e+8 
           5090      4.31126e+8 
           5110       4.2304e+8 
           5130      4.11345e+8 
           5150      4.09321e+8 
           5170      4.07414e+8 
           5190      4.02658e+8 
           5210      3.95326e+8 
           5230      3.90545e+8 
           5250      3.85867e+8 
           5270      3.78698e+8 
           5290      3.75651e+8 
           5310      3.69767e+8 
           5330      3.65379e+8 
           5350      3.59823e+8 
           5370      3.56102e+8 
           5390      3.50767e+8 
           5410       3.4702e+8 
           5430      3.41492e+8 
           5450      3.36758e+8 
           5470       3.3231e+8 
           5490      3.27931e+8 
           5510      3.25108e+8 
           5530      3.19114e+8 
           5550      3.16965e+8 
           5570       3.1224e+8 
           5590      3.08877e+8 
           5610      3.04452e+8 
           5630      3.01116e+8 
           5650       2.9468e+8 
           5670      2.89113e+8 
           5690      2.84303e+8 
           5710      2.83736e+8 
           5730      2.80876e+8 
           5750      2.75985e+8 
           5770      2.74992e+8 
           5790      2.70893e+8 
           5810      2.67725e+8 
           5830      2.63265e+8 
           5850      2.60752e+8 
           5870      2.51729e+8 
           5890      2.51326e+8 
           5910      2.49714e+8 
           5930      2.45997e+8 
           5950      2.42686e+8 
           5970      2.42902e+8 
           5990      2.37429e+8 
           6010      2.36342e+8 
           6030      2.32363e+8 
           6050      2.29913e+8 
           6070      2.28145e+8 
           6090      2.25541e+8 
           6110      2.22786e+8 
           6130      2.20502e+8 
           6150      2.15913e+8 
           6170      2.13931e+8 
           6190      2.12276e+8 
           6210      2.10305e+8 
           6230      2.08103e+8 
           6250      2.04584e+8 
           6270      2.02601e+8 
           6290      2.00676e+8 
           6310      1.97958e+8 
           6330      1.96268e+8 
           6350      1.92968e+8 
           6370      1.91591e+8 
           6390      1.89324e+8 
           6410      1.87282e+8 
           6430      1.85463e+8 
           6450      1.83192e+8 
           6470      1.80153e+8 
           6490      1.78222e+8 
           6510      1.76764e+8 
           6530      1.74225e+8 
           6550      1.69878e+8 
           6570      1.51757e+8 
           6590      1.66842e+8 
           6610      1.66826e+8 
           6630      1.65375e+8 
           6650      1.63428e+8 
           6670      1.60595e+8 
           6690      1.58946e+8 
           6710      1.58435e+8 
           6730       1.5598e+8 
           6750      1.55115e+8 
           6770       1.5346e+8 
           6790      1.49706e+8 
           6810      1.49648e+8 
           6830      1.48046e+8 
           6850       1.4683e+8 
           6870      1.45234e+8 
           6890      1.43392e+8 
           6910      1.41569e+8 
           6930      1.40651e+8 
           6950      1.39234e+8 
           6970      1.37801e+8 
           6990      1.36258e+8 
           7010      1.34799e+8 
           7030      1.33332e+8 
           7050      1.31978e+8 
           7070      1.28504e+8 
           7090      1.29144e+8 
           7110      1.25556e+8 
           7130      1.24527e+8 
           7150      1.25113e+8 
           7170      1.24035e+8 
           7190      1.22829e+8 
           7210      1.21554e+8 
           7230      1.17906e+8 
           7250      1.18697e+8 
           7270      1.17817e+8 
           7290      1.15718e+8 
           7310      1.15417e+8 
           7330      1.14136e+8 
           7350      1.13146e+8 
           7370      1.12047e+8 
           7390      1.10917e+8 
           7410      1.09812e+8 
           7430      1.08621e+8 
           7450      1.07584e+8 
           7470      1.05665e+8 
           7490      1.05323e+8 
           7510      1.04328e+8 
           7530      1.03157e+8 
           7550      1.02387e+8 
           7570      1.01406e+8 
           7590      1.00362e+8 
           7610      9.91782e+7 
           7630      9.83807e+7 
           7650      9.74549e+7 
           7670      9.65439e+7 
           7690      9.55965e+7 
           7710      9.46131e+7 
           7730       9.3645e+7 
           7750      9.28926e+7 
           7770      9.13542e+7 
           7790      9.11341e+7 
           7810      9.02108e+7 
           7830      8.94126e+7 
           7850       8.8493e+7 
           7870       8.7472e+7 
           7890      8.63574e+7 
           7910      8.58189e+7 
           7930      8.49372e+7 
           7950      8.41111e+7 
           7970      8.34285e+7 
           7990      8.25393e+7 
           8010      8.18516e+7 
           8030      8.11114e+7 
           8050      8.04879e+7 
           8070      7.97829e+7 
           8090      7.89629e+7 
           8110      7.77148e+7 
           8130      7.76407e+7 
           8150      7.68461e+7 
           8170      7.62953e+7 
           8190      7.50414e+7 
           8210      7.43632e+7 
           8230      7.33737e+7 
           8250      7.34114e+7 
           8270      7.18008e+7 
           8290      7.19482e+7 
           8310      7.13895e+7 
           8330      7.08191e+7 
           8350      6.98427e+7 
           8370       6.9278e+7 
           8390      6.88679e+7 
           8410      6.81306e+7 
           8430      6.75426e+7 
           8450      6.63052e+7 
           8470      6.61027e+7 
           8490      6.57708e+7 
           8510      6.45152e+7 
           8530      6.48861e+7 
           8550      6.26195e+7 
           8570      6.45229e+7 
