# Kurucz ODFNEW /NOVER (2003)
# teff = 29000 K (value for the effective temperature for the model. Temperatures are given in K)
# logg = 4.5 log(cm/s2) (value for Log(G) for the model.)
# meta = 0.2  (value for the Metallicity for the model.)
# lh = 1.25  (l/Hp where l is the  mixing length of the convective element and Hp is the pressure scale height)
# vtur = 2 km/s (Microturbulence velocity)
# alpha = 0  (Alpha)
#
# column 1: WAVELENGTH (ANGSTROM), Wavelength in Angstrom
# column 2: FLUX (ERG/CM2/S/A), Flux in erg/cm2/s/A
          147.2     5.84867e-10 
            151      1.92917e-9 
          155.2      6.76945e-9 
          158.8      1.89041e-8 
            162       4.5482e-8 
            166       1.3036e-7 
          170.3      3.83444e-7 
          173.4       8.1227e-7 
          176.8      1.79252e-6 
          180.2      3.84606e-6 
          181.7      5.33824e-6 
          186.1      1.35993e-5 
            191      3.67549e-5 
          193.9      6.47151e-5 
          198.4     0.000150921 
          201.8     0.000279407 
            205     0.000489986 
          210.5       0.0012402 
          216.2      0.00309258 
          219.8      0.00538144 
            223      0.00867791 
          226.8       0.0152652 
            230          1.6047 
            234         3.44578 
            240         6.66929 
          246.5         13.5291 
          252.4         25.0576 
          256.8          37.101 
            260         58.5937 
            264         86.3122 
          268.5         133.291 
          273.5         205.916 
          278.5         307.534 
            284         567.458 
            290         897.073 
            296         1379.54 
            301         1939.51 
            308         3417.51 
            318         7232.16 
            328         12666.1 
            338           23435 
            348         40278.5 
            357          157935 
            366          325894 
            375          441788 
            385          689436 
            395      1.37378e+6 
            405      1.85364e+6 
            414      2.64552e+6 
            422      3.29589e+6 
            430      4.36692e+6 
            441      5.93102e+6 
            451      7.30729e+6 
            460      8.79724e+6 
            470      1.15267e+7 
            480       1.4578e+7 
            490      1.82136e+7 
            500      2.22692e+7 
            506      6.73942e+7 
            512      4.98835e+8 
            520      4.94248e+8 
            530      4.97393e+8 
            540       4.8086e+8 
            550      6.60553e+8 
            560       7.7328e+8 
            570      8.34417e+8 
            580      7.70828e+8 
            590       9.0928e+8 
            600      8.78763e+8 
            610      1.02044e+9 
            620      1.13146e+9 
            630      1.12857e+9 
            640      1.02984e+9 
            650      9.70669e+8 
            658       1.0846e+9 
            665      1.25271e+9 
            675       1.3208e+9 
            685       1.2178e+9 
            695      1.63498e+9 
            705      1.51018e+9 
            716      1.79048e+9 
            726      1.77488e+9 
            735      1.80092e+9 
            745       1.9625e+9 
            755      2.00623e+9 
            765      2.09677e+9 
            775      2.18947e+9 
            785      2.30271e+9 
            795      2.32198e+9 
            805      2.32034e+9 
            815       2.3233e+9 
            825      2.49337e+9 
            835      2.08134e+9 
            845      2.44396e+9 
            855      2.43325e+9 
            865      2.55072e+9 
            875       2.6476e+9 
            885      2.79008e+9 
            895      2.86023e+9 
            905      2.79493e+9 
            915      3.20939e+9 
            925     1.44052e+10 
            935     2.90412e+10 
            945     4.96737e+10 
            955     5.81477e+10 
            965     6.92594e+10 
            975     1.56973e+10 
            985     5.55256e+10 
            995      5.1858e+10 
           1005     5.80708e+10 
           1015     6.02928e+10 
           1025     3.59975e+10 
           1035     5.24145e+10 
           1045     7.00797e+10 
           1055     6.46044e+10 
           1065     5.21271e+10 
           1075     5.77894e+10 
           1085     5.21304e+10 
           1095     5.71303e+10 
           1105     5.31452e+10 
           1115     5.20114e+10 
           1125      3.9994e+10 
           1135     5.08028e+10 
           1145     4.69365e+10 
           1155     4.64041e+10 
           1165     4.50862e+10 
           1175     2.60374e+10 
           1185     4.11385e+10 
           1195      3.9424e+10 
           1205     3.29321e+10 
           1215     2.34639e+10 
           1225     3.59752e+10 
           1235     3.99991e+10 
           1245     3.82338e+10 
           1255     3.78661e+10 
           1265     3.89483e+10 
           1275     4.01451e+10 
           1285     3.99813e+10 
           1295     3.24427e+10 
           1305     3.40711e+10 
           1315      3.8912e+10 
           1325     3.64879e+10 
           1335     3.53662e+10 
           1345     3.51234e+10 
           1355     3.46849e+10 
           1365     3.23325e+10 
           1375     3.11147e+10 
           1385     2.98815e+10 
           1395     2.10838e+10 
           1405     2.27695e+10 
           1415     2.68404e+10 
           1425     2.51032e+10 
           1435      2.6531e+10 
           1442     2.68647e+10 
           1447     2.64922e+10 
           1455      2.5303e+10 
           1465     2.35545e+10 
           1475      2.4102e+10 
           1485     2.38383e+10 
           1495     2.31513e+10 
           1505     2.11232e+10 
           1512     1.93313e+10 
           1517     1.98114e+10 
           1525     1.99637e+10 
           1535     1.66122e+10 
           1545      1.5322e+10 
           1555     1.50034e+10 
           1565     1.66767e+10 
           1575     1.78021e+10 
           1585     1.78825e+10 
           1595     1.76783e+10 
           1605     1.75479e+10 
           1615     1.67564e+10 
           1625     1.68518e+10 
           1635     1.75835e+10 
           1645     1.75847e+10 
           1655     1.74843e+10 
           1665     1.74787e+10 
           1672     1.63395e+10 
           1677     1.87231e+10 
           1685     1.77151e+10 
           1695     1.67698e+10 
           1705     1.64103e+10 
           1715     1.55279e+10 
           1725     1.49799e+10 
           1735     1.55699e+10 
           1745     1.53474e+10 
           1755     1.52794e+10 
           1765     1.51165e+10 
           1775     1.41527e+10 
           1785     1.44616e+10 
           1795     1.45476e+10 
           1805     1.45973e+10 
           1815     1.33379e+10 
           1825     1.36151e+10 
           1835     1.32993e+10 
           1845     1.21008e+10 
           1855     1.24535e+10 
           1865     1.25933e+10 
           1875     1.27251e+10 
           1885     1.14613e+10 
           1895     1.07426e+10 
           1905     1.14918e+10 
           1915     1.09108e+10 
           1925     1.01959e+10 
           1935      1.0949e+10 
           1945      1.1257e+10 
           1955      9.97213e+9 
           1967     1.07749e+10 
           1976     1.12964e+10 
           1984     1.04407e+10 
           1995     1.02748e+10 
           2005     1.05812e+10 
           2015      1.0507e+10 
           2025     1.06947e+10 
           2035      9.79389e+9 
           2045      9.88661e+9 
           2055      8.99043e+9 
           2065      8.89031e+9 
           2074      9.29327e+9 
           2078       8.5956e+9 
           2085      8.99961e+9 
           2095      8.76884e+9 
           2105      9.24857e+9 
           2115       9.2649e+9 
           2125      9.28637e+9 
           2135      9.09875e+9 
           2145      8.68823e+9 
           2155      8.96472e+9 
           2165      8.80413e+9 
           2175      8.74008e+9 
           2185      8.47877e+9 
           2195      8.57841e+9 
           2205      8.51317e+9 
           2215      8.32898e+9 
           2225      8.16068e+9 
           2235      7.98977e+9 
           2245      8.00546e+9 
           2255      7.75829e+9 
           2265      7.80229e+9 
           2275      7.68872e+9 
           2285      7.58621e+9 
           2295      6.76415e+9 
           2305      7.28567e+9 
           2315      7.13991e+9 
           2325      7.07236e+9 
           2335      6.91932e+9 
           2345      6.95429e+9 
           2355      6.84916e+9 
           2365       6.7725e+9 
           2375      6.59597e+9 
           2385      6.49899e+9 
           2395      6.42486e+9 
           2405      6.35135e+9 
           2415      6.26747e+9 
           2425       6.2303e+9 
           2435      6.06156e+9 
           2445      6.04019e+9 
           2455      6.00333e+9 
           2465       5.9151e+9 
           2475      5.81297e+9 
           2485      5.67117e+9 
           2495      4.57236e+9 
           2505      5.44271e+9 
           2513      5.22605e+9 
           2518      5.38535e+9 
           2525      5.42142e+9 
           2535      5.37773e+9 
           2545      5.18805e+9 
           2555      5.19242e+9 
           2565      5.12475e+9 
           2575      5.09457e+9 
           2585      5.03392e+9 
           2595      4.97674e+9 
           2605      4.92772e+9 
           2615      4.84449e+9 
           2625      4.80836e+9 
           2635      4.75538e+9 
           2645      4.66968e+9 
           2655      4.63361e+9 
           2665      4.45526e+9 
           2675      4.43796e+9 
           2685      4.44484e+9 
           2695      4.27576e+9 
           2705      4.18963e+9 
           2715      4.18754e+9 
           2725      4.17929e+9 
           2735      4.12486e+9 
           2745      4.06891e+9 
           2755      4.04117e+9 
           2765      3.97104e+9 
           2775      3.99575e+9 
           2785      3.92392e+9 
           2795      3.77509e+9 
           2805      3.79946e+9 
           2815      3.80898e+9 
           2825       3.7416e+9 
           2835      3.61715e+9 
           2845      3.66247e+9 
           2855      3.59073e+9 
           2865      3.56947e+9 
           2875       3.5275e+9 
           2885      3.48353e+9 
           2895      3.43443e+9 
           2910      3.35186e+9 
           2930      3.31473e+9 
           2950      3.20552e+9 
           2970      3.15485e+9 
           2990       3.0717e+9 
           3010      2.95742e+9 
           3030      2.92905e+9 
           3050      2.88355e+9 
           3070      2.83947e+9 
           3090      2.71777e+9 
           3110      2.70995e+9 
           3130      2.63302e+9 
           3150      2.58891e+9 
           3170      2.51945e+9 
           3190      2.46678e+9 
           3210      2.42839e+9 
           3230      2.36533e+9 
           3250      2.33107e+9 
           3270      2.27146e+9 
           3290      2.22646e+9 
           3310      2.18278e+9 
           3330      2.13001e+9 
           3350      2.09045e+9 
           3370      2.04538e+9 
           3390      2.01558e+9 
           3410       1.9749e+9 
           3430      1.93288e+9 
           3450      1.88651e+9 
           3470      1.85094e+9 
           3490      1.81252e+9 
           3510      1.78015e+9 
           3530      1.75472e+9 
           3550      1.71862e+9 
           3570      1.69253e+9 
           3590      1.64078e+9 
           3610      1.61557e+9 
           3630      1.58621e+9 
           3640      1.58319e+9 
           3650      1.54456e+9 
           3670      1.52567e+9 
           3690      1.49731e+9 
           3710      1.43832e+9 
           3730      1.38879e+9 
           3750      1.39266e+9 
           3770      1.35987e+9 
           3790      1.41291e+9 
           3810      1.45747e+9 
           3830      1.28806e+9 
           3850      1.47103e+9 
           3870      1.45182e+9 
           3890      1.21124e+9 
           3910      1.45339e+9 
           3930      1.41243e+9 
           3950      1.38308e+9 
           3970      1.12164e+9 
           3990       1.3401e+9 
           4010      1.33452e+9 
           4030      1.26221e+9 
           4050      1.29047e+9 
           4070      1.22503e+9 
           4090      1.13998e+9 
           4110      1.02697e+9 
           4130      1.17245e+9 
           4150      1.16489e+9 
           4170      1.16122e+9 
           4190      1.14471e+9 
           4210      1.13292e+9 
           4230       1.1087e+9 
           4250      1.07459e+9 
           4270      1.04616e+9 
           4290      1.02992e+9 
           4310      9.95257e+8 
           4330      9.16762e+8 
           4350      8.46892e+8 
           4370      9.47066e+8 
           4390      9.39512e+8 
           4410      9.35446e+8 
           4430      9.29783e+8 
           4450      9.12008e+8 
           4470      8.68871e+8 
           4490      8.84581e+8 
           4510      8.75234e+8 
           4530      8.62952e+8 
           4550      8.49268e+8 
           4570      8.35573e+8 
           4590      8.20082e+8 
           4610       7.9997e+8 
           4630      7.86202e+8 
           4650      7.55811e+8 
           4670      7.64051e+8 
           4690      7.56213e+8 
           4710      7.28288e+8 
           4730      7.33593e+8 
           4750        7.211e+8 
           4770      7.19569e+8 
           4790      7.06693e+8 
           4810      6.91303e+8 
           4830      6.76078e+8 
           4850       6.3049e+8 
           4870      5.66836e+8 
           4890      6.46654e+8 
           4910      6.40803e+8 
           4930      6.18549e+8 
           4950      6.20264e+8 
           4970      6.17295e+8 
           4990      6.07046e+8 
           5010      5.81512e+8 
           5030      5.87409e+8 
           5050      5.75409e+8 
           5070      5.72666e+8 
           5090      5.62794e+8 
           5110       5.5355e+8 
           5130      5.41942e+8 
           5150      5.35525e+8 
           5170      5.30332e+8 
           5190      5.23903e+8 
           5210      5.16016e+8 
           5230      5.08827e+8 
           5250      5.01554e+8 
           5270       4.9336e+8 
           5290      4.87805e+8 
           5310       4.8065e+8 
           5330      4.74398e+8 
           5350      4.67264e+8 
           5370      4.61439e+8 
           5390      4.54519e+8 
           5410      4.48462e+8 
           5430      4.42609e+8 
           5450      4.36246e+8 
           5470       4.3033e+8 
           5490      4.24438e+8 
           5510      4.19501e+8 
           5530        4.129e+8 
           5550      4.08449e+8 
           5570      4.02692e+8 
           5590      3.97501e+8 
           5610      3.92158e+8 
           5630      3.87237e+8 
           5650      3.80972e+8 
           5670      3.74235e+8 
           5690      3.67315e+8 
           5710      3.65301e+8 
           5730      3.61298e+8 
           5750      3.55268e+8 
           5770      3.52741e+8 
           5790      3.47747e+8 
           5810      3.43359e+8 
           5830      3.37948e+8 
           5850      3.34408e+8 
           5870      3.20763e+8 
           5890       3.2304e+8 
           5910      3.20836e+8 
           5930      3.16469e+8 
           5950      3.12397e+8 
           5970      3.10509e+8 
           5990      3.05037e+8 
           6010      3.02332e+8 
           6030      2.97895e+8 
           6050       2.9456e+8 
           6070      2.91477e+8 
           6090      2.87981e+8 
           6110      2.84373e+8 
           6130      2.81127e+8 
           6150      2.76313e+8 
           6170      2.73426e+8 
           6190      2.70728e+8 
           6210      2.67746e+8 
           6230      2.64662e+8 
           6250      2.60878e+8 
           6270      2.57999e+8 
           6290       2.5518e+8 
           6310      2.51919e+8 
           6330      2.49248e+8 
           6350      2.45793e+8 
           6370      2.43435e+8 
           6390      2.40428e+8 
           6410      2.37647e+8 
           6430      2.35032e+8 
           6450        2.322e+8 
           6470      2.28607e+8 
           6490      2.26189e+8 
           6510      2.23744e+8 
           6530      2.20184e+8 
           6550      2.11184e+8 
           6570      1.87383e+8 
           6590      2.10676e+8 
           6610      2.10886e+8 
           6630      2.09136e+8 
           6650      2.06661e+8 
           6670       2.0246e+8 
           6690      2.00258e+8 
           6710      1.99986e+8 
           6730      1.97186e+8 
           6750      1.95664e+8 
           6770      1.93539e+8 
           6790      1.89884e+8 
           6810      1.88982e+8 
           6830      1.86843e+8 
           6850      1.85063e+8 
           6870      1.82981e+8 
           6890      1.80706e+8 
           6910      1.78455e+8 
           6930      1.77128e+8 
           6950      1.75236e+8 
           6970      1.73348e+8 
           6990       1.7144e+8 
           7010      1.69566e+8 
           7030      1.67665e+8 
           7050      1.65919e+8 
           7070      1.61553e+8 
           7090      1.62374e+8 
           7110      1.59807e+8 
           7130      1.58215e+8 
           7150      1.57236e+8 
           7170      1.55671e+8 
           7190      1.54092e+8 
           7210      1.52477e+8 
           7230      1.48824e+8 
           7250      1.48964e+8 
           7270       1.4774e+8 
           7290      1.45037e+8 
           7310      1.44654e+8 
           7330      1.43122e+8 
           7350       1.4171e+8 
           7370       1.4029e+8 
           7390      1.38849e+8 
           7410      1.37434e+8 
           7430      1.36006e+8 
           7450      1.34632e+8 
           7470      1.32603e+8 
           7490      1.31801e+8 
           7510      1.30533e+8 
           7530      1.29142e+8 
           7550      1.27996e+8 
           7570      1.26716e+8 
           7590      1.25428e+8 
           7610      1.23963e+8 
           7630      1.22926e+8 
           7650      1.21717e+8 
           7670      1.20539e+8 
           7690       1.1932e+8 
           7710      1.18119e+8 
           7730       1.1691e+8 
           7750      1.15881e+8 
           7770      1.14505e+8 
           7790      1.13638e+8 
           7810      1.12483e+8 
           7830      1.11442e+8 
           7850      1.10398e+8 
           7870      1.09144e+8 
           7890      1.07913e+8 
           7910      1.07116e+8 
           7930      1.06049e+8 
           7950      1.05099e+8 
           7970      1.04068e+8 
           7990      1.03075e+8 
           8010      1.02039e+8 
           8030      1.01028e+8 
           8050      1.00155e+8 
           8070      9.92427e+7 
           8090      9.81827e+7 
           8110      9.67425e+7 
           8130      9.65065e+7 
           8150      9.55457e+7 
           8170      9.47793e+7 
           8190      9.33622e+7 
           8210      9.24496e+7 
           8230      9.14335e+7 
           8250      9.10903e+7 
           8270      8.93779e+7 
           8290      8.93254e+7 
           8310      8.86177e+7 
           8330      8.77963e+7 
           8350      8.66036e+7 
           8370      8.60128e+7 
           8390      8.54426e+7 
           8410      8.45946e+7 
           8430       8.3865e+7 
           8450      8.24924e+7 
           8470      8.23344e+7 
           8490      8.13981e+7 
           8510      8.06154e+7 
           8530      7.99427e+7 
           8550       7.8858e+7 
           8570      7.90289e+7 
