# Kurucz ODFNEW /NOVER (2003)
# teff = 20000 K (value for the effective temperature for the model. Temperatures are given in K)
# logg = 5 log(cm/s2) (value for Log(G) for the model.)
# meta = 0.2  (value for the Metallicity for the model.)
# lh = 1.25  (l/Hp where l is the  mixing length of the convective element and Hp is the pressure scale height)
# vtur = 2 km/s (Microturbulence velocity)
# alpha = 0.4  (Alpha)
#
# column 1: WAVELENGTH (ANGSTROM), Wavelength in Angstrom
# column 2: FLUX (ERG/CM2/S/A), Flux in erg/cm2/s/A
          147.2     5.69271e-19 
            151     3.28071e-18 
          155.2     2.06046e-17 
          158.8     9.20481e-17 
            162     3.29444e-16 
            166     1.51384e-15 
          170.3     7.17254e-15 
          173.4     2.11096e-14 
          176.8     6.57795e-14 
          180.2     1.96381e-13 
          181.7       3.138e-13 
          186.1     1.19111e-12 
            191     4.89766e-12 
          193.9     1.08979e-11 
          198.4     3.60301e-11 
          201.8      8.6047e-11 
            205     1.90494e-10 
          210.5     7.02476e-10 
          216.2      2.53485e-9 
          219.8      5.51097e-9 
            223      1.07415e-8 
          226.8      2.31897e-8 
            230      7.99393e-8 
            234      1.96036e-7 
            240      5.92786e-7 
          246.5      1.82691e-6 
          252.4      4.83832e-6 
          256.8      9.55788e-6 
            260      1.58951e-5 
            264      2.88763e-5 
          268.5      5.52143e-5 
          273.5     0.000110376 
          278.5     0.000216526 
            284     0.000444993 
            290     0.000934835 
            296      0.00190102 
            301      0.00336703 
            308      0.00724556 
            318       0.0207126 
            328       0.0539896 
            338        0.136365 
            348        0.321905 
            357        0.709008 
            366         1.43499 
            375         2.73496 
            385         5.46293 
            395         10.4644 
            405         19.4089 
            414         33.1393 
            422         51.5939 
            430         79.4229 
            441         140.572 
            451          230.63 
            460         350.593 
            470         549.882 
            480          843.21 
            490         1272.05 
            500         1885.91 
            506         17525.8 
            512         88317.5 
            520          111477 
            530          155118 
            540          182228 
            550          267023 
            560          330527 
            570          430369 
            580          474518 
            590          657637 
            600          811904 
            610      1.01872e+6 
            620      1.18772e+6 
            630      1.40801e+6 
            640      1.54766e+6 
            650      1.61312e+6 
            658      2.11317e+6 
            665      2.35796e+6 
            675      2.68318e+6 
            685      3.04932e+6 
            695      3.68716e+6 
            705      4.11221e+6 
            716      4.76908e+6 
            726      5.31119e+6 
            735      5.87997e+6 
            745       6.7498e+6 
            755      7.59308e+6 
            765      8.49021e+6 
            775      9.50754e+6 
            785      1.05702e+7 
            795      1.14433e+7 
            805      1.25572e+7 
            815      1.36745e+7 
            825       1.5171e+7 
            835      1.57246e+7 
            845       1.7483e+7 
            855      1.89987e+7 
            865      2.07315e+7 
            875      2.25514e+7 
            885      2.48195e+7 
            895      2.67324e+7 
            905      2.75252e+7 
            915      4.06979e+7 
            925      1.44677e+8 
            935      3.27692e+8 
            945      1.07553e+9 
            955      2.63522e+9 
            965      3.93071e+9 
            975      7.92118e+8 
            985      6.16489e+9 
            995      5.86275e+9 
           1005      7.36618e+9 
           1015       5.7649e+9 
           1025      8.54237e+8 
           1035      3.66241e+9 
           1045      9.55084e+9 
           1055      9.64108e+9 
           1065      7.23483e+9 
           1075      9.31273e+9 
           1085      8.42247e+9 
           1095      9.63923e+9 
           1105      7.82847e+9 
           1115      7.05202e+9 
           1125      6.96055e+9 
           1135      9.20486e+9 
           1145      7.33617e+9 
           1155      8.33646e+9 
           1165      8.79324e+9 
           1175      6.51638e+9 
           1185      8.71758e+9 
           1195      4.68846e+9 
           1205       2.3864e+9 
           1215      9.47269e+8 
           1225      2.85316e+9 
           1235      7.36478e+9 
           1245       8.2551e+9 
           1255      8.06547e+9 
           1265       7.1811e+9 
           1275      7.91824e+9 
           1285      8.62435e+9 
           1295      4.78284e+9 
           1305       3.8513e+9 
           1315       7.8665e+9 
           1325       7.5098e+9 
           1335       6.7845e+9 
           1345      7.44452e+9 
           1355      7.30816e+9 
           1365      6.32962e+9 
           1375      6.48259e+9 
           1385      6.64011e+9 
           1395      5.48303e+9 
           1405      5.80774e+9 
           1415      5.91786e+9 
           1425         6.19e+9 
           1435      6.11409e+9 
           1442      6.57721e+9 
           1447       6.5025e+9 
           1455      6.33279e+9 
           1465      5.91312e+9 
           1475      5.75685e+9 
           1485      5.55846e+9 
           1495      5.70954e+9 
           1505       5.0917e+9 
           1512      4.71558e+9 
           1517      5.03765e+9 
           1525      5.09266e+9 
           1535      4.52288e+9 
           1545      4.70694e+9 
           1555      4.42707e+9 
           1565      4.46589e+9 
           1575      4.78022e+9 
           1585      4.77618e+9 
           1595      4.84738e+9 
           1605      4.75134e+9 
           1615       4.7532e+9 
           1625      4.54565e+9 
           1635      4.74882e+9 
           1645      4.72648e+9 
           1655      4.39968e+9 
           1665      4.73347e+9 
           1672      4.54649e+9 
           1677      4.65231e+9 
           1685      4.72022e+9 
           1695      4.46721e+9 
           1705      4.22045e+9 
           1715      3.95632e+9 
           1725      3.91273e+9 
           1735      4.09253e+9 
           1745      3.95618e+9 
           1755      4.06657e+9 
           1765      3.77404e+9 
           1775      3.78018e+9 
           1785      3.78252e+9 
           1795      3.97667e+9 
           1805      3.95054e+9 
           1815      3.59698e+9 
           1825      3.72937e+9 
           1835      3.52974e+9 
           1845      3.25674e+9 
           1855      3.17639e+9 
           1865      3.21575e+9 
           1875      3.47215e+9 
           1885      3.15084e+9 
           1895      2.96535e+9 
           1905      3.18105e+9 
           1915      2.99896e+9 
           1925      2.91542e+9 
           1935      3.02291e+9 
           1945      3.03523e+9 
           1955      2.82979e+9 
           1967      3.05972e+9 
           1976      3.17577e+9 
           1984      2.93411e+9 
           1995      2.86322e+9 
           2005        2.941e+9 
           2015      2.75637e+9 
           2025      2.99463e+9 
           2035      2.76523e+9 
           2045      2.79699e+9 
           2055      2.66412e+9 
           2065        2.733e+9 
           2074       2.7864e+9 
           2078      2.63644e+9 
           2085      2.72649e+9 
           2095      2.56799e+9 
           2105      2.62612e+9 
           2115       2.6144e+9 
           2125      2.65167e+9 
           2135      2.54615e+9 
           2145      2.49249e+9 
           2155      2.56595e+9 
           2165      2.50999e+9 
           2175      2.47486e+9 
           2185      2.40783e+9 
           2195      2.43755e+9 
           2205      2.38039e+9 
           2215        2.328e+9 
           2225      2.23216e+9 
           2235      2.29142e+9 
           2245      2.25917e+9 
           2255      2.16768e+9 
           2265      2.21827e+9 
           2275      2.21228e+9 
           2285      2.21497e+9 
           2295      2.11889e+9 
           2305      2.09459e+9 
           2315      2.03344e+9 
           2325      2.00818e+9 
           2335      1.91294e+9 
           2345      1.89138e+9 
           2355      1.90008e+9 
           2365      1.83892e+9 
           2375      1.85525e+9 
           2385      1.79999e+9 
           2395      1.85487e+9 
           2405      1.77767e+9 
           2415      1.78675e+9 
           2425      1.79991e+9 
           2435      1.72505e+9 
           2445      1.75527e+9 
           2455       1.7365e+9 
           2465      1.71041e+9 
           2475      1.67478e+9 
           2485      1.70648e+9 
           2495      1.63539e+9 
           2505      1.67327e+9 
           2513      1.59523e+9 
           2518      1.64457e+9 
           2525      1.58335e+9 
           2535      1.57159e+9 
           2545      1.51558e+9 
           2555      1.55856e+9 
           2565      1.54019e+9 
           2575      1.56899e+9 
           2585      1.56499e+9 
           2595      1.55469e+9 
           2605      1.52223e+9 
           2615      1.51061e+9 
           2625      1.49781e+9 
           2635      1.49211e+9 
           2645      1.50864e+9 
           2655      1.49441e+9 
           2665      1.43325e+9 
           2675      1.45509e+9 
           2685      1.44077e+9 
           2695      1.40706e+9 
           2705      1.40384e+9 
           2715      1.37864e+9 
           2725       1.3556e+9 
           2735      1.37381e+9 
           2745      1.30637e+9 
           2755      1.30306e+9 
           2765      1.30223e+9 
           2775      1.31952e+9 
           2785       1.3036e+9 
           2795      1.21525e+9 
           2805      1.25764e+9 
           2815      1.27468e+9 
           2825      1.25033e+9 
           2835      1.20018e+9 
           2845        1.202e+9 
           2855      1.20381e+9 
           2865      1.21373e+9 
           2875      1.19223e+9 
           2885      1.18425e+9 
           2895      1.17545e+9 
           2910      1.16069e+9 
           2930      1.13288e+9 
           2950      1.10484e+9 
           2970      1.09539e+9 
           2990      1.06928e+9 
           3010      1.05537e+9 
           3030      1.04222e+9 
           3050      1.01953e+9 
           3070      1.00049e+9 
           3090      9.78468e+8 
           3110      9.60042e+8 
           3130      9.46851e+8 
           3150      9.28715e+8 
           3170      9.09873e+8 
           3190      8.80952e+8 
           3210      8.75456e+8 
           3230      8.61398e+8 
           3250       8.4794e+8 
           3270      8.34076e+8 
           3290      8.18954e+8 
           3310      8.06337e+8 
           3330      7.90938e+8 
           3350      7.74943e+8 
           3370      7.62886e+8 
           3390      7.50404e+8 
           3410      7.38258e+8 
           3430      7.23205e+8 
           3450      7.08831e+8 
           3470      6.97805e+8 
           3490      6.86211e+8 
           3510      6.75447e+8 
           3530      6.64973e+8 
           3550      6.54273e+8 
           3570      6.46638e+8 
           3590      6.30128e+8 
           3610      6.21807e+8 
           3630      6.11343e+8 
           3640      6.10633e+8 
           3650      6.04633e+8 
           3670      5.97418e+8 
           3690      5.88193e+8 
           3710      5.68511e+8 
           3730       5.4326e+8 
           3750      5.48357e+8 
           3770      5.40249e+8 
           3790      5.81954e+8 
           3810      6.19175e+8 
           3830      5.26921e+8 
           3850      6.47423e+8 
           3870      6.79134e+8 
           3890       4.8866e+8 
           3910      6.79355e+8 
           3930      6.75264e+8 
           3950      6.59026e+8 
           3970       4.5726e+8 
           3990      6.23942e+8 
           4010      6.47019e+8 
           4030      5.95636e+8 
           4050      6.38115e+8 
           4070       6.1023e+8 
           4090      5.27977e+8 
           4110      4.46198e+8 
           4130      5.67207e+8 
           4150      5.74768e+8 
           4170      5.75182e+8 
           4190      5.70327e+8 
           4210      5.64942e+8 
           4230      5.54412e+8 
           4250      5.42282e+8 
           4270      5.23535e+8 
           4290      5.22104e+8 
           4310      5.04595e+8 
           4330      4.23429e+8 
           4350      3.80383e+8 
           4370      4.75703e+8 
           4390       4.6225e+8 
           4410      4.75636e+8 
           4430      4.67108e+8 
           4450      4.64403e+8 
           4470      4.26432e+8 
           4490      4.43215e+8 
           4510      4.45813e+8 
           4530      4.36341e+8 
           4550      4.30584e+8 
           4570      4.24785e+8 
           4590      4.18195e+8 
           4610      4.11082e+8 
           4630      4.03215e+8 
           4650      3.96426e+8 
           4670      3.92744e+8 
           4690      3.88785e+8 
           4710      3.71361e+8 
           4730        3.737e+8 
           4750      3.67855e+8 
           4770      3.66714e+8 
           4790       3.5952e+8 
           4810      3.50121e+8 
           4830      3.39347e+8 
           4850      2.94289e+8 
           4870      2.57487e+8 
           4890      3.23004e+8 
           4910      3.25535e+8 
           4930      3.11801e+8 
           4950      3.20172e+8 
           4970      3.17494e+8 
           4990      3.12321e+8 
           5010      2.98741e+8 
           5030      3.01968e+8 
           5050      2.91442e+8 
           5070      2.95405e+8 
           5090      2.90776e+8 
           5110      2.85763e+8 
           5130       2.8122e+8 
           5150      2.77066e+8 
           5170      2.75194e+8 
           5190      2.71063e+8 
           5210      2.63879e+8 
           5230      2.64344e+8 
           5250       2.6098e+8 
           5270      2.56629e+8 
           5290      2.54545e+8 
           5310       2.5084e+8 
           5330      2.46588e+8 
           5350      2.42734e+8 
           5370      2.41242e+8 
           5390      2.38068e+8 
           5410      2.34213e+8 
           5430      2.30523e+8 
           5450      2.27934e+8 
           5470      2.24193e+8 
           5490      2.22962e+8 
           5510      2.19783e+8 
           5530      2.16903e+8 
           5550        2.144e+8 
           5570      2.11394e+8 
           5590      2.09137e+8 
           5610      2.06032e+8 
           5630       2.0425e+8 
           5650      1.98936e+8 
           5670       1.9675e+8 
           5690      1.95567e+8 
           5710      1.93841e+8 
           5730       1.9171e+8 
           5750      1.89137e+8 
           5770      1.87092e+8 
           5790      1.84768e+8 
           5810      1.82192e+8 
           5830      1.80047e+8 
           5850      1.77926e+8 
           5870      1.68811e+8 
           5890      1.71967e+8 
           5910      1.71323e+8 
           5930      1.69569e+8 
           5950      1.66473e+8 
           5970      1.65518e+8 
           5990      1.63018e+8 
           6010       1.6183e+8 
           6030      1.59785e+8 
           6050      1.57969e+8 
           6070       1.5607e+8 
           6090      1.54031e+8 
           6110       1.5251e+8 
           6130      1.50784e+8 
           6150      1.47684e+8 
           6170      1.47045e+8 
           6190      1.45604e+8 
           6210      1.43867e+8 
           6230      1.42197e+8 
           6250        1.399e+8 
           6270      1.38808e+8 
           6290      1.37241e+8 
           6310      1.35426e+8 
           6330      1.34224e+8 
           6350      1.31333e+8 
           6370      1.30519e+8 
           6390      1.29574e+8 
           6410      1.28043e+8 
           6430      1.27019e+8 
           6450      1.25327e+8 
           6470      1.23834e+8 
           6490      1.22356e+8 
           6510      1.20459e+8 
           6530      1.17867e+8 
           6550      1.08139e+8 
           6570      9.39098e+7 
           6590      1.11757e+8 
           6610      1.13833e+8 
           6630      1.13292e+8 
           6650      1.12246e+8 
           6670      1.09609e+8 
           6690      1.08652e+8 
           6710       1.0885e+8 
           6730      1.07713e+8 
           6750      1.06671e+8 
           6770      1.05581e+8 
           6790      1.03971e+8 
           6810       1.0324e+8 
           6830      1.02006e+8 
           6850      1.01162e+8 
           6870      1.00103e+8 
           6890      9.90468e+7 
           6910      9.80088e+7 
           6930       9.6785e+7 
           6950      9.60181e+7 
           6970      9.50491e+7 
           6990      9.40125e+7 
           7010      9.29632e+7 
           7030      9.20462e+7 
           7050      9.10169e+7 
           7070      8.86712e+7 
           7090      8.93558e+7 
           7110      8.83396e+7 
           7130      8.74667e+7 
           7150      8.65212e+7 
           7170      8.57461e+7 
           7190      8.49272e+7 
           7210      8.40871e+7 
           7230      8.23253e+7 
           7250      8.22587e+7 
           7270      8.15929e+7 
           7290      8.01676e+7 
           7310      7.99692e+7 
           7330      7.91968e+7 
           7350      7.84387e+7 
           7370      7.76667e+7 
           7390      7.69089e+7 
           7410      7.61581e+7 
           7430      7.52027e+7 
           7450      7.46026e+7 
           7470      7.37379e+7 
           7490      7.31028e+7 
           7510      7.24802e+7 
           7530      7.17834e+7 
           7550       7.1126e+7 
           7570       7.0468e+7 
           7590       6.9744e+7 
           7610      6.91307e+7 
           7630      6.84711e+7 
           7650      6.78238e+7 
           7670      6.71888e+7 
           7690      6.65468e+7 
           7710      6.59294e+7 
           7730      6.52798e+7 
           7750      6.46924e+7 
           7770      6.33177e+7 
           7790      6.34896e+7 
           7810      6.28931e+7 
           7830      6.23265e+7 
           7850      6.13979e+7 
           7870      6.09464e+7 
           7890      6.01682e+7 
           7910      6.00293e+7 
           7930      5.95316e+7 
           7950      5.86298e+7 
           7970      5.84082e+7 
           7990      5.74358e+7 
           8010      5.73918e+7 
           8030      5.68533e+7 
           8050      5.62793e+7 
           8070      5.58324e+7 
           8090      5.52821e+7 
           8110      5.47658e+7 
           8130      5.42829e+7 
           8150      5.38149e+7 
           8170      5.33785e+7 
           8190      5.28036e+7 
           8210      5.21794e+7 
           8230      5.15479e+7 
           8250      5.14848e+7 
           8270       5.0877e+7 
           8290      5.05901e+7 
           8310      5.01336e+7 
           8330      4.97406e+7 
           8350      4.91579e+7 
           8370      4.87775e+7 
           8390      4.84944e+7 
           8410      4.80749e+7 
           8430      4.76112e+7 
           8450      4.66611e+7 
           8470       4.6806e+7 
           8490      4.62496e+7 
           8510      4.58671e+7 
           8530      4.55093e+7 
           8550       4.4771e+7 
           8570      4.49516e+7 
