# Kurucz ODFNEW /NOVER (2003)
# teff = 6000 K (value for the effective temperature for the model. Temperatures are given in K)
# logg = 0.5 log(cm/s2) (value for Log(G) for the model.)
# meta = -4  (value for the Metallicity for the model.)
# lh = 1.25  (l/Hp where l is the  mixing length of the convective element and Hp is the pressure scale height)
# vtur = 2 km/s (Microturbulence velocity)
# alpha = 0.4  (Alpha)
#
# column 1: WAVELENGTH (ANGSTROM), Wavelength in Angstrom
# column 2: FLUX (ERG/CM2/S/A), Flux in erg/cm2/s/A
          147.2     1.73866e-35 
            151     1.65225e-35 
          155.2     1.56403e-35 
          158.8     1.49392e-35 
            162     1.43549e-35 
            166     1.36714e-35 
          170.3     1.29897e-35 
          173.4     1.25294e-35 
          176.8     1.20522e-35 
          180.2     1.16017e-35 
          181.7     1.14109e-35 
          186.1     1.08777e-35 
            191     1.03267e-35 
          193.9     1.00201e-35 
          198.4     9.57076e-36 
          201.8     9.25097e-36 
            205     8.96441e-36 
          210.5     8.50208e-36 
          216.2     8.05969e-36 
          219.8     7.79784e-36 
            223     7.57565e-36 
          226.8     7.32392e-36 
            230     7.12154e-36 
            234     6.88015e-36 
            240     6.54044e-36 
          246.5     6.20006e-36 
          252.4     5.91358e-36 
          256.8     5.71267e-36 
            260     5.57292e-36 
            264     5.40532e-36 
          268.5     5.22566e-36 
          273.5     5.03634e-36 
          278.5     4.85712e-36 
            284     4.67082e-36 
            290     4.47954e-36 
            296     4.29978e-36 
            301     4.15812e-36 
            308     3.97126e-36 
            318     3.72542e-36 
            328     3.50172e-36 
            338     3.29759e-36 
            348     3.11079e-36 
            357     2.95592e-36 
            366     2.81234e-36 
            375     2.67896e-36 
            385     2.54161e-36 
            395      5.7005e-23 
            405     4.29383e-22 
            414     2.32725e-21 
            422     9.80346e-21 
            430     3.90523e-20 
            441     2.40026e-19 
            451     1.15509e-18 
            460     4.47179e-18 
            470     1.88928e-17 
            480     7.50074e-17 
            490     2.80876e-16 
            500     9.95696e-16 
            506     1.97137e-15 
            512     4.17724e-15 
            520     1.07504e-14 
            530     3.29333e-14 
            540     9.66241e-14 
            550     2.72154e-13 
            560     7.37493e-13 
            570     1.92678e-12 
            580     4.78169e-12 
            590     1.18755e-11 
            600     2.81124e-11 
            610     6.46059e-11 
            620     1.44351e-10 
            630     3.13998e-10 
            640     6.65798e-10 
            650       1.3778e-9 
            658      2.42441e-9 
            665      3.92852e-9 
            675      7.68664e-9 
            685       1.4732e-8 
            695      2.76823e-8 
            705      5.10431e-8 
            716       9.7986e-8 
            726      1.74085e-7 
            735      2.87904e-7 
            745       4.9595e-7 
            755      8.41392e-7 
            765     6.43734e-37 
            775     6.77156e-23 
            785      6.1135e-37 
            795      1.2211e-22 
            805      5.8135e-37 
            815     4.05981e-22 
            825     4.03561e-22 
            835     1.52567e-21 
            845     5.27614e-37 
            855     2.73101e-21 
            865     5.03498e-37 
            875     4.90126e-21 
            885     9.29528e-21 
            895     4.70309e-37 
            905     4.59973e-37 
            915      0.00136221 
            925      0.00615316 
            935      0.00754213 
            945       0.0127317 
            955       0.0230228 
            965       0.0168933 
            975       0.0119107 
            985        0.059657 
            995        0.069305 
           1005       0.0585259 
           1015       0.0383376 
           1025        0.132333 
           1035       0.0814704 
           1045        0.201011 
           1055        0.381832 
           1065          0.6065 
           1075         0.80332 
           1085        0.993678 
           1095          1.1022 
           1105          1.1132 
           1115         1.06729 
           1125          1.0161 
           1135         0.96175 
           1145        0.945139 
           1155        0.915514 
           1165        0.877437 
           1175         0.79514 
           1185         6.73604 
           1195         1.47568 
           1205         1.46795 
           1215         1.52955 
           1225         2.06841 
           1235         2.94423 
           1245         1.31965 
           1255         2.42634 
           1265         3.77548 
           1275         5.03349 
           1285          6.6027 
           1295         8.32724 
           1305         10.3494 
           1315         12.5703 
           1325         15.6378 
           1335         19.0461 
           1345         22.6597 
           1355         27.3351 
           1365         33.2424 
           1375         40.1393 
           1385         48.3249 
           1395         58.4717 
           1405         70.1025 
           1415         84.2033 
           1425         100.164 
           1435          119.21 
           1442         137.074 
           1447         149.056 
           1455         170.932 
           1465         201.545 
           1475         238.873 
           1485         289.189 
           1495         336.356 
           1505         394.572 
           1512         441.929 
           1517         476.967 
           1525          549.31 
           1535         688.761 
           1545         842.353 
           1555         1028.81 
           1565         1236.46 
           1575         1329.63 
           1585         1501.08 
           1595         1694.53 
           1605         1897.08 
           1615         2041.36 
           1625         2189.79 
           1635         2360.81 
           1645          2544.5 
           1655         2811.07 
           1665         3462.72 
           1672         4168.22 
           1677         5371.52 
           1685         7477.07 
           1695         11141.8 
           1705         15472.1 
           1715         21163.6 
           1725         25990.8 
           1735         31711.7 
           1745           35562 
           1755         42500.4 
           1765         44574.2 
           1775         53121.5 
           1785         60721.8 
           1795         70784.1 
           1805         72854.6 
           1815         79795.1 
           1825         81887.6 
           1835         93310.1 
           1845         95010.6 
           1855          106037 
           1865          115568 
           1875          123650 
           1885          133930 
           1895          143085 
           1905          146341 
           1915          161952 
           1925          176581 
           1935          182186 
           1945          202036 
           1955          212976 
           1967          231729 
           1976          237032 
           1984          247394 
           1995          264977 
           2005          274786 
           2015          287486 
           2025          295816 
           2035          325283 
           2045          342243 
           2055          349367 
           2065          366400 
           2074          396350 
           2078          401883 
           2085          411071 
           2095          424254 
           2105          441981 
           2115          463944 
           2125          481605 
           2135          481005 
           2145          517552 
           2155          534500 
           2165          544081 
           2175          570037 
           2185          595203 
           2195          633415 
           2205          642808 
           2215          639243 
           2225          673104 
           2235          725204 
           2245          728953 
           2255          730363 
           2265          737050 
           2275          795877 
           2285          822549 
           2295          827127 
           2305          863928 
           2315          884458 
           2325          908367 
           2335          922092 
           2345          894035 
           2355          987739 
           2365          959062 
           2375      1.02614e+6 
           2385          958079 
           2395      1.05676e+6 
           2405       1.0756e+6 
           2415      1.10734e+6 
           2425      1.18798e+6 
           2435      1.19095e+6 
           2445       1.2358e+6 
           2455      1.25676e+6 
           2465      1.26295e+6 
           2475      1.27337e+6 
           2485      1.31365e+6 
           2495      1.32977e+6 
           2505      1.40509e+6 
           2513       1.3689e+6 
           2518      1.37689e+6 
           2525      1.36507e+6 
           2535      1.38921e+6 
           2545      1.44229e+6 
           2555       1.5248e+6 
           2565      1.54483e+6 
           2575      1.60393e+6 
           2585      1.63699e+6 
           2595      1.65198e+6 
           2605      1.65542e+6 
           2615      1.67639e+6 
           2625      1.72345e+6 
           2635      1.76872e+6 
           2645      1.89231e+6 
           2655      1.91277e+6 
           2665      1.88926e+6 
           2675      1.94308e+6 
           2685      1.99793e+6 
           2695      2.00227e+6 
           2705      2.04505e+6 
           2715      2.01775e+6 
           2725      2.05705e+6 
           2735      2.11033e+6 
           2745      2.01803e+6 
           2755      2.07801e+6 
           2765       2.1659e+6 
           2775      2.25491e+6 
           2785      2.27105e+6 
           2795      1.90722e+6 
           2805      2.08359e+6 
           2815       2.4104e+6 
           2825      2.43864e+6 
           2835      2.43013e+6 
           2845      2.45734e+6 
           2855      2.42158e+6 
           2865      2.47217e+6 
           2875      2.51831e+6 
           2885      2.56914e+6 
           2895      2.62658e+6 
           2910      2.69731e+6 
           2930      2.72473e+6 
           2950       2.7615e+6 
           2970      2.83594e+6 
           2990      2.90099e+6 
           3010      2.96952e+6 
           3030      3.03053e+6 
           3050      3.08718e+6 
           3070      3.10944e+6 
           3090      3.19925e+6 
           3110      3.24299e+6 
           3130      3.29439e+6 
           3150      3.35159e+6 
           3170      3.40901e+6 
           3190      3.42081e+6 
           3210       3.4944e+6 
           3230      3.49387e+6 
           3250      3.58379e+6 
           3270      3.66586e+6 
           3290      3.73698e+6 
           3310       3.7872e+6 
           3330      3.79519e+6 
           3350      3.80707e+6 
           3370      3.87978e+6 
           3390      3.91937e+6 
           3410      4.01025e+6 
           3430      4.05648e+6 
           3450      4.08143e+6 
           3470        4.119e+6 
           3490      4.17245e+6 
           3510      4.22839e+6 
           3530      4.27735e+6 
           3550      4.32316e+6 
           3570      4.32954e+6 
           3590      4.37176e+6 
           3610      4.41451e+6 
           3630      4.45549e+6 
           3640      4.46829e+6 
           3650      4.50492e+6 
           3670      4.59049e+6 
           3690      5.17971e+6 
           3710      6.79498e+6 
           3730      8.94837e+6 
           3750      1.11997e+7 
           3770      1.13897e+7 
           3790      1.23252e+7 
           3810      1.33593e+7 
           3830      1.17291e+7 
           3850      1.38894e+7 
           3870      1.42394e+7 
           3890      1.14709e+7 
           3910      1.41748e+7 
           3930      1.37828e+7 
           3950      1.42381e+7 
           3970      1.12149e+7 
           3990      1.41105e+7 
           4010      1.42451e+7 
           4030      1.42242e+7 
           4050      1.41822e+7 
           4070      1.40092e+7 
           4090      1.34082e+7 
           4110      1.16524e+7 
           4130      1.39413e+7 
           4150       1.3963e+7 
           4170      1.39137e+7 
           4190      1.38681e+7 
           4210      1.37982e+7 
           4230       1.3731e+7 
           4250       1.3702e+7 
           4270      1.36549e+7 
           4290      1.35891e+7 
           4310      1.34325e+7 
           4330      1.26034e+7 
           4350      1.14282e+7 
           4370      1.33394e+7 
           4390      1.32983e+7 
           4410      1.32639e+7 
           4430      1.32481e+7 
           4450      1.31764e+7 
           4470      1.31271e+7 
           4490      1.30829e+7 
           4510      1.30169e+7 
           4530      1.29569e+7 
           4550       1.2879e+7 
           4570      1.28464e+7 
           4590      1.28012e+7 
           4610      1.27561e+7 
           4630      1.26947e+7 
           4650      1.26432e+7 
           4670      1.25875e+7 
           4690      1.25321e+7 
           4710      1.24727e+7 
           4730      1.24199e+7 
           4750      1.23649e+7 
           4770      1.23078e+7 
           4790      1.22517e+7 
           4810      1.21919e+7 
           4830      1.20898e+7 
           4850      1.14722e+7 
           4870       1.0149e+7 
           4890       1.1895e+7 
           4910      1.19042e+7 
           4930      1.18444e+7 
           4950       1.1804e+7 
           4970      1.17505e+7 
           4990      1.16934e+7 
           5010      1.16299e+7 
           5030       1.1583e+7 
           5050      1.15272e+7 
           5070       1.1473e+7 
           5090      1.14176e+7 
           5110      1.13626e+7 
           5130      1.13068e+7 
           5150      1.12514e+7 
           5170      1.11534e+7 
           5190      1.11176e+7 
           5210      1.10857e+7 
           5230      1.10262e+7 
           5250      1.09824e+7 
           5270      1.09193e+7 
           5290      1.08752e+7 
           5310      1.08206e+7 
           5330      1.07639e+7 
           5350      1.07166e+7 
           5370      1.06623e+7 
           5390      1.06098e+7 
           5410      1.05572e+7 
           5430      1.05036e+7 
           5450      1.04518e+7 
           5470      1.04013e+7 
           5490      1.03495e+7 
           5510      1.02979e+7 
           5530      1.02454e+7 
           5550      1.01957e+7 
           5570      1.01442e+7 
           5590      1.00929e+7 
           5610      1.00427e+7 
           5630       9.9931e+6 
           5650      9.94254e+6 
           5670       9.8928e+6 
           5690      9.84362e+6 
           5710      9.79396e+6 
           5730      9.74465e+6 
           5750      9.69543e+6 
           5770      9.64644e+6 
           5790      9.59767e+6 
           5810      9.54912e+6 
           5830      9.50089e+6 
           5850      9.45244e+6 
           5870      9.40498e+6 
           5890      9.35164e+6 
           5910      9.30981e+6 
           5930      9.26255e+6 
           5950      9.21539e+6 
           5970      9.16854e+6 
           5990       9.1218e+6 
           6010      9.07538e+6 
           6030      9.02916e+6 
           6050      8.98325e+6 
           6070      8.93755e+6 
           6090      8.89204e+6 
           6110      8.84664e+6 
           6130      8.80094e+6 
           6150      8.75574e+6 
           6170      8.71124e+6 
           6190      8.66772e+6 
           6210      8.62361e+6 
           6230      8.57959e+6 
           6250      8.53537e+6 
           6270      8.49251e+6 
           6290      8.44925e+6 
           6310      8.40618e+6 
           6330       8.3634e+6 
           6350       8.3207e+6 
           6370      8.27837e+6 
           6390      8.23623e+6 
           6410      8.19418e+6 
           6430      8.15239e+6 
           6450      8.10997e+6 
           6470      8.06918e+6 
           6490      8.02668e+6 
           6510       7.9785e+6 
           6530      7.90647e+6 
           6550      7.60694e+6 
           6570       6.4988e+6 
           6590       7.7465e+6 
           6610      7.76548e+6 
           6630       7.7451e+6 
           6650      7.70556e+6 
           6670       7.6662e+6 
           6690      7.62699e+6 
           6710      7.58804e+6 
           6730      7.54933e+6 
           6750      7.51069e+6 
           6770      7.47238e+6 
           6790      7.43423e+6 
           6810      7.39631e+6 
           6830      7.35855e+6 
           6850      7.32102e+6 
           6870      7.28365e+6 
           6890       7.2465e+6 
           6910      7.20959e+6 
           6930      7.17282e+6 
           6950      7.13627e+6 
           6970      7.09995e+6 
           6990      7.06385e+6 
           7010      7.02782e+6 
           7030      6.99208e+6 
           7050      6.95649e+6 
           7070      6.92103e+6 
           7090      6.88578e+6 
           7110      6.85075e+6 
           7130      6.81585e+6 
           7150      6.78102e+6 
           7170      6.74661e+6 
           7190      6.71227e+6 
           7210      6.67805e+6 
           7230      6.64411e+6 
           7250      6.61037e+6 
           7270      6.57669e+6 
           7290       6.5432e+6 
           7310      6.50998e+6 
           7330      6.47682e+6 
           7350      6.44399e+6 
           7370      6.41129e+6 
           7390      6.37877e+6 
           7410      6.34637e+6 
           7430      6.31416e+6 
           7450      6.28214e+6 
           7470       6.2503e+6 
           7490      6.21864e+6 
           7510      6.18717e+6 
           7530      6.15587e+6 
           7550      6.12476e+6 
           7570      6.09382e+6 
           7590      6.06305e+6 
           7610       6.0324e+6 
           7630      6.00191e+6 
           7650       5.9716e+6 
           7670       5.9414e+6 
           7690      5.91149e+6 
           7710      5.88155e+6 
           7730      5.85198e+6 
           7750       5.8225e+6 
           7770      5.79238e+6 
           7790       5.7641e+6 
           7810      5.73511e+6 
           7830      5.70628e+6 
           7850      5.67761e+6 
           7870       5.6491e+6 
           7890      5.62067e+6 
           7910      5.59253e+6 
           7930      5.56447e+6 
           7950      5.53657e+6 
           7970      5.50888e+6 
           7990      5.48127e+6 
           8010      5.45382e+6 
           8030      5.42657e+6 
           8050      5.39941e+6 
           8070      5.37239e+6 
           8090      5.34557e+6 
           8110      5.31889e+6 
           8130       5.2923e+6 
           8150       5.2659e+6 
           8170       5.2397e+6 
           8190       5.2133e+6 
           8210      5.19112e+6 
           8230      5.16653e+6 
           8250      5.14156e+6 
           8270      5.11414e+6 
           8290      5.08664e+6 
           8310        5.051e+6 
           8330      5.02064e+6 
           8350      5.01169e+6 
           8370      4.93787e+6 
           8390      4.94695e+6 
           8410      4.91871e+6 
           8430      4.96654e+6 
           8450      4.93166e+6 
           8470      4.83567e+6 
           8490      4.99626e+6 
           8510       4.7654e+6 
           8530      4.99238e+6 
           8550      4.69509e+6 
           8570      4.99066e+6 
