# Kurucz ODFNEW /NOVER (2003)
# teff = 8000 K (value for the effective temperature for the model. Temperatures are given in K)
# logg = 4.5 log(cm/s2) (value for Log(G) for the model.)
# meta = 0  (value for the Metallicity for the model.)
# lh = 1.25  (l/Hp where l is the  mixing length of the convective element and Hp is the pressure scale height)
# vtur = 2 km/s (Microturbulence velocity)
# alpha = 0  (Alpha)
#
# column 1: WAVELENGTH (ANGSTROM), Wavelength in Angstrom
# column 2: FLUX (ERG/CM2/S/A), Flux in erg/cm2/s/A
            328     3.33644e-24 
            338     3.29175e-23 
            348     2.82877e-22 
            357     1.75656e-21 
            366     9.93542e-21 
            375     5.14067e-20 
            385     2.90226e-19 
            395     1.49183e-18 
            405     7.03711e-18 
            414     2.65585e-17 
            422     8.21644e-17 
            430      2.4301e-16 
            441      1.0078e-15 
            451     3.44093e-15 
            460     9.89484e-15 
            470     3.04112e-14 
            480     8.88421e-14 
            490     2.47659e-13 
            500     6.59789e-13 
            506      1.5404e-12 
            512     3.01994e-12 
            520     6.16351e-12 
            530     1.46534e-11 
            540     3.30439e-11 
            550     7.32213e-11 
            560     1.56218e-10 
            570     3.23577e-10 
            580     6.44068e-10 
            590      1.27867e-9 
            600      2.44644e-9 
            610      4.57603e-9 
            620      8.36106e-9 
            630      1.49562e-8 
            640      2.62211e-8 
            650      4.51166e-8 
            658      6.87045e-8 
            665      9.82321e-8 
            675      1.61664e-7 
            685      2.61738e-7 
            695      4.17118e-7 
            705       6.5227e-7 
            716      1.05702e-6 
            726      1.61091e-6 
            735      2.32771e-6 
            745      3.46107e-6 
            755      5.08728e-6 
            765      7.39329e-6 
            775      1.06246e-5 
            785      1.51181e-5 
            795      2.10811e-5 
            805      2.95337e-5 
            815      4.09016e-5 
            825      5.59704e-5 
            835      7.59159e-5 
            845      0.00010212 
            855     0.000136252 
            865     0.000180358 
            875      0.00023626 
            885     0.000308993 
            895     0.000400224 
            905     0.000513008 
            915        0.234742 
            925        0.745379 
            935        0.978253 
            945         1.29042 
            955         1.74745 
            965         2.24377 
            975         2.74035 
            985         3.51015 
            995         4.28509 
           1005         5.56054 
           1015         6.88314 
           1025         8.02924 
           1035         10.3556 
           1045         12.7209 
           1055         15.5149 
           1065         18.5783 
           1075         22.7281 
           1085         27.5533 
           1095         32.6324 
           1105         85.5599 
           1115         254.366 
           1125         359.487 
           1135         499.342 
           1145         618.962 
           1155         674.853 
           1165         896.312 
           1175         1048.83 
           1185         1099.77 
           1195         675.041 
           1205          644.71 
           1215          182.74 
           1225         734.793 
           1235         1597.69 
           1245         3149.41 
           1255         6364.83 
           1265         6379.02 
           1275         9145.79 
           1285           12523 
           1295         14878.9 
           1305         13606.1 
           1315         18500.7 
           1325         21385.7 
           1335         23526.8 
           1345         27974.2 
           1355           28794 
           1365         31877.6 
           1375         34488.2 
           1385         36676.7 
           1395         41519.1 
           1405         45800.5 
           1415         48064.3 
           1425         52983.8 
           1435         53802.9 
           1442         61822.5 
           1447           64721 
           1455           71382 
           1465           72454 
           1475         79031.6 
           1485         86372.4 
           1495         95804.5 
           1505          104655 
           1512          106384 
           1517          113918 
           1525          122259 
           1535          174357 
           1545          258768 
           1555          273586 
           1565          249843 
           1575          343421 
           1585          397870 
           1595          445970 
           1605          461240 
           1615          537718 
           1625          615222 
           1635      1.00255e+6 
           1645      2.19687e+6 
           1655      1.21228e+6 
           1665      2.89672e+6 
           1672      1.63961e+6 
           1677      4.41199e+6 
           1685      6.54401e+6 
           1695      4.47416e+6 
           1705      6.40862e+6 
           1715      1.02912e+7 
           1725      1.11059e+7 
           1735      1.45274e+7 
           1745      1.37143e+7 
           1755      1.74799e+7 
           1765      1.09251e+7 
           1775      1.58554e+7 
           1785      1.63746e+7 
           1795      2.12064e+7 
           1805      1.69608e+7 
           1815      1.81387e+7 
           1825      1.59927e+7 
           1835      1.54038e+7 
           1845      1.26974e+7 
           1855      1.55409e+7 
           1865      1.87919e+7 
           1875      1.78933e+7 
           1885      1.86561e+7 
           1895      2.00869e+7 
           1905      1.82727e+7 
           1915      2.03249e+7 
           1925      1.92562e+7 
           1935      1.29624e+7 
           1945      2.15211e+7 
           1955      2.21009e+7 
           1967      2.46704e+7 
           1976      2.38933e+7 
           1984      2.24147e+7 
           1995      2.23149e+7 
           2005      2.03142e+7 
           2015      2.02569e+7 
           2025      1.83614e+7 
           2035      2.19048e+7 
           2045      2.40062e+7 
           2055      2.27812e+7 
           2065      2.18437e+7 
           2074      2.57726e+7 
           2078      2.80264e+7 
           2085      2.66938e+7 
           2095      2.46293e+7 
           2105      2.27065e+7 
           2115      2.37648e+7 
           2125      2.45312e+7 
           2135      1.95199e+7 
           2145      2.38851e+7 
           2155      2.37653e+7 
           2165      2.16937e+7 
           2175      2.15313e+7 
           2185      2.34557e+7 
           2195      2.54983e+7 
           2205       2.4027e+7 
           2215      2.07622e+7 
           2225      2.07502e+7 
           2235      2.50757e+7 
           2245      2.24048e+7 
           2255      2.02559e+7 
           2265      2.01024e+7 
           2275      2.20704e+7 
           2285      2.38179e+7 
           2295      2.10236e+7 
           2305      2.23583e+7 
           2315       2.1509e+7 
           2325      2.09648e+7 
           2335        1.782e+7 
           2345      1.40812e+7 
           2355      2.07166e+7 
           2365      1.49467e+7 
           2375      1.80035e+7 
           2385      1.26472e+7 
           2395      1.51217e+7 
           2405      1.48249e+7 
           2415      1.53095e+7 
           2425      1.96634e+7 
           2435      1.87837e+7 
           2445      2.08751e+7 
           2455      2.07172e+7 
           2465      2.07429e+7 
           2475      1.87349e+7 
           2485      1.87431e+7 
           2495      1.76272e+7 
           2505      2.26733e+7 
           2513      1.78696e+7 
           2518      1.78723e+7 
           2525      1.58914e+7 
           2535      1.46208e+7 
           2545      1.37471e+7 
           2555      1.64022e+7 
           2565       1.6282e+7 
           2575      1.95676e+7 
           2585      1.98636e+7 
           2595      1.92929e+7 
           2605      1.77694e+7 
           2615      1.65237e+7 
           2625      2.07068e+7 
           2635      2.17485e+7 
           2645      2.65777e+7 
           2655      2.77937e+7 
           2665      2.25235e+7 
           2675      2.50173e+7 
           2685      2.51281e+7 
           2695      2.24585e+7 
           2705      2.41632e+7 
           2715      2.14997e+7 
           2725      2.20296e+7 
           2735       2.4317e+7 
           2745       1.7391e+7 
           2755       1.9164e+7 
           2765      2.08227e+7 
           2775      2.38622e+7 
           2785      2.07433e+7 
           2795       9.5812e+6 
           2805      1.24452e+7 
           2815      2.48214e+7 
           2825      2.72697e+7 
           2835      2.57366e+7 
           2845      2.42109e+7 
           2855       2.1249e+7 
           2865      2.57122e+7 
           2875       2.5251e+7 
           2885      2.53411e+7 
           2895      2.40259e+7 
           2910      2.84555e+7 
           2930      2.66821e+7 
           2950      2.64453e+7 
           2970       2.7803e+7 
           2990      2.78195e+7 
           3010      2.84062e+7 
           3030        2.811e+7 
           3050      2.81248e+7 
           3070      2.85422e+7 
           3090      2.89425e+7 
           3110      2.80484e+7 
           3130      2.78768e+7 
           3150      2.87381e+7 
           3170      2.85877e+7 
           3190        2.657e+7 
           3210      2.75422e+7 
           3230       2.5973e+7 
           3250       2.7325e+7 
           3270      2.82263e+7 
           3290      2.82816e+7 
           3310      2.88246e+7 
           3330       2.8141e+7 
           3350       2.7757e+7 
           3370      2.72693e+7 
           3390      2.74615e+7 
           3410      2.74662e+7 
           3430      2.76323e+7 
           3450      2.74974e+7 
           3470      2.71575e+7 
           3490      2.72044e+7 
           3510      2.76961e+7 
           3530      2.73345e+7 
           3550      2.82351e+7 
           3570      2.67325e+7 
           3590      2.64685e+7 
           3610      2.65984e+7 
           3630      2.68024e+7 
           3640      2.64529e+7 
           3650      2.78363e+7 
           3670      2.75499e+7 
           3690      2.65568e+7 
           3710      2.66167e+7 
           3730      2.58668e+7 
           3750      3.04598e+7 
           3770      3.22978e+7 
           3790      3.85644e+7 
           3810      4.43217e+7 
           3830      3.53901e+7 
           3850        4.872e+7 
           3870      5.41868e+7 
           3890      3.32935e+7 
           3910      5.39832e+7 
           3930      4.66738e+7 
           3950      5.35015e+7 
           3970      3.07533e+7 
           3990      5.36954e+7 
           4010      6.07308e+7 
           4030      6.10319e+7 
           4050      6.01389e+7 
           4070      5.70999e+7 
           4090      4.61338e+7 
           4110      3.60982e+7 
           4130      5.49559e+7 
           4150      5.86689e+7 
           4170      5.88723e+7 
           4190      5.82236e+7 
           4210      5.82669e+7 
           4230      5.64876e+7 
           4250      5.69896e+7 
           4270      5.48537e+7 
           4290       5.4851e+7 
           4310      5.00194e+7 
           4330      3.98272e+7 
           4350      3.42954e+7 
           4370      5.09969e+7 
           4390      5.28067e+7 
           4410       5.2387e+7 
           4430       5.1725e+7 
           4450      5.25053e+7 
           4470      5.23419e+7 
           4490      5.17608e+7 
           4510      5.30289e+7 
           4530      5.10141e+7 
           4550      5.03974e+7 
           4570      5.16853e+7 
           4590      4.99448e+7 
           4610      5.05867e+7 
           4630      4.93211e+7 
           4650      4.95023e+7 
           4670      4.94454e+7 
           4690      4.75585e+7 
           4710      4.57001e+7 
           4730      4.77864e+7 
           4750      4.75535e+7 
           4770      4.68161e+7 
           4790      4.61419e+7 
           4810      4.49644e+7 
           4830      4.25597e+7 
           4850      3.33975e+7 
           4870      2.70782e+7 
           4890      3.98422e+7 
           4910      4.23358e+7 
           4930       4.2117e+7 
           4950      4.28859e+7 
           4970      4.31164e+7 
           4990      4.16428e+7 
           5010      4.04315e+7 
           5030      4.13971e+7 
           5050      4.06399e+7 
           5070      4.11817e+7 
           5090      4.05577e+7 
           5110      4.05063e+7 
           5130       3.9723e+7 
           5150      3.88753e+7 
           5170      3.79888e+7 
           5190      3.76225e+7 
           5210      3.78338e+7 
           5230      3.74913e+7 
           5250      3.80263e+7 
           5270       3.5736e+7 
           5290      3.71262e+7 
           5310      3.67415e+7 
           5330        3.531e+7 
           5350      3.62021e+7 
           5370      3.57409e+7 
           5390      3.54308e+7 
           5410      3.46029e+7 
           5430      3.48366e+7 
           5450      3.48236e+7 
           5470      3.44146e+7 
           5490      3.41968e+7 
           5510      3.40197e+7 
           5530       3.3588e+7 
           5550      3.35653e+7 
           5570      3.29908e+7 
           5590       3.2602e+7 
           5610       3.2528e+7 
           5630      3.24887e+7 
           5650      3.21564e+7 
           5670      3.16557e+7 
           5690      3.15965e+7 
           5710      3.12831e+7 
           5730      3.14196e+7 
           5750      3.08972e+7 
           5770      3.07468e+7 
           5790      3.04223e+7 
           5810      3.02479e+7 
           5830       3.0064e+7 
           5850      2.96892e+7 
           5870      2.94643e+7 
           5890      2.87943e+7 
           5910      2.89848e+7 
           5930      2.87457e+7 
           5950      2.85177e+7 
           5970      2.83058e+7 
           5990      2.79869e+7 
           6010      2.76174e+7 
           6030      2.74645e+7 
           6050      2.73388e+7 
           6070       2.7209e+7 
           6090      2.68935e+7 
           6110      2.65926e+7 
           6130      2.61076e+7 
           6150      2.57498e+7 
           6170      2.55861e+7 
           6190      2.58251e+7 
           6210      2.56375e+7 
           6230      2.52742e+7 
           6250      2.46951e+7 
           6270      2.50275e+7 
           6290       2.4841e+7 
           6310      2.44283e+7 
           6330      2.43071e+7 
           6350      2.39543e+7 
           6370      2.38078e+7 
           6390      2.37476e+7 
           6410      2.33466e+7 
           6430      2.32726e+7 
           6450      2.28406e+7 
           6470      2.27698e+7 
           6490      2.23443e+7 
           6510      2.20837e+7 
           6530      2.12242e+7 
           6550      1.83164e+7 
           6570      1.47733e+7 
           6590      1.99364e+7 
           6610      2.10938e+7 
           6630      2.13172e+7 
           6650      2.12906e+7 
           6670      2.11411e+7 
           6690      2.10923e+7 
           6710      2.09241e+7 
           6730      2.07949e+7 
           6750      2.05272e+7 
           6770      2.05187e+7 
           6790      2.03481e+7 
           6810      2.01865e+7 
           6830      2.00063e+7 
           6850      1.98326e+7 
           6870      1.97357e+7 
           6890      1.95919e+7 
           6910      1.94321e+7 
           6930      1.92731e+7 
           6950      1.91366e+7 
           6970       1.8978e+7 
           6990      1.88596e+7 
           7010      1.85627e+7 
           7030      1.85076e+7 
           7050      1.84111e+7 
           7070      1.82777e+7 
           7090      1.81432e+7 
           7110      1.77037e+7 
           7130       1.7769e+7 
           7150      1.76572e+7 
           7170      1.75171e+7 
           7190      1.73491e+7 
           7210       1.7274e+7 
           7230      1.71468e+7 
           7250      1.69929e+7 
           7270      1.69423e+7 
           7290      1.67112e+7 
           7310      1.66523e+7 
           7330       1.6523e+7 
           7350      1.64569e+7 
           7370      1.63407e+7 
           7390      1.61406e+7 
           7410      1.59424e+7 
           7430      1.58301e+7 
           7450      1.57629e+7 
           7470      1.55969e+7 
           7490      1.55164e+7 
           7510      1.54652e+7 
           7530      1.53732e+7 
           7550      1.53097e+7 
           7570      1.51744e+7 
           7590      1.50749e+7 
           7610      1.49567e+7 
           7630       1.4861e+7 
           7650      1.47306e+7 
           7670      1.45392e+7 
           7690      1.44809e+7 
           7710      1.43843e+7 
           7730      1.43295e+7 
           7750       1.4186e+7 
           7770      1.38491e+7 
           7790      1.40494e+7 
           7810        1.393e+7 
           7830      1.37717e+7 
           7850      1.36466e+7 
           7870       1.3567e+7 
           7890      1.34553e+7 
           7910      1.33602e+7 
           7930      1.32139e+7 
           7950      1.31314e+7 
           7970      1.31723e+7 
           7990      1.29849e+7 
           8010       1.2953e+7 
           8030      1.28436e+7 
           8050      1.27734e+7 
           8070      1.26905e+7 
           8090      1.25864e+7 
           8110      1.25399e+7 
           8130      1.24703e+7 
           8150      1.23779e+7 
           8170      1.22932e+7 
           8190      1.20299e+7 
           8210      1.19965e+7 
           8230      1.19099e+7 
           8250      1.18555e+7 
           8270      1.19046e+7 
           8290      1.18132e+7 
           8310      1.17019e+7 
           8330      1.15295e+7 
           8350      1.15662e+7 
           8370      1.15207e+7 
           8390      1.13963e+7 
           8410       1.1356e+7 
           8430      1.12449e+7 
           8450      1.10255e+7 
           8470      1.10245e+7 
           8490      1.10076e+7 
           8510      1.05679e+7 
           8530      1.08824e+7 
           8550      9.84874e+6 
           8570      1.08733e+7 
           8590      1.03964e+7 
           8610      1.02237e+7 
           8630      1.07469e+7 
           8650      1.04204e+7 
           8670      8.97709e+6 
           8690      1.03097e+7 
           8710      1.06483e+7 
           8730       1.0295e+7 
           8750      8.67394e+6 
           8770      9.92116e+6 
           8790      1.04807e+7 
           8810      1.04817e+7 
           8830      1.01849e+7 
           8850      9.30779e+6 
           8870      8.14348e+6 
           8890      9.80767e+6 
           8910      1.01751e+7 
           8930      1.02118e+7 
           8950      1.02551e+7 
           8970      1.00413e+7 
           8990      9.57624e+6 
           9010      7.85014e+6 
           9030      8.52552e+6 
           9050       9.5679e+6 
           9070      9.61734e+6 
           9090      9.53358e+6 
           9110      9.74914e+6 
           9130       9.7928e+6 
           9150      9.73699e+6 
           9170      9.57136e+6 
           9190      9.28797e+6 
           9210      8.59969e+6 
           9230      6.91745e+6 
           9250      8.28287e+6 
           9270      8.85392e+6 
           9290      9.21481e+6 
           9310       9.2661e+6 
           9330      9.23853e+6 
           9350        9.215e+6 
           9370      9.17742e+6 
