# Kurucz ODFNEW /NOVER (2003)
# teff = 7500 K (value for the effective temperature for the model. Temperatures are given in K)
# logg = 4 log(cm/s2) (value for Log(G) for the model.)
# meta = -2  (value for the Metallicity for the model.)
# lh = 1.25  (l/Hp where l is the  mixing length of the convective element and Hp is the pressure scale height)
# vtur = 2 km/s (Microturbulence velocity)
# alpha = 0.4  (Alpha)
#
# column 1: WAVELENGTH (ANGSTROM), Wavelength in Angstrom
# column 2: FLUX (ERG/CM2/S/A), Flux in erg/cm2/s/A
            328     3.92088e-23 
            338     4.85833e-22 
            348      4.6413e-21 
            357     3.15338e-20 
            366     1.94285e-19 
            375     1.09371e-18 
            385     2.34125e-19 
            395      1.2009e-18 
            405     5.65353e-18 
            414     2.13004e-17 
            422     6.57971e-17 
            430     1.94341e-16 
            441     8.04439e-16 
            451     2.74211e-15 
            460     7.87393e-15 
            470     2.41659e-14 
            480     7.04896e-14 
            490     1.96226e-13 
            500     5.22087e-13 
            506     1.22058e-12 
            512     2.39063e-12 
            520      4.8738e-12 
            530     1.15745e-11 
            540      2.6101e-11 
            550     5.77174e-11 
            560     1.22966e-10 
            570     2.54411e-10 
            580      5.0611e-10 
            590      1.00355e-9 
            600       1.9187e-9 
            610      3.58283e-9 
            620      6.54141e-9 
            630       1.1691e-8 
            640      2.04847e-8 
            650      3.52084e-8 
            658      5.35827e-8 
            665       7.6657e-8 
            675      1.26019e-7 
            685       2.0377e-7 
            695      3.24423e-7 
            705      5.08741e-7 
            716      8.20983e-7 
            726      1.25039e-6 
            735      1.80594e-6 
            745      2.68538e-6 
            755      3.94531e-6 
            765       5.7293e-6 
            775      8.22924e-6 
            785      1.16939e-5 
            795      1.64395e-5 
            805      2.29058e-5 
            815      3.16051e-5 
            825       4.3216e-5 
            835      5.85876e-5 
            845      7.87569e-5 
            855     0.000105022 
            865     0.000138945 
            875     0.000182429 
            885     0.000237853 
            895      0.00030793 
            905     0.000395913 
            915        0.486512 
            925         3.75525 
            935         6.75525 
            945         11.9457 
            955          17.123 
            965         22.4454 
            975         18.4607 
            985         36.9299 
            995         44.3045 
           1005         54.6281 
           1015         55.5061 
           1025         42.6527 
           1035         83.0741 
           1045         118.771 
           1055          141.78 
           1065         171.102 
           1075         207.402 
           1085         249.906 
           1095         287.348 
           1105         426.427 
           1115         617.355 
           1125         701.293 
           1135         860.302 
           1145         963.702 
           1155         991.819 
           1165         1099.72 
           1175         1085.14 
           1185         1348.68 
           1195         756.427 
           1205         475.989 
           1215         158.909 
           1225         539.453 
           1235         1274.57 
           1245         1111.12 
           1255         2167.54 
           1265         3403.51 
           1275         4257.38 
           1285         5555.72 
           1295         6838.54 
           1305         8046.58 
           1315         9851.64 
           1325         11773.2 
           1335         13826.7 
           1345         16601.1 
           1355         19137.2 
           1365         22702.1 
           1375         25455.7 
           1385         27567.9 
           1395         31464.1 
           1405         36088.5 
           1415         45371.8 
           1425         49570.1 
           1435         53810.3 
           1442         66183.3 
           1447         61705.4 
           1455         69018.8 
           1465         69798.2 
           1475         76274.9 
           1485         84980.1 
           1495         95443.8 
           1505          105639 
           1512          111451 
           1517         98800.1 
           1525          102164 
           1535          110808 
           1545          113818 
           1555          114231 
           1565          108686 
           1575          119853 
           1585          126303 
           1595          134530 
           1605          141145 
           1615          163707 
           1625          216340 
           1635          422739 
           1645      1.20731e+6 
           1655      1.71803e+6 
           1665      4.13037e+6 
           1672      4.33573e+6 
           1677       6.0914e+6 
           1685      7.44682e+6 
           1695      7.85644e+6 
           1705      9.14316e+6 
           1715      1.08092e+7 
           1725      1.12108e+7 
           1735      1.25563e+7 
           1745      1.23856e+7 
           1755      1.35646e+7 
           1765      1.18947e+7 
           1775      1.35871e+7 
           1785      1.39188e+7 
           1795      1.50071e+7 
           1805      1.41324e+7 
           1815      1.45032e+7 
           1825      1.38018e+7 
           1835      1.47202e+7 
           1845      1.35728e+7 
           1855      1.44768e+7 
           1865      1.51711e+7 
           1875      1.52337e+7 
           1885      1.54679e+7 
           1895      1.58255e+7 
           1905      1.51801e+7 
           1915      1.61911e+7 
           1925      1.67593e+7 
           1935      1.59577e+7 
           1945      1.72121e+7 
           1955      1.72001e+7 
           1967      1.78059e+7 
           1976      1.72021e+7 
           1984      1.72216e+7 
           1995      1.73351e+7 
           2005      1.68796e+7 
           2015      1.70892e+7 
           2025      1.62603e+7 
           2035      1.77147e+7 
           2045      1.81742e+7 
           2055      1.77159e+7 
           2065      1.77656e+7 
           2074      1.87529e+7 
           2078      1.88134e+7 
           2085      1.86214e+7 
           2095      1.83317e+7 
           2105      1.81349e+7 
           2115      1.84431e+7 
           2125      1.85827e+7 
           2135      1.72776e+7 
           2145      1.86374e+7 
           2155       1.8348e+7 
           2165       1.7728e+7 
           2175      1.78553e+7 
           2185      1.83858e+7 
           2195      1.92359e+7 
           2205      1.87248e+7 
           2215      1.77084e+7 
           2225      1.82847e+7 
           2235      1.96909e+7 
           2245      1.86854e+7 
           2255      1.80133e+7 
           2265       1.7555e+7 
           2275      1.87155e+7 
           2285      1.90312e+7 
           2295      1.81311e+7 
           2305      1.86244e+7 
           2315      1.87253e+7 
           2325      1.86977e+7 
           2335      1.86063e+7 
           2345      1.71175e+7 
           2355      1.90388e+7 
           2365       1.7723e+7 
           2375      1.85899e+7 
           2385      1.67071e+7 
           2395      1.81448e+7 
           2405       1.7905e+7 
           2415      1.79986e+7 
           2425      1.89293e+7 
           2435      1.83357e+7 
           2445      1.88591e+7 
           2455      1.86733e+7 
           2465      1.85438e+7 
           2475      1.79299e+7 
           2485      1.83062e+7 
           2495      1.79867e+7 
           2505      1.93521e+7 
           2513      1.81613e+7 
           2518      1.78082e+7 
           2525      1.70714e+7 
           2535      1.68397e+7 
           2545      1.68873e+7 
           2555      1.81289e+7 
           2565       1.8297e+7 
           2575      1.92205e+7 
           2585      1.94684e+7 
           2595      1.95038e+7 
           2605      1.89102e+7 
           2615      1.86843e+7 
           2625      1.93181e+7 
           2635      1.94446e+7 
           2645      2.09123e+7 
           2655      2.09116e+7 
           2665      1.99615e+7 
           2675      2.03753e+7 
           2685      2.08363e+7 
           2695      2.00465e+7 
           2705      2.01642e+7 
           2715      1.94155e+7 
           2725      1.95036e+7 
           2735      2.00507e+7 
           2745      1.84359e+7 
           2755      1.88379e+7 
           2765      1.95765e+7 
           2775      2.01524e+7 
           2785      1.97525e+7 
           2795      1.47764e+7 
           2805      1.66013e+7 
           2815      2.07742e+7 
           2825        2.066e+7 
           2835      2.02904e+7 
           2845      1.99153e+7 
           2855      1.88831e+7 
           2865       1.9965e+7 
           2875      1.98441e+7 
           2885       2.0226e+7 
           2895      2.03216e+7 
           2910      2.10006e+7 
           2930      2.04937e+7 
           2950      2.03298e+7 
           2970      2.04571e+7 
           2990      2.04856e+7 
           3010       2.0534e+7 
           3030      2.05905e+7 
           3050      2.05526e+7 
           3070      2.04339e+7 
           3090      2.05309e+7 
           3110      2.04247e+7 
           3130      2.04729e+7 
           3150      2.05778e+7 
           3170      2.05653e+7 
           3190      2.00343e+7 
           3210      2.02073e+7 
           3230       1.9834e+7 
           3250      2.01542e+7 
           3270      2.03597e+7 
           3290      2.05014e+7 
           3310      2.05177e+7 
           3330      2.01915e+7 
           3350      1.99609e+7 
           3370      2.00302e+7 
           3390      1.99283e+7 
           3410      2.01413e+7 
           3430       2.0145e+7 
           3450       1.9972e+7 
           3470      1.99051e+7 
           3490       1.9938e+7 
           3510      2.00072e+7 
           3530      1.99861e+7 
           3550      2.00473e+7 
           3570      1.97264e+7 
           3590      1.96761e+7 
           3610      1.96718e+7 
           3630      1.96992e+7 
           3640      1.96559e+7 
           3650      1.98204e+7 
           3670      1.98122e+7 
           3690      1.89509e+7 
           3710      1.98619e+7 
           3730      2.03714e+7 
           3750      2.50328e+7 
           3770      2.61526e+7 
           3790       3.0392e+7 
           3810      3.44079e+7 
           3830      2.82478e+7 
           3850      3.71837e+7 
           3870      4.03446e+7 
           3890      2.63226e+7 
           3910      4.02798e+7 
           3930      4.01733e+7 
           3950      4.04871e+7 
           3970      2.54254e+7 
           3990      3.93528e+7 
           4010      4.25692e+7 
           4030       4.2723e+7 
           4050      4.22677e+7 
           4070      4.06411e+7 
           4090      3.41707e+7 
           4110      2.74628e+7 
           4130      3.94622e+7 
           4150      4.06971e+7 
           4170      4.07561e+7 
           4190      4.04516e+7 
           4210      4.00916e+7 
           4230      3.95323e+7 
           4250      3.94322e+7 
           4270      3.89439e+7 
           4290       3.8424e+7 
           4310      3.66851e+7 
           4330      3.00738e+7 
           4350       2.6266e+7 
           4370       3.6095e+7 
           4390      3.68341e+7 
           4410      3.68708e+7 
           4430      3.68976e+7 
           4450      3.65705e+7 
           4470      3.64193e+7 
           4490      3.61124e+7 
           4510      3.59243e+7 
           4530      3.55399e+7 
           4550      3.51845e+7 
           4570      3.50702e+7 
           4590      3.47956e+7 
           4610      3.46344e+7 
           4630      3.43077e+7 
           4650      3.40829e+7 
           4670      3.38314e+7 
           4690      3.35212e+7 
           4710      3.30775e+7 
           4730      3.30054e+7 
           4750      3.26997e+7 
           4770      3.23896e+7 
           4790      3.20245e+7 
           4810      3.15145e+7 
           4830      3.03982e+7 
           4850       2.5529e+7 
           4870      2.13916e+7 
           4890      2.91542e+7 
           4910       3.0186e+7 
           4930      3.01199e+7 
           4950      3.01107e+7 
           4970      2.99908e+7 
           4990      2.97645e+7 
           5010      2.94463e+7 
           5030      2.93481e+7 
           5050      2.91013e+7 
           5070      2.89118e+7 
           5090      2.86836e+7 
           5110      2.84696e+7 
           5130      2.82308e+7 
           5150      2.79935e+7 
           5170      2.74306e+7 
           5190      2.73063e+7 
           5210      2.73164e+7 
           5230      2.70597e+7 
           5250      2.69769e+7 
           5270      2.65975e+7 
           5290      2.65557e+7 
           5310      2.63426e+7 
           5330      2.60498e+7 
           5350      2.59568e+7 
           5370      2.57246e+7 
           5390      2.55366e+7 
           5410      2.53031e+7 
           5430      2.51414e+7 
           5450      2.49546e+7 
           5470      2.47863e+7 
           5490      2.46036e+7 
           5510      2.44253e+7 
           5530      2.42218e+7 
           5550      2.40671e+7 
           5570      2.38679e+7 
           5590      2.36576e+7 
           5610      2.35024e+7 
           5630        2.335e+7 
           5650       2.3172e+7 
           5670      2.29901e+7 
           5690      2.28264e+7 
           5710      2.26518e+7 
           5730      2.24939e+7 
           5750      2.23206e+7 
           5770      2.21582e+7 
           5790      2.19942e+7 
           5810      2.18318e+7 
           5830      2.16712e+7 
           5850      2.15057e+7 
           5870      2.13485e+7 
           5890      2.10778e+7 
           5910      2.10367e+7 
           5930      2.08822e+7 
           5950      2.07293e+7 
           5970       2.0578e+7 
           5990      2.04261e+7 
           6010      2.02757e+7 
           6030      2.01259e+7 
           6050      1.99828e+7 
           6070      1.98401e+7 
           6090      1.96947e+7 
           6110      1.95489e+7 
           6130      1.93904e+7 
           6150      1.92496e+7 
           6170      1.90923e+7 
           6190      1.89908e+7 
           6210       1.8855e+7 
           6230      1.87128e+7 
           6250      1.85643e+7 
           6270      1.84518e+7 
           6290      1.83194e+7 
           6310      1.81836e+7 
           6330      1.80547e+7 
           6350      1.79188e+7 
           6370      1.77953e+7 
           6390      1.76739e+7 
           6410      1.75372e+7 
           6430      1.74155e+7 
           6450      1.72334e+7 
           6470      1.71019e+7 
           6490      1.69313e+7 
           6510      1.67199e+7 
           6530      1.62801e+7 
           6550       1.4653e+7 
           6570      1.21149e+7 
           6590       1.5566e+7 
           6610      1.60531e+7 
           6630      1.61038e+7 
           6650      1.60514e+7 
           6670      1.59663e+7 
           6690      1.58878e+7 
           6710      1.57882e+7 
           6730      1.56787e+7 
           6750      1.55661e+7 
           6770      1.54636e+7 
           6790      1.53555e+7 
           6810      1.52492e+7 
           6830      1.51438e+7 
           6850      1.50395e+7 
           6870      1.49361e+7 
           6890      1.48344e+7 
           6910      1.47321e+7 
           6930      1.46307e+7 
           6950       1.4531e+7 
           6970      1.44322e+7 
           6990      1.43336e+7 
           7010       1.4232e+7 
           7030      1.41381e+7 
           7050      1.40436e+7 
           7070      1.39477e+7 
           7090      1.38542e+7 
           7110      1.37532e+7 
           7130      1.36658e+7 
           7150      1.35718e+7 
           7170      1.34815e+7 
           7190      1.33898e+7 
           7210      1.33004e+7 
           7230      1.32125e+7 
           7250      1.31247e+7 
           7270      1.30376e+7 
           7290       1.2947e+7 
           7310      1.28636e+7 
           7330       1.2776e+7 
           7350       1.2694e+7 
           7370      1.26106e+7 
           7390      1.25252e+7 
           7410      1.24364e+7 
           7430      1.23573e+7 
           7450      1.22781e+7 
           7470      1.21962e+7 
           7490      1.21151e+7 
           7510      1.20373e+7 
           7530      1.19595e+7 
           7550      1.18817e+7 
           7570      1.18032e+7 
           7590      1.17267e+7 
           7610      1.16495e+7 
           7630      1.15736e+7 
           7650      1.14977e+7 
           7670      1.14206e+7 
           7690      1.13472e+7 
           7710      1.12745e+7 
           7730      1.12023e+7 
           7750      1.11289e+7 
           7770      1.10112e+7 
           7790      1.09876e+7 
           7810      1.09166e+7 
           7830      1.08455e+7 
           7850      1.07757e+7 
           7870      1.07058e+7 
           7890      1.06358e+7 
           7910      1.05707e+7 
           7930      1.04982e+7 
           7950      1.04324e+7 
           7970        1.037e+7 
           7990      1.03016e+7 
           8010      1.02385e+7 
           8030       1.0173e+7 
           8050      1.01085e+7 
           8070      1.00457e+7 
           8090      9.98117e+6 
           8110      9.91883e+6 
           8130      9.85698e+6 
           8150      9.79505e+6 
           8170      9.73304e+6 
           8190      9.66254e+6 
           8210       9.6144e+6 
           8230      9.55494e+6 
           8250      9.49593e+6 
           8270      9.44841e+6 
           8290      9.39246e+6 
           8310      9.33421e+6 
           8330      9.26664e+6 
           8350       9.2196e+6 
           8370      9.15784e+6 
           8390      9.09336e+6 
           8410      9.03099e+6 
           8430      8.97918e+6 
           8450      8.91245e+6 
           8470      8.78954e+6 
           8490      8.85062e+6 
           8510      8.55157e+6 
           8530      8.77868e+6 
           8550      8.23005e+6 
           8570      8.74155e+6 
           8590      8.39609e+6 
           8610      8.23466e+6 
           8630      8.67252e+6 
           8650      8.47336e+6 
           8670      7.53269e+6 
           8690      8.49331e+6 
           8710      8.58595e+6 
           8730      8.39342e+6 
           8750      7.22976e+6 
           8770       8.1353e+6 
           8790      8.43476e+6 
           8810      8.42029e+6 
           8830      8.31551e+6 
           8850      7.80563e+6 
           8870       6.9148e+6 
           8890      8.03204e+6 
           8910      8.19391e+6 
           8930      8.19976e+6 
           8950      8.16833e+6 
           8970       8.0692e+6 
           8990      7.83197e+6 
           9010      6.70947e+6 
           9030      7.21017e+6 
           9050      7.77354e+6 
           9070      7.84234e+6 
           9090      7.81562e+6 
           9110      7.82219e+6 
           9130      7.79067e+6 
           9150       7.7364e+6 
           9170      7.66147e+6 
           9190       7.5336e+6 
           9210      7.19402e+6 
           9230      6.04763e+6 
           9250      7.01922e+6 
           9270      7.32697e+6 
           9290      7.39498e+6 
           9310      7.38802e+6 
           9330      7.36027e+6 
           9350      7.32494e+6 
           9370      7.28641e+6 
