# Kurucz ODFNEW /NOVER (2003)
# teff = 21000 K (value for the effective temperature for the model. Temperatures are given in K)
# logg = 4.5 log(cm/s2) (value for Log(G) for the model.)
# meta = 0  (value for the Metallicity for the model.)
# lh = 1.25  (l/Hp where l is the  mixing length of the convective element and Hp is the pressure scale height)
# vtur = 2 km/s (Microturbulence velocity)
# alpha = 0.4  (Alpha)
#
# column 1: WAVELENGTH (ANGSTROM), Wavelength in Angstrom
# column 2: FLUX (ERG/CM2/S/A), Flux in erg/cm2/s/A
          147.2     3.68213e-18 
            151     1.96519e-17 
          155.2     1.13855e-16 
          158.8      4.7695e-16 
            162      1.6188e-15 
            166     6.98773e-15 
          170.3     3.11442e-14 
          173.4     8.78877e-14 
          176.8     2.62484e-13 
          180.2     7.53353e-13 
          181.7     1.18502e-12 
          186.1     4.29799e-12 
            191     1.68863e-11 
          193.9     3.67148e-11 
          198.4     1.17385e-10 
          201.8     2.73588e-10 
            205     5.92207e-10 
          210.5        2.116e-9 
          216.2      7.41854e-9 
          219.8      1.58647e-8 
            223      3.05518e-8 
          226.8      6.50393e-8 
            230      5.55266e-7 
            234      1.37073e-6 
            240       3.9344e-6 
          246.5      1.15389e-5 
          252.4      2.93917e-5 
          256.8      5.60853e-5 
            260      9.17749e-5 
            264     0.000162327 
          268.5     0.000301724 
          273.5     0.000584668 
          278.5      0.00111461 
            284      0.00223088 
            290      0.00453509 
            296      0.00894225 
            301       0.0154445 
            308       0.0321561 
            318       0.0882962 
            328         0.22002 
            338        0.535792 
            348         1.21809 
            357         2.68838 
            366         5.29394 
            375         9.75357 
            385         18.8656 
            395         35.1051 
            405           63.15 
            414          105.26 
            422         159.958 
            430         241.624 
            441         415.683 
            451         666.219 
            460         990.446 
            470         1520.75 
            480         2280.82 
            490         3375.34 
            500            4913 
            506         41758.1 
            512          233171 
            520          292202 
            530          405135 
            540          461842 
            550          681326 
            560          827507 
            570      1.06605e+6 
            580       1.1053e+6 
            590      1.52077e+6 
            600      1.86732e+6 
            610      2.32102e+6 
            620      2.67053e+6 
            630      3.12138e+6 
            640      3.35212e+6 
            650      3.24433e+6 
            658      4.47214e+6 
            665       5.0422e+6 
            675      5.63054e+6 
            685      6.30033e+6 
            695      7.66632e+6 
            705      8.42406e+6 
            716      9.72658e+6 
            726      1.06748e+7 
            735      1.17177e+7 
            745      1.34259e+7 
            755      1.49667e+7 
            765      1.66013e+7 
            775      1.84706e+7 
            785      2.03678e+7 
            795      2.18804e+7 
            805       2.3797e+7 
            815      2.56679e+7 
            825      2.83422e+7 
            835      2.87211e+7 
            845      3.20826e+7 
            855      3.45435e+7 
            865      3.75065e+7 
            875        4.066e+7 
            885      4.45312e+7 
            895      4.76941e+7 
            905      4.87525e+7 
            915      7.27203e+7 
            925      3.12831e+8 
            935      9.07926e+8 
            945      3.14537e+9 
            955      6.14812e+9 
            965      8.57287e+9 
            975      1.35827e+9 
            985     1.03806e+10 
            995      9.79852e+9 
           1005     1.18906e+10 
           1015     1.04649e+10 
           1025      2.13242e+9 
           1035      6.92354e+9 
           1045     1.45862e+10 
           1055     1.38601e+10 
           1065     1.05427e+10 
           1075     1.30464e+10 
           1085     1.17167e+10 
           1095     1.33524e+10 
           1105     1.10271e+10 
           1115      9.91804e+9 
           1125       9.1948e+9 
           1135     1.23191e+10 
           1145     1.02195e+10 
           1155     1.12311e+10 
           1165     1.15901e+10 
           1175      8.12494e+9 
           1185     1.14806e+10 
           1195      7.63655e+9 
           1205      3.62687e+9 
           1215      1.87897e+9 
           1225      5.87704e+9 
           1235     1.01954e+10 
           1245      1.0731e+10 
           1255     1.03875e+10 
           1265      9.68035e+9 
           1275     1.02939e+10 
           1285     1.05748e+10 
           1295      5.97951e+9 
           1305      5.50464e+9 
           1315      9.86515e+9 
           1325      9.27905e+9 
           1335       8.4931e+9 
           1345      9.16258e+9 
           1355      9.02456e+9 
           1365      7.92512e+9 
           1375      7.94158e+9 
           1385      8.00054e+9 
           1395      6.29978e+9 
           1405      6.79211e+9 
           1415      7.11905e+9 
           1425      7.31521e+9 
           1435      7.34771e+9 
           1442       7.7197e+9 
           1447      7.58332e+9 
           1455      7.37719e+9 
           1465      6.86713e+9 
           1475      6.80602e+9 
           1485      6.59577e+9 
           1495      6.60913e+9 
           1505      5.95525e+9 
           1512       5.4502e+9 
           1517      5.71784e+9 
           1525      5.86746e+9 
           1535       5.1773e+9 
           1545      5.28031e+9 
           1555      5.01397e+9 
           1565      5.16529e+9 
           1575      5.47654e+9 
           1585      5.43959e+9 
           1595      5.49096e+9 
           1605      5.44702e+9 
           1615       5.4104e+9 
           1625      5.21219e+9 
           1635      5.44908e+9 
           1645      5.40948e+9 
           1655      5.12287e+9 
           1665      5.42571e+9 
           1672       5.2188e+9 
           1677       5.3817e+9 
           1685      5.38936e+9 
           1695      5.10357e+9 
           1705      4.84832e+9 
           1715      4.57638e+9 
           1725       4.5198e+9 
           1735       4.7124e+9 
           1745      4.55981e+9 
           1755      4.64658e+9 
           1765      4.38111e+9 
           1775       4.3112e+9 
           1785      4.31423e+9 
           1795      4.51136e+9 
           1805      4.50048e+9 
           1815       4.0654e+9 
           1825      4.23668e+9 
           1835      4.02862e+9 
           1845      3.71049e+9 
           1855      3.63611e+9 
           1865       3.6843e+9 
           1875      3.93518e+9 
           1885      3.54811e+9 
           1895      3.32151e+9 
           1905      3.58311e+9 
           1915      3.36837e+9 
           1925      3.25346e+9 
           1935      3.39328e+9 
           1945      3.41584e+9 
           1955      3.16117e+9 
           1967      3.41726e+9 
           1976      3.54859e+9 
           1984      3.28066e+9 
           1995      3.20824e+9 
           2005       3.3002e+9 
           2015      3.17335e+9 
           2025      3.35918e+9 
           2035      3.08872e+9 
           2045      3.13047e+9 
           2055      3.00677e+9 
           2065      3.06041e+9 
           2074      3.15013e+9 
           2078      2.93133e+9 
           2085      3.04756e+9 
           2095      2.87442e+9 
           2105      2.94291e+9 
           2115      2.93578e+9 
           2125      2.97746e+9 
           2135       2.8855e+9 
           2145      2.78054e+9 
           2155      2.87713e+9 
           2165       2.8347e+9 
           2175      2.79404e+9 
           2185      2.71684e+9 
           2195      2.74797e+9 
           2205      2.69714e+9 
           2215      2.64382e+9 
           2225      2.55352e+9 
           2235      2.58246e+9 
           2245      2.57169e+9 
           2255      2.47529e+9 
           2265      2.52251e+9 
           2275       2.4982e+9 
           2285      2.49976e+9 
           2295      2.37996e+9 
           2305      2.39076e+9 
           2315      2.32362e+9 
           2325      2.29433e+9 
           2335      2.19478e+9 
           2345      2.17994e+9 
           2355      2.18999e+9 
           2365      2.13427e+9 
           2375      2.13296e+9 
           2385      2.08849e+9 
           2395      2.11916e+9 
           2405      2.04745e+9 
           2415      2.04525e+9 
           2425      2.05654e+9 
           2435      1.98174e+9 
           2445      1.99934e+9 
           2455      1.99171e+9 
           2465      1.95097e+9 
           2475       1.9206e+9 
           2485      1.93068e+9 
           2495      1.83674e+9 
           2505      1.88958e+9 
           2513      1.80378e+9 
           2518      1.85895e+9 
           2525       1.8057e+9 
           2535      1.78404e+9 
           2545      1.72439e+9 
           2555      1.76972e+9 
           2565      1.74238e+9 
           2575      1.76393e+9 
           2585      1.75499e+9 
           2595      1.74048e+9 
           2605      1.71726e+9 
           2615      1.70162e+9 
           2625       1.6848e+9 
           2635      1.67263e+9 
           2645      1.68246e+9 
           2655      1.66842e+9 
           2665      1.61062e+9 
           2675      1.62409e+9 
           2685      1.61248e+9 
           2695       1.5705e+9 
           2705      1.56504e+9 
           2715      1.54418e+9 
           2725      1.51831e+9 
           2735      1.52878e+9 
           2745      1.46597e+9 
           2755      1.46318e+9 
           2765      1.45701e+9 
           2775      1.47172e+9 
           2785      1.45024e+9 
           2795      1.37883e+9 
           2805       1.4101e+9 
           2815      1.41612e+9 
           2825      1.38954e+9 
           2835      1.33973e+9 
           2845      1.34885e+9 
           2855      1.34418e+9 
           2865      1.34771e+9 
           2875      1.32745e+9 
           2885      1.31705e+9 
           2895      1.30414e+9 
           2910      1.28406e+9 
           2930      1.25505e+9 
           2950      1.22328e+9 
           2970      1.21165e+9 
           2990      1.18264e+9 
           3010      1.16174e+9 
           3030      1.14813e+9 
           3050      1.12474e+9 
           3070      1.10426e+9 
           3090      1.07553e+9 
           3110      1.05952e+9 
           3130      1.04237e+9 
           3150      1.02268e+9 
           3170      1.00127e+9 
           3190      9.72653e+8 
           3210      9.64738e+8 
           3230      9.47737e+8 
           3250      9.32292e+8 
           3270      9.16272e+8 
           3290      8.98901e+8 
           3310      8.84873e+8 
           3330      8.68126e+8 
           3350       8.5091e+8 
           3370      8.37125e+8 
           3390      8.23375e+8 
           3410      8.09436e+8 
           3430      7.92051e+8 
           3450      7.75741e+8 
           3470      7.63915e+8 
           3490      7.50669e+8 
           3510      7.39448e+8 
           3530      7.28734e+8 
           3550        7.166e+8 
           3570      7.08328e+8 
           3590      6.90022e+8 
           3610      6.80085e+8 
           3630      6.69066e+8 
           3640      6.68523e+8 
           3650      6.61245e+8 
           3670      6.53694e+8 
           3690      6.41896e+8 
           3710      6.18763e+8 
           3730      5.91675e+8 
           3750      6.16242e+8 
           3770      6.16268e+8 
           3790      6.62288e+8 
           3810      6.97941e+8 
           3830      5.98344e+8 
           3850      7.23976e+8 
           3870      7.42044e+8 
           3890      5.61605e+8 
           3910       7.4064e+8 
           3930      7.23657e+8 
           3950      7.15937e+8 
           3970      5.23853e+8 
           3990      6.82345e+8 
           4010      6.91814e+8 
           4030      6.41843e+8 
           4050      6.77642e+8 
           4070      6.50803e+8 
           4090      5.85269e+8 
           4110      5.02957e+8 
           4130      6.10099e+8 
           4150      6.11036e+8 
           4170      6.09608e+8 
           4190      6.04425e+8 
           4210      5.98185e+8 
           4230      5.86647e+8 
           4250      5.73713e+8 
           4270      5.55231e+8 
           4290      5.52871e+8 
           4310      5.37814e+8 
           4330      4.70387e+8 
           4350      4.25099e+8 
           4370      5.09121e+8 
           4390      4.93898e+8 
           4410      5.02949e+8 
           4430      4.94751e+8 
           4450      4.90847e+8 
           4470      4.56241e+8 
           4490      4.70704e+8 
           4510      4.70669e+8 
           4530      4.61106e+8 
           4550       4.5475e+8 
           4570      4.48127e+8 
           4590       4.4128e+8 
           4610      4.33418e+8 
           4630      4.26131e+8 
           4650      4.17595e+8 
           4670      4.14389e+8 
           4690      4.10382e+8 
           4710      3.93166e+8 
           4730      3.94395e+8 
           4750      3.88476e+8 
           4770      3.87493e+8 
           4790      3.80439e+8 
           4810      3.71175e+8 
           4830      3.62682e+8 
           4850      3.25567e+8 
           4870      2.87159e+8 
           4890      3.46762e+8 
           4910      3.45912e+8 
           4930      3.31564e+8 
           4950       3.3833e+8 
           4970      3.35079e+8 
           4990      3.29675e+8 
           5010      3.16151e+8 
           5030      3.19315e+8 
           5050      3.09494e+8 
           5070       3.1182e+8 
           5090      3.06989e+8 
           5110      3.01965e+8 
           5130      2.96767e+8 
           5150      2.92776e+8 
           5170      2.90614e+8 
           5190      2.86462e+8 
           5210      2.79465e+8 
           5230      2.79122e+8 
           5250      2.75455e+8 
           5270      2.71211e+8 
           5290      2.68438e+8 
           5310      2.64616e+8 
           5330      2.60392e+8 
           5350      2.56225e+8 
           5370      2.54437e+8 
           5390      2.51035e+8 
           5410      2.47394e+8 
           5430      2.43339e+8 
           5450      2.40503e+8 
           5470      2.36997e+8 
           5490      2.35074e+8 
           5510      2.31857e+8 
           5530      2.28717e+8 
           5550      2.26117e+8 
           5570      2.22991e+8 
           5590      2.20506e+8 
           5610        2.172e+8 
           5630      2.15208e+8 
           5650        2.101e+8 
           5670      2.07671e+8 
           5690      2.05981e+8 
           5710      2.04217e+8 
           5730      2.01911e+8 
           5750      1.99152e+8 
           5770      1.97095e+8 
           5790      1.94635e+8 
           5810      1.92047e+8 
           5830      1.89668e+8 
           5850      1.87459e+8 
           5870      1.78596e+8 
           5890      1.81403e+8 
           5910       1.8049e+8 
           5930      1.78472e+8 
           5950       1.7555e+8 
           5970      1.74376e+8 
           5990      1.71817e+8 
           6010      1.70362e+8 
           6030      1.68219e+8 
           6050      1.66295e+8 
           6070      1.64342e+8 
           6090      1.62239e+8 
           6110      1.60532e+8 
           6130      1.58715e+8 
           6150      1.55821e+8 
           6170      1.54843e+8 
           6190      1.53244e+8 
           6210      1.51447e+8 
           6230        1.497e+8 
           6250      1.47519e+8 
           6270      1.46158e+8 
           6290      1.44487e+8 
           6310      1.42607e+8 
           6330      1.41322e+8 
           6350      1.38733e+8 
           6370      1.37603e+8 
           6390      1.36429e+8 
           6410      1.34846e+8 
           6430      1.33671e+8 
           6450       1.3201e+8 
           6470      1.30386e+8 
           6490       1.2902e+8 
           6510      1.27197e+8 
           6530      1.25041e+8 
           6550      1.17218e+8 
           6570      1.02603e+8 
           6590      1.19166e+8 
           6610      1.20273e+8 
           6630      1.19455e+8 
           6650      1.18311e+8 
           6670      1.15621e+8 
           6690       1.1451e+8 
           6710      1.14573e+8 
           6730      1.13311e+8 
           6750      1.12227e+8 
           6770      1.11055e+8 
           6790      1.09324e+8 
           6810      1.08593e+8 
           6830      1.07376e+8 
           6850      1.06405e+8 
           6870      1.05292e+8 
           6890      1.04165e+8 
           6910      1.03074e+8 
           6930      1.01868e+8 
           6950      1.00979e+8 
           6970      9.99423e+7 
           6990      9.88624e+7 
           7010      9.78084e+7 
           7030      9.68105e+7 
           7050      9.57769e+7 
           7070      9.32235e+7 
           7090      9.39423e+7 
           7110      9.28333e+7 
           7130      9.19279e+7 
           7150       9.1009e+7 
           7170      9.01429e+7 
           7190      8.92705e+7 
           7210      8.83918e+7 
           7230      8.64765e+7 
           7250      8.65017e+7 
           7270      8.57556e+7 
           7290      8.42082e+7 
           7310      8.40512e+7 
           7330      8.32285e+7 
           7350      8.24275e+7 
           7370      8.16132e+7 
           7390      8.08133e+7 
           7410      8.00278e+7 
           7430      7.90993e+7 
           7450      7.84309e+7 
           7470      7.75321e+7 
           7490      7.68701e+7 
           7510      7.61607e+7 
           7530      7.54311e+7 
           7550      7.47412e+7 
           7570      7.40378e+7 
           7590      7.32884e+7 
           7610       7.2624e+7 
           7630      7.19396e+7 
           7650       7.1255e+7 
           7670      7.05829e+7 
           7690      6.99104e+7 
           7710      6.92566e+7 
           7730      6.85835e+7 
           7750      6.79603e+7 
           7770      6.66811e+7 
           7790       6.6693e+7 
           7810       6.6043e+7 
           7830      6.54664e+7 
           7850      6.46564e+7 
           7870      6.41092e+7 
           7890      6.33429e+7 
           7910      6.30892e+7 
           7930      6.25377e+7 
           7950      6.16989e+7 
           7970      6.13007e+7 
           7990      6.04277e+7 
           8010      6.01791e+7 
           8030       5.9611e+7 
           8050      5.90419e+7 
           8070      5.85761e+7 
           8090      5.79587e+7 
           8110       5.7467e+7 
           8130      5.69943e+7 
           8150      5.64721e+7 
           8170      5.60379e+7 
           8190      5.54237e+7 
           8210      5.48119e+7 
           8230      5.42816e+7 
           8250      5.40835e+7 
           8270      5.33331e+7 
           8290      5.31123e+7 
           8310      5.26371e+7 
           8330      5.22049e+7 
           8350      5.15104e+7 
           8370      5.11699e+7 
           8390      5.08604e+7 
           8410      5.04122e+7 
           8430      4.99156e+7 
           8450       4.8914e+7 
           8470       4.9022e+7 
           8490      4.84615e+7 
           8510      4.80134e+7 
           8530      4.76803e+7 
           8550      4.67031e+7 
           8570      4.73183e+7 
