# Kurucz ODFNEW /NOVER (2003)
# teff = 26000 K (value for the effective temperature for the model. Temperatures are given in K)
# logg = 4 log(cm/s2) (value for Log(G) for the model.)
# meta = -1.5  (value for the Metallicity for the model.)
# lh = 1.25  (l/Hp where l is the  mixing length of the convective element and Hp is the pressure scale height)
# vtur = 2 km/s (Microturbulence velocity)
# alpha = 0  (Alpha)
#
# column 1: WAVELENGTH (ANGSTROM), Wavelength in Angstrom
# column 2: FLUX (ERG/CM2/S/A), Flux in erg/cm2/s/A
          147.2     6.00132e-13 
            151     2.65103e-12 
          155.2     1.25873e-11 
          158.8     4.48028e-11 
            162     1.32102e-10 
            166     4.81083e-10 
          170.3       1.8031e-9 
          173.4      4.48591e-9 
          176.8      1.17316e-8 
          180.2      2.95657e-8 
          181.7      4.39605e-8 
          186.1      1.35558e-7 
            191      4.46208e-7 
          193.9      8.77173e-7 
          198.4      2.40312e-6 
          201.8       4.9897e-6 
            205      9.70218e-6 
          210.5      2.89955e-5 
          216.2      8.48121e-5 
          219.8     0.000162055 
            223     0.000282973 
          226.8     0.000537056 
            230       0.0243364 
            234       0.0568493 
            240        0.127983 
          246.5        0.296022 
          252.4        0.615959 
          256.8        0.952531 
            260         1.47554 
            264         2.26834 
          268.5         3.65446 
          273.5         6.06879 
          278.5          9.9027 
            284         16.6865 
            290         28.5598 
            296         47.7361 
            301         71.2784 
            308         116.815 
            318         265.764 
            328          529.25 
            338          1027.3 
            348         1895.81 
            357         3239.99 
            366         5360.31 
            375         8429.09 
            385         13839.3 
            395         21926.7 
            405         33868.3 
            414         49404.6 
            422         67248.3 
            430         90842.9 
            441          135469 
            451          191327 
            460          255272 
            470          349988 
            480          469816 
            490          623996 
            500          818723 
            506      5.28083e+6 
            512      1.66072e+7 
            520      1.90051e+7 
            530      2.32918e+7 
            540      2.44332e+7 
            550      3.17412e+7 
            560      3.56668e+7 
            570      4.14634e+7 
            580      4.11983e+7 
            590      5.09023e+7 
            600       5.7582e+7 
            610      6.51729e+7 
            620      7.15355e+7 
            630       7.9509e+7 
            640      8.40541e+7 
            650      9.25907e+7 
            658      1.01926e+8 
            665      1.08753e+8 
            675      1.14931e+8 
            685      1.22928e+8 
            695       1.3989e+8 
            705      1.47395e+8 
            716      1.62499e+8 
            726      1.72484e+8 
            735      1.83942e+8 
            745      1.99637e+8 
            755      2.13074e+8 
            765       2.2671e+8 
            775      2.42399e+8 
            785       2.5876e+8 
            795      2.71711e+8 
            805      2.87065e+8 
            815      3.00192e+8 
            825      3.19483e+8 
            835      3.23148e+8 
            845      3.47719e+8 
            855      3.63235e+8 
            865      3.82779e+8 
            875      4.03977e+8 
            885       4.2398e+8 
            895      4.41935e+8 
            905      4.54463e+8 
            915      6.61237e+8 
            925      4.79264e+9 
            935     1.19337e+10 
            945     2.62885e+10 
            955     3.19092e+10 
            965     3.95871e+10 
            975     1.60615e+10 
            985      3.9695e+10 
            995     3.73596e+10 
           1005     3.90222e+10 
           1015     3.68675e+10 
           1025     1.73698e+10 
           1035     3.31104e+10 
           1045     3.92797e+10 
           1055     3.77736e+10 
           1065      3.4158e+10 
           1075     3.56412e+10 
           1085     3.28143e+10 
           1095     3.49544e+10 
           1105     3.33403e+10 
           1115     3.28844e+10 
           1125     3.03348e+10 
           1135     3.18439e+10 
           1145     2.98361e+10 
           1155     3.03665e+10 
           1165     2.99113e+10 
           1175     2.46837e+10 
           1185     2.82475e+10 
           1195     2.67795e+10 
           1205     2.36017e+10 
           1215     1.19841e+10 
           1225     2.40713e+10 
           1235     2.56484e+10 
           1245     2.50655e+10 
           1255     2.47537e+10 
           1265     2.42556e+10 
           1275     2.41709e+10 
           1285     2.36684e+10 
           1295     2.15404e+10 
           1305     2.17389e+10 
           1315     2.22479e+10 
           1325     2.14348e+10 
           1335      2.0597e+10 
           1345     2.06428e+10 
           1355     2.05495e+10 
           1365     1.98138e+10 
           1375     1.94661e+10 
           1385     1.91512e+10 
           1395     1.75884e+10 
           1405     1.76538e+10 
           1415     1.78797e+10 
           1425     1.74177e+10 
           1435     1.73121e+10 
           1442     1.72653e+10 
           1447     1.70251e+10 
           1455     1.67149e+10 
           1465     1.62795e+10 
           1475     1.60094e+10 
           1485     1.57166e+10 
           1495     1.53928e+10 
           1505     1.48215e+10 
           1512     1.44188e+10 
           1517     1.44339e+10 
           1525      1.4232e+10 
           1535     1.33608e+10 
           1545     1.32466e+10 
           1555     1.27842e+10 
           1565     1.30053e+10 
           1575     1.30129e+10 
           1585     1.28265e+10 
           1595     1.26535e+10 
           1605     1.21712e+10 
           1615     1.19203e+10 
           1625     1.18714e+10 
           1635      1.1826e+10 
           1645     1.14322e+10 
           1655     1.14634e+10 
           1665      1.1322e+10 
           1672     1.10875e+10 
           1677     1.12676e+10 
           1685     1.10436e+10 
           1695     1.07644e+10 
           1705     1.04978e+10 
           1715     1.01956e+10 
           1725     1.00578e+10 
           1735     1.00044e+10 
           1745      9.81592e+9 
           1755      9.73752e+9 
           1765      9.41756e+9 
           1775      9.27144e+9 
           1785      9.21858e+9 
           1795      9.13533e+9 
           1805      9.05508e+9 
           1815      8.75625e+9 
           1825      8.68577e+9 
           1835      8.53822e+9 
           1845      8.08468e+9 
           1855      7.94837e+9 
           1865      7.97233e+9 
           1875      7.98471e+9 
           1885        7.518e+9 
           1895      7.21121e+9 
           1905      7.42149e+9 
           1915      7.14951e+9 
           1925      6.96217e+9 
           1935      7.06798e+9 
           1945       7.0894e+9 
           1955       6.6769e+9 
           1967      6.81788e+9 
           1976      6.90623e+9 
           1984       6.6199e+9 
           1995      6.42253e+9 
           2005      6.47867e+9 
           2015      6.47002e+9 
           2025      6.45441e+9 
           2035      6.21265e+9 
           2045      6.13357e+9 
           2055      5.89926e+9 
           2065      5.84306e+9 
           2074      5.95247e+9 
           2078      5.75963e+9 
           2085      5.77709e+9 
           2095      5.63949e+9 
           2105      5.68832e+9 
           2115      5.64257e+9 
           2125      5.62296e+9 
           2135      5.52421e+9 
           2145      5.39381e+9 
           2155      5.37396e+9 
           2165      5.31045e+9 
           2175      5.22677e+9 
           2185      5.16104e+9 
           2195      5.10912e+9 
           2205      5.03701e+9 
           2215       4.9699e+9 
           2225      4.89275e+9 
           2235      4.81785e+9 
           2245      4.77338e+9 
           2255      4.69535e+9 
           2265      4.64752e+9 
           2275      4.58615e+9 
           2285      4.53008e+9 
           2295      4.39342e+9 
           2305      4.40487e+9 
           2315      4.33941e+9 
           2325      4.28474e+9 
           2335      4.21827e+9 
           2345      4.17703e+9 
           2355      4.12763e+9 
           2365      4.07408e+9 
           2375      4.01747e+9 
           2385      3.96418e+9 
           2395      3.91413e+9 
           2405      3.86595e+9 
           2415      3.81308e+9 
           2425      3.77298e+9 
           2435       3.7188e+9 
           2445      3.67603e+9 
           2455      3.63395e+9 
           2465       3.5876e+9 
           2475        3.542e+9 
           2485      3.49714e+9 
           2495      3.35775e+9 
           2505      3.40802e+9 
           2513      3.33678e+9 
           2518      3.35272e+9 
           2525      3.32707e+9 
           2535      3.28662e+9 
           2545      3.22699e+9 
           2555      3.20225e+9 
           2565      3.16759e+9 
           2575       3.1323e+9 
           2585      3.09475e+9 
           2595      3.05791e+9 
           2605      3.03964e+9 
           2615      3.00382e+9 
           2625      2.96846e+9 
           2635       2.9292e+9 
           2645      2.89455e+9 
           2655      2.85798e+9 
           2665      2.81695e+9 
           2675      2.78361e+9 
           2685       2.7684e+9 
           2695      2.71143e+9 
           2705      2.70079e+9 
           2715      2.67101e+9 
           2725      2.62141e+9 
           2735      2.60913e+9 
           2745      2.57645e+9 
           2755      2.54959e+9 
           2765      2.50176e+9 
           2775      2.49517e+9 
           2785      2.46591e+9 
           2795      2.41406e+9 
           2805      2.40262e+9 
           2815      2.38482e+9 
           2825      2.33521e+9 
           2835      2.30784e+9 
           2845      2.30594e+9 
           2855      2.27923e+9 
           2865      2.25513e+9 
           2875      2.23035e+9 
           2885      2.20627e+9 
           2895      2.18175e+9 
           2910       2.1453e+9 
           2930      2.09931e+9 
           2950       2.0402e+9 
           2970      2.01086e+9 
           2990      1.96748e+9 
           3010      1.92454e+9 
           3030      1.88675e+9 
           3050      1.84775e+9 
           3070      1.80968e+9 
           3090      1.76814e+9 
           3110      1.73581e+9 
           3130      1.70139e+9 
           3150      1.66725e+9 
           3170      1.63271e+9 
           3190      1.58753e+9 
           3210      1.56796e+9 
           3230      1.53654e+9 
           3250      1.50628e+9 
           3270      1.47829e+9 
           3290      1.44728e+9 
           3310      1.42153e+9 
           3330      1.39394e+9 
           3350      1.36475e+9 
           3370      1.34107e+9 
           3390      1.31569e+9 
           3410      1.29087e+9 
           3430      1.26043e+9 
           3450      1.23234e+9 
           3470      1.21298e+9 
           3490      1.19034e+9 
           3510      1.17216e+9 
           3530      1.15299e+9 
           3550      1.13233e+9 
           3570      1.11755e+9 
           3590      1.09025e+9 
           3610      1.07291e+9 
           3630      1.05169e+9 
           3640       1.0495e+9 
           3650      1.02953e+9 
           3670      1.01574e+9 
           3690      9.93445e+8 
           3710       9.6021e+8 
           3730      9.24216e+8 
           3750      9.66785e+8 
           3770      9.64877e+8 
           3790      1.00678e+9 
           3810       1.0442e+9 
           3830      9.19833e+8 
           3850      1.06333e+9 
           3870      1.06412e+9 
           3890      8.72183e+8 
           3910      1.04349e+9 
           3930      1.02492e+9 
           3950      1.00853e+9 
           3970      8.09563e+8 
           3990      9.68794e+8 
           4010      9.59248e+8 
           4030      9.09157e+8 
           4050       9.3603e+8 
           4070      9.13617e+8 
           4090      8.52365e+8 
           4110       7.5225e+8 
           4130      8.59369e+8 
           4150      8.50537e+8 
           4170      8.42528e+8 
           4190      8.30276e+8 
           4210      8.17071e+8 
           4230      8.03278e+8 
           4250      7.89229e+8 
           4270      7.73216e+8 
           4290      7.62912e+8 
           4310      7.46783e+8 
           4330      6.86009e+8 
           4350      6.28131e+8 
           4370      7.09708e+8 
           4390      6.86093e+8 
           4410      6.91158e+8 
           4430      6.78596e+8 
           4450       6.7038e+8 
           4470      6.34566e+8 
           4490      6.48771e+8 
           4510      6.39455e+8 
           4530      6.29323e+8 
           4550      6.19126e+8 
           4570        6.093e+8 
           4590      5.99996e+8 
           4610      5.90813e+8 
           4630       5.8173e+8 
           4650      5.70674e+8 
           4670      5.63896e+8 
           4690      5.55226e+8 
           4710       5.4023e+8 
           4730      5.38702e+8 
           4750      5.30201e+8 
           4770      5.23314e+8 
           4790      5.15456e+8 
           4810      5.07352e+8 
           4830      4.97442e+8 
           4850      4.64455e+8 
           4870      4.17618e+8 
           4890      4.74801e+8 
           4910      4.70285e+8 
           4930      4.54402e+8 
           4950      4.57764e+8 
           4970      4.51449e+8 
           4990      4.44932e+8 
           5010      4.33027e+8 
           5030        4.323e+8 
           5050      4.23624e+8 
           5070      4.20142e+8 
           5090        4.142e+8 
           5110      4.08367e+8 
           5130      4.02484e+8 
           5150      3.96878e+8 
           5170      3.91488e+8 
           5190      3.86085e+8 
           5210      3.80697e+8 
           5230      3.75505e+8 
           5250      3.70353e+8 
           5270      3.65269e+8 
           5290      3.60304e+8 
           5310      3.55404e+8 
           5330      3.50607e+8 
           5350      3.45845e+8 
           5370      3.41249e+8 
           5390      3.36659e+8 
           5410      3.32154e+8 
           5430      3.27744e+8 
           5450      3.23389e+8 
           5470      3.19128e+8 
           5490      3.14919e+8 
           5510      3.10801e+8 
           5530      3.06721e+8 
           5550      3.02741e+8 
           5570      2.98798e+8 
           5590       2.9494e+8 
           5610      2.91117e+8 
           5630      2.87376e+8 
           5650      2.83646e+8 
           5670      2.79926e+8 
           5690      2.76251e+8 
           5710      2.72956e+8 
           5730      2.69505e+8 
           5750      2.66038e+8 
           5770      2.62782e+8 
           5790      2.59475e+8 
           5810      2.56241e+8 
           5830      2.53023e+8 
           5850      2.49898e+8 
           5870      2.39889e+8 
           5890      2.43399e+8 
           5910       2.4074e+8 
           5930      2.37759e+8 
           5950      2.34843e+8 
           5970      2.32036e+8 
           5990      2.29187e+8 
           6010      2.26433e+8 
           6030       2.2368e+8 
           6050       2.2101e+8 
           6070      2.18359e+8 
           6090      2.15749e+8 
           6110      2.13169e+8 
           6130      2.10637e+8 
           6150      2.08094e+8 
           6170      2.05658e+8 
           6190       2.0325e+8 
           6210      2.00859e+8 
           6230      1.98513e+8 
           6250      1.96184e+8 
           6270      1.93899e+8 
           6290      1.91649e+8 
           6310      1.89424e+8 
           6330      1.87242e+8 
           6350      1.85055e+8 
           6370      1.82948e+8 
           6390      1.80863e+8 
           6410      1.78801e+8 
           6430       1.7677e+8 
           6450      1.74761e+8 
           6470      1.72746e+8 
           6490      1.70807e+8 
           6510      1.68897e+8 
           6530      1.66406e+8 
           6550      1.60035e+8 
           6570      1.43055e+8 
           6590      1.59989e+8 
           6610      1.59497e+8 
           6630      1.57927e+8 
           6650      1.56272e+8 
           6670      1.53092e+8 
           6690      1.51462e+8 
           6710      1.51188e+8 
           6730      1.49526e+8 
           6750      1.47914e+8 
           6770      1.46309e+8 
           6790      1.44664e+8 
           6810      1.43158e+8 
           6830      1.41618e+8 
           6850      1.40102e+8 
           6870      1.38601e+8 
           6890      1.37115e+8 
           6910      1.35652e+8 
           6930      1.34219e+8 
           6950        1.328e+8 
           6970      1.31395e+8 
           6990      1.30005e+8 
           7010       1.2865e+8 
           7030      1.27302e+8 
           7050      1.25967e+8 
           7070      1.22693e+8 
           7090      1.23358e+8 
           7110      1.22084e+8 
           7130      1.20822e+8 
           7150      1.19572e+8 
           7170      1.18319e+8 
           7190       1.1713e+8 
           7210       1.1593e+8 
           7230      1.14447e+8 
           7250      1.13572e+8 
           7270      1.12421e+8 
           7290      1.10387e+8 
           7310      1.10144e+8 
           7330      1.09053e+8 
           7350      1.07951e+8 
           7370      1.06873e+8 
           7390      1.05799e+8 
           7410      1.04748e+8 
           7430      1.03701e+8 
           7450       1.0269e+8 
           7470      1.01661e+8 
           7490      1.00662e+8 
           7510      9.96327e+7 
           7530      9.86922e+7 
           7550      9.77273e+7 
           7570      9.67711e+7 
           7590      9.58236e+7 
           7610      9.48913e+7 
           7630      9.39738e+7 
           7650      9.30582e+7 
           7670      9.21637e+7 
           7690      9.12709e+7 
           7710      9.03923e+7 
           7730       8.9528e+7 
           7750      8.86714e+7 
           7770      8.78036e+7 
           7790      8.69871e+7 
           7810      8.60974e+7 
           7830      8.53448e+7 
           7850       8.4617e+7 
           7870      8.38165e+7 
           7890      8.29685e+7 
           7910      8.22604e+7 
           7930      8.14806e+7 
           7950      8.06062e+7 
           7970      7.97514e+7 
           7990       7.9034e+7 
           8010      7.82816e+7 
           8030      7.75533e+7 
           8050      7.68777e+7 
           8070      7.62195e+7 
           8090      7.53596e+7 
           8110      7.47707e+7 
           8130      7.41753e+7 
           8150      7.33806e+7 
           8170      7.28525e+7 
           8190      7.20815e+7 
           8210      7.12109e+7 
           8230      7.07707e+7 
           8250      7.01623e+7 
           8270      6.91679e+7 
           8290      6.88345e+7 
           8310      6.82472e+7 
           8330      6.76104e+7 
           8350      6.66709e+7 
           8370      6.62882e+7 
           8390      6.57959e+7 
           8410       6.5201e+7 
           8430      6.45474e+7 
           8450      6.35564e+7 
           8470      6.33091e+7 
           8490      6.27289e+7 
           8510      6.19974e+7 
           8530      6.17071e+7 
           8550       6.0254e+7 
           8570      6.13529e+7 
           8590      5.88313e+7 
