# Kurucz ODFNEW /NOVER (2003)
# teff = 28000 K (value for the effective temperature for the model. Temperatures are given in K)
# logg = 4 log(cm/s2) (value for Log(G) for the model.)
# meta = 0  (value for the Metallicity for the model.)
# lh = 1.25  (l/Hp where l is the  mixing length of the convective element and Hp is the pressure scale height)
# vtur = 2 km/s (Microturbulence velocity)
# alpha = 0.4  (Alpha)
#
# column 1: WAVELENGTH (ANGSTROM), Wavelength in Angstrom
# column 2: FLUX (ERG/CM2/S/A), Flux in erg/cm2/s/A
          147.2     3.50061e-11 
            151     1.23253e-10 
          155.2     4.63799e-10 
          158.8      1.37289e-9 
            162      3.47489e-9 
            166      1.05974e-8 
          170.3      3.32485e-8 
          173.4      7.38046e-8 
          176.8      1.71165e-7 
          180.2      3.85639e-7 
          181.7      5.46639e-7 
          186.1      1.48024e-6 
            191      4.27485e-6 
          193.9      7.81902e-6 
          198.4      1.93157e-5 
          201.8      3.73045e-5 
            205      6.80175e-5 
          210.5      0.00018356 
          216.2     0.000487821 
          219.8     0.000882325 
            223      0.00147089 
          226.8      0.00270677 
            230        0.177583 
            234        0.384181 
            240        0.793159 
          246.5         1.69968 
          252.4         3.30841 
          256.8         5.08668 
            260         7.83107 
            264         11.3825 
          268.5         18.2956 
          273.5         29.4812 
          278.5         45.6657 
            284         86.9659 
            290         142.705 
            296         229.015 
            301         331.967 
            308         619.238 
            318         1355.61 
            328         2505.24 
            338         4869.22 
            348         8739.46 
            357         44743.8 
            366          105494 
            375          148337 
            385          245143 
            395          605326 
            405          837843 
            414      1.30748e+6 
            422      1.61805e+6 
            430      2.14485e+6 
            441      2.95931e+6 
            451      3.76728e+6 
            460      4.55814e+6 
            470      6.03756e+6 
            480      7.66131e+6 
            490      9.69423e+6 
            500      1.21203e+7 
            506      3.96084e+7 
            512      2.74114e+8 
            520      2.72753e+8 
            530      2.81602e+8 
            540      2.72715e+8 
            550      3.88262e+8 
            560       4.6547e+8 
            570      5.10214e+8 
            580      4.64629e+8 
            590      5.72096e+8 
            600      5.42595e+8 
            610      6.58775e+8 
            620      7.32231e+8 
            630      7.47432e+8 
            640       6.8296e+8 
            650       6.1871e+8 
            658      7.15671e+8 
            665      8.42806e+8 
            675      8.80007e+8 
            685      8.19415e+8 
            695      1.09558e+9 
            705      9.74748e+8 
            716      1.20928e+9 
            726      1.18492e+9 
            735      1.24053e+9 
            745      1.34802e+9 
            755      1.38128e+9 
            765      1.46726e+9 
            775      1.54675e+9 
            785      1.63102e+9 
            795      1.64199e+9 
            805      1.65487e+9 
            815      1.66278e+9 
            825      1.79695e+9 
            835      1.43732e+9 
            845      1.78297e+9 
            855      1.79206e+9 
            865      1.88071e+9 
            875      1.95311e+9 
            885      2.06771e+9 
            895      2.12951e+9 
            905      2.09039e+9 
            915      2.71744e+9 
            925     1.53699e+10 
            935     2.92295e+10 
            945     4.44258e+10 
            955     4.97253e+10 
            965     5.62045e+10 
            975      1.4426e+10 
            985     4.43312e+10 
            995      4.1911e+10 
           1005      4.6262e+10 
           1015     4.85363e+10 
           1025     3.29048e+10 
           1035     4.26694e+10 
           1045     5.58251e+10 
           1055     5.17154e+10 
           1065     4.13025e+10 
           1075     4.61839e+10 
           1085     4.28084e+10 
           1095      4.6677e+10 
           1105     4.25995e+10 
           1115      4.0963e+10 
           1125     3.00252e+10 
           1135      4.1395e+10 
           1145     3.80745e+10 
           1155     3.77513e+10 
           1165     3.77416e+10 
           1175     2.25611e+10 
           1185     3.45951e+10 
           1195     3.26467e+10 
           1205     2.52002e+10 
           1215     2.16724e+10 
           1225     3.07735e+10 
           1235     3.36685e+10 
           1245     3.23058e+10 
           1255     3.20681e+10 
           1265      3.2672e+10 
           1275     3.36493e+10 
           1285      3.3269e+10 
           1295     2.53441e+10 
           1305     2.73108e+10 
           1315     3.23806e+10 
           1325     3.04989e+10 
           1335     2.97054e+10 
           1345     2.92633e+10 
           1355     2.91961e+10 
           1365     2.71463e+10 
           1375     2.60993e+10 
           1385     2.47575e+10 
           1395     1.50692e+10 
           1405     1.74423e+10 
           1415     2.28477e+10 
           1425     2.16284e+10 
           1435     2.28245e+10 
           1442     2.32176e+10 
           1447     2.28847e+10 
           1455     2.18703e+10 
           1465     2.05442e+10 
           1475     2.09765e+10 
           1485     2.06813e+10 
           1495     2.01021e+10 
           1505     1.84886e+10 
           1512     1.71511e+10 
           1517     1.75654e+10 
           1525     1.76311e+10 
           1535     1.49002e+10 
           1545     1.39218e+10 
           1555     1.35345e+10 
           1565     1.48928e+10 
           1575     1.58672e+10 
           1585     1.57546e+10 
           1595     1.57176e+10 
           1605     1.54376e+10 
           1615      1.4818e+10 
           1625     1.48345e+10 
           1635     1.54428e+10 
           1645     1.54408e+10 
           1655     1.52602e+10 
           1665     1.51862e+10 
           1672      1.4306e+10 
           1677     1.62395e+10 
           1685      1.5466e+10 
           1695     1.46717e+10 
           1705     1.43511e+10 
           1715     1.36232e+10 
           1725     1.31859e+10 
           1735     1.36351e+10 
           1745     1.34694e+10 
           1755     1.33836e+10 
           1765     1.32602e+10 
           1775     1.24547e+10 
           1785     1.26514e+10 
           1795     1.27388e+10 
           1805     1.27981e+10 
           1815       1.177e+10 
           1825     1.20169e+10 
           1835     1.17296e+10 
           1845     1.06978e+10 
           1855     1.09843e+10 
           1865     1.11094e+10 
           1875     1.11531e+10 
           1885     1.01393e+10 
           1895      9.51185e+9 
           1905     1.01597e+10 
           1915      9.65712e+9 
           1925      9.09457e+9 
           1935      9.68893e+9 
           1945      9.92237e+9 
           1955      8.86659e+9 
           1967      9.52366e+9 
           1976      9.99479e+9 
           1984       9.2643e+9 
           1995      9.11519e+9 
           2005      9.34471e+9 
           2015      9.29988e+9 
           2025      9.42323e+9 
           2035      8.69915e+9 
           2045      8.76679e+9 
           2055       8.0168e+9 
           2065      7.94226e+9 
           2074      8.29974e+9 
           2078      7.76965e+9 
           2085      8.14264e+9 
           2095      7.91436e+9 
           2105      8.20774e+9 
           2115      8.22775e+9 
           2125      8.23434e+9 
           2135       8.0892e+9 
           2145      7.74432e+9 
           2155      7.97552e+9 
           2165      7.83908e+9 
           2175       7.7588e+9 
           2185      7.56272e+9 
           2195      7.62103e+9 
           2205      7.56314e+9 
           2215      7.41622e+9 
           2225      7.25786e+9 
           2235      7.12247e+9 
           2245      7.13645e+9 
           2255      6.93431e+9 
           2265       6.9548e+9 
           2275      6.85892e+9 
           2285      6.74592e+9 
           2295      6.05439e+9 
           2305      6.51222e+9 
           2315      6.38171e+9 
           2325      6.32435e+9 
           2335      6.18006e+9 
           2345      6.22001e+9 
           2355       6.1349e+9 
           2365      6.06905e+9 
           2375      5.92568e+9 
           2385      5.84126e+9 
           2395      5.76467e+9 
           2405      5.71156e+9 
           2415      5.60583e+9 
           2425      5.58058e+9 
           2435      5.44188e+9 
           2445      5.41491e+9 
           2455      5.37526e+9 
           2465      5.30179e+9 
           2475      5.20221e+9 
           2485      5.03921e+9 
           2495      3.75869e+9 
           2505      4.78556e+9 
           2513      4.72399e+9 
           2518      4.82058e+9 
           2525      4.87159e+9 
           2535      4.84678e+9 
           2545      4.64148e+9 
           2555      4.67898e+9 
           2565      4.60111e+9 
           2575      4.60084e+9 
           2585      4.54563e+9 
           2595      4.49388e+9 
           2605      4.45961e+9 
           2615      4.38199e+9 
           2625      4.34692e+9 
           2635       4.2925e+9 
           2645      4.23011e+9 
           2655      4.18425e+9 
           2665      4.04359e+9 
           2675      4.02705e+9 
           2685      4.02872e+9 
           2695      3.89332e+9 
           2705      3.83339e+9 
           2715      3.82217e+9 
           2725      3.79102e+9 
           2735      3.74688e+9 
           2745      3.70404e+9 
           2755      3.67461e+9 
           2765      3.61467e+9 
           2775      3.62815e+9 
           2785      3.56003e+9 
           2795      3.42585e+9 
           2805      3.46108e+9 
           2815      3.46016e+9 
           2825      3.40668e+9 
           2835      3.30816e+9 
           2845      3.33703e+9 
           2855      3.26891e+9 
           2865      3.24934e+9 
           2875      3.20658e+9 
           2885      3.17493e+9 
           2895      3.12782e+9 
           2910      3.04663e+9 
           2930      3.01637e+9 
           2950      2.92648e+9 
           2970       2.8781e+9 
           2990      2.80306e+9 
           3010      2.69267e+9 
           3030       2.6627e+9 
           3050      2.62923e+9 
           3070       2.5934e+9 
           3090       2.4774e+9 
           3110      2.47602e+9 
           3130      2.40237e+9 
           3150       2.3663e+9 
           3170      2.30741e+9 
           3190      2.25987e+9 
           3210      2.22383e+9 
           3230      2.16377e+9 
           3250      2.13533e+9 
           3270       2.0805e+9 
           3290      2.04032e+9 
           3310      2.00051e+9 
           3330      1.95314e+9 
           3350      1.91844e+9 
           3370      1.87577e+9 
           3390      1.85101e+9 
           3410      1.81469e+9 
           3430      1.77985e+9 
           3450      1.73674e+9 
           3470      1.70382e+9 
           3490      1.66842e+9 
           3510      1.64133e+9 
           3530      1.61988e+9 
           3550      1.58578e+9 
           3570      1.55954e+9 
           3590      1.51649e+9 
           3610      1.49416e+9 
           3630      1.46504e+9 
           3640       1.4607e+9 
           3650      1.43532e+9 
           3670      1.41837e+9 
           3690      1.38901e+9 
           3710       1.3336e+9 
           3730      1.28703e+9 
           3750       1.3236e+9 
           3770      1.30214e+9 
           3790      1.35075e+9 
           3810      1.38784e+9 
           3830      1.23796e+9 
           3850      1.38624e+9 
           3870      1.35341e+9 
           3890        1.173e+9 
           3910      1.35649e+9 
           3930      1.31013e+9 
           3950      1.28734e+9 
           3970      1.08519e+9 
           3990      1.25404e+9 
           4010      1.24168e+9 
           4030      1.18645e+9 
           4050      1.19968e+9 
           4070      1.13916e+9 
           4090      1.07465e+9 
           4110      9.80178e+8 
           4130      1.09179e+9 
           4150      1.08345e+9 
           4170      1.08093e+9 
           4190       1.0637e+9 
           4210      1.05343e+9 
           4230      1.03025e+9 
           4250      9.98716e+8 
           4270      9.72336e+8 
           4290      9.54121e+8 
           4310      9.26466e+8 
           4330      8.73059e+8 
           4350      8.07373e+8 
           4370      8.86464e+8 
           4390      8.79734e+8 
           4410      8.70437e+8 
           4430      8.65532e+8 
           4450      8.47648e+8 
           4470      8.16078e+8 
           4490      8.23699e+8 
           4510      8.15261e+8 
           4530      8.04719e+8 
           4550      7.91582e+8 
           4570      7.78067e+8 
           4590      7.63326e+8 
           4610      7.45921e+8 
           4630      7.35432e+8 
           4650      7.05615e+8 
           4670      7.11884e+8 
           4690       7.0514e+8 
           4710      6.78582e+8 
           4730      6.86731e+8 
           4750      6.73914e+8 
           4770      6.72397e+8 
           4790      6.61063e+8 
           4810      6.47208e+8 
           4830      6.33559e+8 
           4850      6.02014e+8 
           4870      5.45694e+8 
           4890      6.07409e+8 
           4910      6.00392e+8 
           4930      5.81767e+8 
           4950      5.79397e+8 
           4970      5.78022e+8 
           4990      5.68783e+8 
           5010      5.46916e+8 
           5030       5.5011e+8 
           5050      5.39601e+8 
           5070      5.36774e+8 
           5090      5.27271e+8 
           5110      5.19184e+8 
           5130      5.10162e+8 
           5150      5.03722e+8 
           5170      4.97281e+8 
           5190      4.91358e+8 
           5210      4.83776e+8 
           5230      4.77934e+8 
           5250      4.71197e+8 
           5270      4.63639e+8 
           5290      4.58336e+8 
           5310      4.51684e+8 
           5330      4.45728e+8 
           5350      4.39229e+8 
           5370      4.33756e+8 
           5390      4.26938e+8 
           5410      4.21483e+8 
           5430      4.16071e+8 
           5450      4.09928e+8 
           5470      4.04544e+8 
           5490      3.99352e+8 
           5510      3.94547e+8 
           5530      3.88643e+8 
           5550      3.84172e+8 
           5570      3.78916e+8 
           5590      3.73907e+8 
           5610      3.68983e+8 
           5630      3.64441e+8 
           5650      3.58656e+8 
           5670      3.52837e+8 
           5690      3.46603e+8 
           5710      3.44144e+8 
           5730      3.40541e+8 
           5750      3.34633e+8 
           5770      3.32339e+8 
           5790      3.27834e+8 
           5810      3.23706e+8 
           5830      3.18862e+8 
           5850       3.1543e+8 
           5870      3.03893e+8 
           5890      3.05622e+8 
           5910      3.02834e+8 
           5930      2.98931e+8 
           5950      2.95095e+8 
           5970       2.9292e+8 
           5990      2.88185e+8 
           6010      2.85394e+8 
           6030        2.814e+8 
           6050      2.78226e+8 
           6070      2.75199e+8 
           6090      2.71871e+8 
           6110       2.6856e+8 
           6130      2.65447e+8 
           6150      2.61203e+8 
           6170      2.58335e+8 
           6190      2.55773e+8 
           6210      2.52927e+8 
           6230      2.49966e+8 
           6250      2.46594e+8 
           6270      2.43826e+8 
           6290      2.41116e+8 
           6310      2.37963e+8 
           6330      2.35502e+8 
           6350      2.32209e+8 
           6370      2.30029e+8 
           6390      2.27272e+8 
           6410      2.24609e+8 
           6430      2.22193e+8 
           6450      2.19549e+8 
           6470      2.16214e+8 
           6490      2.13909e+8 
           6510       2.1161e+8 
           6530      2.08416e+8 
           6550      2.02219e+8 
           6570      1.81309e+8 
           6590      2.00327e+8 
           6610       1.9991e+8 
           6630      1.97934e+8 
           6650      1.95399e+8 
           6670      1.91867e+8 
           6690      1.89804e+8 
           6710      1.89234e+8 
           6730      1.86581e+8 
           6750      1.85254e+8 
           6770      1.83232e+8 
           6790      1.80177e+8 
           6810      1.79022e+8 
           6830      1.76821e+8 
           6850      1.75244e+8 
           6870      1.73283e+8 
           6890      1.71072e+8 
           6910      1.68821e+8 
           6930      1.67801e+8 
           6950      1.66041e+8 
           6970      1.64267e+8 
           6990      1.62465e+8 
           7010      1.60688e+8 
           7030      1.58922e+8 
           7050      1.57301e+8 
           7070      1.53353e+8 
           7090      1.54002e+8 
           7110      1.51662e+8 
           7130      1.50182e+8 
           7150      1.49196e+8 
           7170      1.47647e+8 
           7190      1.46149e+8 
           7210      1.44621e+8 
           7230       1.4148e+8 
           7250      1.41209e+8 
           7270      1.40163e+8 
           7290      1.37665e+8 
           7310      1.37265e+8 
           7330      1.35837e+8 
           7350      1.34471e+8 
           7370      1.33139e+8 
           7390      1.31792e+8 
           7410       1.3045e+8 
           7430      1.29093e+8 
           7450      1.27797e+8 
           7470      1.25662e+8 
           7490       1.2512e+8 
           7510      1.23953e+8 
           7530      1.22618e+8 
           7550      1.21553e+8 
           7570      1.20346e+8 
           7590      1.19104e+8 
           7610      1.17672e+8 
           7630      1.16778e+8 
           7650      1.15595e+8 
           7670      1.14519e+8 
           7690      1.13364e+8 
           7710      1.12251e+8 
           7730      1.11053e+8 
           7750      1.10104e+8 
           7770      1.08764e+8 
           7790      1.07995e+8 
           7810      1.06912e+8 
           7830       1.0593e+8 
           7850      1.04951e+8 
           7870      1.03688e+8 
           7890       1.0254e+8 
           7910      1.01895e+8 
           7930      1.00873e+8 
           7950      9.99128e+7 
           7970      9.89079e+7 
           7990      9.79884e+7 
           8010      9.70476e+7 
           8030      9.61324e+7 
           8050      9.53007e+7 
           8070      9.44356e+7 
           8090      9.34454e+7 
           8110      9.19369e+7 
           8130      9.18328e+7 
           8150      9.09006e+7 
           8170      9.02077e+7 
           8190      8.87511e+7 
           8210      8.80677e+7 
           8230      8.72175e+7 
           8250       8.6845e+7 
           8270      8.50483e+7 
           8290      8.51044e+7 
           8310      8.44607e+7 
           8330      8.36973e+7 
           8350      8.25457e+7 
           8370       8.1942e+7 
           8390       8.1418e+7 
           8410      8.05998e+7 
           8430      7.98997e+7 
           8450      7.86197e+7 
           8470      7.83802e+7 
           8490      7.76036e+7 
           8510      7.66775e+7 
           8530      7.63287e+7 
           8550        7.473e+7 
           8570      7.56743e+7 
           8590      7.29635e+7 
