# Kurucz ODFNEW /NOVER (2003)
# teff = 8750 K (value for the effective temperature for the model. Temperatures are given in K)
# logg = 4.5 log(cm/s2) (value for Log(G) for the model.)
# meta = -2  (value for the Metallicity for the model.)
# lh = 1.25  (l/Hp where l is the  mixing length of the convective element and Hp is the pressure scale height)
# vtur = 2 km/s (Microturbulence velocity)
# alpha = 0  (Alpha)
#
# column 1: WAVELENGTH (ANGSTROM), Wavelength in Angstrom
# column 2: FLUX (ERG/CM2/S/A), Flux in erg/cm2/s/A
          273.5     3.97317e-23 
          278.5     2.01279e-22 
            284      9.6784e-22 
            290     4.92078e-21 
            296     2.33052e-20 
            301     8.11124e-20 
            308     4.33423e-19 
            318     4.16316e-18 
            328     3.46863e-17 
            338     2.53878e-16 
            348      1.6509e-15 
            357     8.11253e-15 
            366     3.67572e-14 
            375      1.5445e-13 
            385     7.01407e-13 
            395     2.94092e-12 
            405     1.14543e-11 
            414     3.67221e-11 
            422     9.90204e-11 
            430     2.56885e-10 
            441     8.98098e-10 
            451      2.65061e-9 
            460      6.72985e-9 
            470      1.81355e-8 
            480      4.67887e-8 
            490      1.15887e-7 
            500      2.76248e-7 
            506      4.57853e-7 
            512      7.48188e-7 
            520      1.41357e-6 
            530      3.04254e-6 
            540      6.35466e-6 
            550       1.2901e-5 
            560      2.54941e-5 
            570      4.91163e-5 
            580      9.23704e-5 
            590     0.000169793 
            600     0.000305412 
            610     0.000538133 
            620     0.000929818 
            630      0.00157697 
            640      0.00262736 
            650      0.00430408 
            658      0.00631427 
            665      0.00875834 
            675          0.0138 
            685       0.0214336 
            695       0.0328369 
            705       0.0496507 
            716        0.077116 
            726        0.113646 
            735         0.15952 
            745          0.2301 
            755        0.328408 
            765        0.463972 
            775        0.649119 
            785        0.899724 
            795         1.23583 
            805         1.68283 
            815         2.27254 
            825         3.04433 
            835         4.04683 
            845         5.33945 
            855         6.99477 
            865         9.10021 
            875         11.7606 
            885         15.1004 
            895         19.2695 
            905          24.442 
            915          44.686 
            925         180.253 
            935         326.386 
            945         635.191 
            955         988.061 
            965         1355.66 
            975         969.698 
            985         2398.05 
            995         3064.14 
           1005         3551.84 
           1015         3181.75 
           1025          1829.1 
           1035         4228.61 
           1045         6563.98 
           1055         8015.05 
           1065         9695.04 
           1075         11952.3 
           1085         15389.2 
           1095         17856.1 
           1105           42402 
           1115          242687 
           1125          233808 
           1135          223442 
           1145          106680 
           1155         52294.9 
           1165         40053.8 
           1175         35846.8 
           1185         39365.1 
           1195           25585 
           1205         18293.4 
           1215         7410.43 
           1225           20302 
           1235         38230.5 
           1245         48261.9 
           1255           69530 
           1265         92471.7 
           1275          146189 
           1285          505470 
           1295      1.01046e+6 
           1305      2.05847e+6 
           1315      3.19688e+6 
           1325      4.83093e+6 
           1335       6.6118e+6 
           1345      8.72796e+6 
           1355      9.61263e+6 
           1365       1.0997e+7 
           1375       9.5835e+6 
           1385      7.47675e+6 
           1395      6.61727e+6 
           1405      1.27539e+7 
           1415      2.29869e+7 
           1425      2.51886e+7 
           1435      2.50875e+7 
           1442      2.89536e+7 
           1447      2.68215e+7 
           1455      3.03017e+7 
           1465      2.75303e+7 
           1475      2.89782e+7 
           1485      2.96467e+7 
           1495      3.02088e+7 
           1505      3.18312e+7 
           1512      3.16344e+7 
           1517      2.94241e+7 
           1525      2.98111e+7 
           1535      2.88964e+7 
           1545      2.67196e+7 
           1555      2.40712e+7 
           1565      1.88286e+7 
           1575        1.938e+7 
           1585      1.81855e+7 
           1595      1.73184e+7 
           1605      1.69219e+7 
           1615      2.27954e+7 
           1625      2.88315e+7 
           1635      3.65522e+7 
           1645       4.5828e+7 
           1655      4.26929e+7 
           1665        5.331e+7 
           1672      5.01235e+7 
           1677      5.35156e+7 
           1685      5.67106e+7 
           1695      5.46128e+7 
           1705      5.51923e+7 
           1715      5.77898e+7 
           1725      5.70052e+7 
           1735       5.8858e+7 
           1745      5.75024e+7 
           1755      5.90751e+7 
           1765      5.55173e+7 
           1775      5.81495e+7 
           1785      5.75175e+7 
           1795      5.92906e+7 
           1805      5.78792e+7 
           1815      5.75142e+7 
           1825      5.63178e+7 
           1835      5.68648e+7 
           1845      5.44693e+7 
           1855      5.59813e+7 
           1865      5.65372e+7 
           1875      5.66408e+7 
           1885      5.65207e+7 
           1895      5.65059e+7 
           1905      5.54055e+7 
           1915      5.58721e+7 
           1925      5.63657e+7 
           1935      5.47976e+7 
           1945      5.65608e+7 
           1955      5.62883e+7 
           1967      5.63835e+7 
           1976      5.50654e+7 
           1984      5.47897e+7 
           1995      5.49283e+7 
           2005      5.37726e+7 
           2015      5.30714e+7 
           2025      5.25522e+7 
           2035      5.39328e+7 
           2045      5.39147e+7 
           2055      5.25045e+7 
           2065      5.25167e+7 
           2074      5.37321e+7 
           2078      5.37802e+7 
           2085      5.34526e+7 
           2095      5.28156e+7 
           2105      5.25752e+7 
           2115      5.25011e+7 
           2125      5.22685e+7 
           2135      5.06419e+7 
           2145      5.21613e+7 
           2155      5.16142e+7 
           2165      5.02263e+7 
           2175      5.02911e+7 
           2185      5.04742e+7 
           2195      5.16002e+7 
           2205      5.03228e+7 
           2215      4.83721e+7 
           2225      4.87662e+7 
           2235      5.07532e+7 
           2245      4.94066e+7 
           2255      4.80655e+7 
           2265      4.74519e+7 
           2275      4.89769e+7 
           2285      4.93061e+7 
           2295      4.80233e+7 
           2305      4.83527e+7 
           2315      4.78199e+7 
           2325      4.78806e+7 
           2335      4.74057e+7 
           2345      4.49648e+7 
           2355      4.71874e+7 
           2365      4.51687e+7 
           2375      4.63626e+7 
           2385       4.3607e+7 
           2395      4.58024e+7 
           2405      4.52314e+7 
           2415      4.53686e+7 
           2425      4.62508e+7 
           2435      4.50654e+7 
           2445      4.57474e+7 
           2455      4.55674e+7 
           2465      4.45536e+7 
           2475      4.39342e+7 
           2485      4.45757e+7 
           2495       4.3784e+7 
           2505      4.53544e+7 
           2513      4.39327e+7 
           2518      4.36865e+7 
           2525      4.24667e+7 
           2535      4.23744e+7 
           2545      4.24097e+7 
           2555       4.4022e+7 
           2565      4.37012e+7 
           2575      4.45612e+7 
           2585      4.47409e+7 
           2595      4.44001e+7 
           2605       4.3649e+7 
           2615      4.33753e+7 
           2625      4.35162e+7 
           2635      4.37248e+7 
           2645      4.55827e+7 
           2655      4.53121e+7 
           2665      4.41399e+7 
           2675      4.45676e+7 
           2685      4.48837e+7 
           2695      4.41783e+7 
           2705      4.41426e+7 
           2715      4.31853e+7 
           2725       4.3146e+7 
           2735      4.37295e+7 
           2745      4.15291e+7 
           2755      4.16813e+7 
           2765      4.25877e+7 
           2775      4.34603e+7 
           2785      4.30637e+7 
           2795      3.98101e+7 
           2805      4.15708e+7 
           2815      4.36421e+7 
           2825      4.33837e+7 
           2835      4.27107e+7 
           2845      4.23626e+7 
           2855      4.15834e+7 
           2865      4.20775e+7 
           2875      4.20009e+7 
           2885       4.2228e+7 
           2895      4.24632e+7 
           2910      4.27997e+7 
           2930      4.19739e+7 
           2950      4.16985e+7 
           2970      4.16555e+7 
           2990      4.14718e+7 
           3010       4.1545e+7 
           3030      4.13869e+7 
           3050      4.11942e+7 
           3070      4.08991e+7 
           3090       4.0829e+7 
           3110      4.06172e+7 
           3130       4.0319e+7 
           3150      4.01731e+7 
           3170      4.00652e+7 
           3190      3.94089e+7 
           3210      3.95116e+7 
           3230      3.91357e+7 
           3250      3.91906e+7 
           3270      3.91847e+7 
           3290      3.90543e+7 
           3310      3.89002e+7 
           3330      3.85668e+7 
           3350      3.81748e+7 
           3370      3.80448e+7 
           3390      3.78726e+7 
           3410      3.78735e+7 
           3430      3.76733e+7 
           3450      3.74846e+7 
           3470      3.73009e+7 
           3490      3.71468e+7 
           3510      3.70152e+7 
           3530      3.68509e+7 
           3550       3.6682e+7 
           3570      3.64022e+7 
           3590      3.62403e+7 
           3610      3.60625e+7 
           3630      3.59092e+7 
           3640      3.58259e+7 
           3650      3.59183e+7 
           3670      3.58607e+7 
           3690       3.4798e+7 
           3710      3.48371e+7 
           3730       3.4543e+7 
           3750      4.17383e+7 
           3770      4.38385e+7 
           3790      5.24438e+7 
           3810      6.16165e+7 
           3830      4.97695e+7 
           3850      6.92155e+7 
           3870      7.92277e+7 
           3890      4.36477e+7 
           3910      7.99534e+7 
           3930      8.94595e+7 
           3950       7.9808e+7 
           3970      4.23749e+7 
           3990      7.55111e+7 
           4010      9.04754e+7 
           4030      9.26578e+7 
           4050      9.09226e+7 
           4070       8.4075e+7 
           4090      6.05268e+7 
           4110      4.63482e+7 
           4130      7.82971e+7 
           4150      8.55546e+7 
           4170      8.68179e+7 
           4190      8.64953e+7 
           4210      8.56776e+7 
           4230      8.44777e+7 
           4250      8.33883e+7 
           4270      8.16772e+7 
           4290      7.90689e+7 
           4310      7.24251e+7 
           4330      5.10112e+7 
           4350       4.3567e+7 
           4370      6.86114e+7 
           4390      7.42039e+7 
           4410      7.53068e+7 
           4430      7.52292e+7 
           4450      7.47143e+7 
           4470      7.40001e+7 
           4490      7.30825e+7 
           4510      7.24821e+7 
           4530      7.16691e+7 
           4550      7.08948e+7 
           4570       7.0236e+7 
           4590      6.94089e+7 
           4610      6.86927e+7 
           4630      6.78703e+7 
           4650      6.70943e+7 
           4670      6.62963e+7 
           4690      6.54786e+7 
           4710      6.45026e+7 
           4730      6.39498e+7 
           4750      6.31019e+7 
           4770      6.21334e+7 
           4790      6.08915e+7 
           4810      5.88898e+7 
           4830      5.44095e+7 
           4850      4.09105e+7 
           4870      3.34876e+7 
           4890      5.08406e+7 
           4910       5.5309e+7 
           4930      5.62361e+7 
           4950      5.63268e+7 
           4970      5.60376e+7 
           4990      5.55787e+7 
           5010      5.50233e+7 
           5030      5.45583e+7 
           5050      5.40665e+7 
           5070      5.35572e+7 
           5090      5.30034e+7 
           5110       5.2458e+7 
           5130      5.19138e+7 
           5150       5.1375e+7 
           5170      5.06273e+7 
           5190      5.02253e+7 
           5210      4.98113e+7 
           5230       4.9274e+7 
           5250      4.88241e+7 
           5270      4.82752e+7 
           5290      4.78395e+7 
           5310      4.73435e+7 
           5330      4.68576e+7 
           5350      4.64171e+7 
           5370      4.59388e+7 
           5390      4.54882e+7 
           5410      4.50251e+7 
           5430      4.45918e+7 
           5450      4.41535e+7 
           5470      4.37242e+7 
           5490         4.33e+7 
           5510       4.2877e+7 
           5530      4.24529e+7 
           5550      4.20496e+7 
           5570      4.16365e+7 
           5590      4.12306e+7 
           5610      4.08354e+7 
           5630      4.04471e+7 
           5650      4.00586e+7 
           5670      3.96734e+7 
           5690      3.92972e+7 
           5710      3.89207e+7 
           5730      3.85531e+7 
           5750      3.81874e+7 
           5770      3.78269e+7 
           5790      3.74694e+7 
           5810       3.7117e+7 
           5830      3.67697e+7 
           5850      3.64252e+7 
           5870      3.60779e+7 
           5890      3.56975e+7 
           5910      3.54175e+7 
           5930      3.50901e+7 
           5950      3.47663e+7 
           5970       3.4446e+7 
           5990      3.41281e+7 
           6010      3.38148e+7 
           6030      3.35059e+7 
           6050      3.32024e+7 
           6070      3.29001e+7 
           6090      3.26021e+7 
           6110      3.23063e+7 
           6130      3.20116e+7 
           6150      3.17181e+7 
           6170      3.14366e+7 
           6190       3.1159e+7 
           6210      3.08805e+7 
           6230       3.0603e+7 
           6250      3.03245e+7 
           6270      3.00623e+7 
           6290      2.97962e+7 
           6310      2.95301e+7 
           6330      2.92704e+7 
           6350      2.90051e+7 
           6370      2.87508e+7 
           6390      2.84585e+7 
           6410      2.81776e+7 
           6430      2.79033e+7 
           6450      2.76046e+7 
           6470      2.72839e+7 
           6490      2.68763e+7 
           6510      2.62634e+7 
           6530       2.4994e+7 
           6550      2.12431e+7 
           6570      1.73018e+7 
           6590      2.33438e+7 
           6610      2.48557e+7 
           6630      2.52005e+7 
           6650      2.52067e+7 
           6670      2.50947e+7 
           6690      2.49382e+7 
           6710      2.47588e+7 
           6730      2.45786e+7 
           6750        2.441e+7 
           6770      2.42101e+7 
           6790      2.40072e+7 
           6810      2.38063e+7 
           6830      2.36065e+7 
           6850      2.34111e+7 
           6870      2.32167e+7 
           6890       2.3025e+7 
           6910      2.28343e+7 
           6930      2.26462e+7 
           6950      2.24599e+7 
           6970      2.22753e+7 
           6990      2.20925e+7 
           7010      2.19114e+7 
           7030      2.17321e+7 
           7050      2.15559e+7 
           7070      2.13806e+7 
           7090      2.12069e+7 
           7110      2.10274e+7 
           7130      2.08644e+7 
           7150      2.06963e+7 
           7170      2.05304e+7 
           7190      2.03653e+7 
           7210      2.02018e+7 
           7230      2.00404e+7 
           7250      1.98806e+7 
           7270      1.97221e+7 
           7290      1.95652e+7 
           7310      1.94103e+7 
           7330      1.92562e+7 
           7350      1.91048e+7 
           7370      1.89541e+7 
           7390      1.88047e+7 
           7410       1.8656e+7 
           7430        1.851e+7 
           7450      1.83652e+7 
           7470      1.82204e+7 
           7490      1.80783e+7 
           7510      1.79394e+7 
           7530      1.78003e+7 
           7550      1.76625e+7 
           7570       1.7526e+7 
           7590      1.73912e+7 
           7610       1.7257e+7 
           7630      1.71239e+7 
           7650      1.69927e+7 
           7670      1.68625e+7 
           7690      1.67335e+7 
           7710       1.6605e+7 
           7730      1.64795e+7 
           7750      1.63544e+7 
           7770      1.61892e+7 
           7790      1.61074e+7 
           7810      1.59861e+7 
           7830      1.58646e+7 
           7850      1.57447e+7 
           7870      1.56253e+7 
           7890      1.55074e+7 
           7910      1.53936e+7 
           7930      1.52783e+7 
           7950       1.5164e+7 
           7970      1.50524e+7 
           7990      1.49376e+7 
           8010       1.4829e+7 
           8030      1.47196e+7 
           8050      1.46111e+7 
           8070      1.45029e+7 
           8090      1.43961e+7 
           8110      1.42909e+7 
           8130      1.41859e+7 
           8150      1.40817e+7 
           8170       1.3979e+7 
           8190      1.38726e+7 
           8210      1.37962e+7 
           8230      1.37014e+7 
           8250      1.36085e+7 
           8270      1.35224e+7 
           8290      1.34325e+7 
           8310      1.33428e+7 
           8330      1.32452e+7 
           8350      1.31618e+7 
           8370      1.30673e+7 
           8390      1.29676e+7 
           8410      1.28666e+7 
           8430      1.27669e+7 
           8450      1.26749e+7 
           8470      1.24864e+7 
           8490      1.25144e+7 
           8510      1.21529e+7 
           8530      1.23797e+7 
           8550      1.16782e+7 
           8570      1.23332e+7 
           8590      1.16984e+7 
           8610      1.14815e+7 
           8630      1.22639e+7 
           8650      1.17934e+7 
           8670      1.02987e+7 
           8690      1.19455e+7 
           8710      1.22378e+7 
           8730      1.17335e+7 
           8750      9.58769e+6 
           8770      1.11682e+7 
           8790       1.2059e+7 
           8810      1.21713e+7 
           8830       1.1834e+7 
           8850      1.05189e+7 
           8870      9.06092e+6 
           8890      1.11676e+7 
           8910      1.18009e+7 
           8930      1.19517e+7 
           8950      1.18889e+7 
           8970      1.16005e+7 
           8990      1.08847e+7 
           9010      8.78199e+6 
           9030      9.51331e+6 
           9050      1.09106e+7 
           9070      1.13076e+7 
           9090      1.13993e+7 
           9110      1.14373e+7 
           9130      1.13818e+7 
           9150      1.12583e+7 
           9170      1.10476e+7 
           9190      1.06489e+7 
           9210      9.74599e+6 
