# Kurucz ODFNEW /NOVER (2003)
# teff = 28000 K (value for the effective temperature for the model. Temperatures are given in K)
# logg = 4.5 log(cm/s2) (value for Log(G) for the model.)
# meta = -1  (value for the Metallicity for the model.)
# lh = 1.25  (l/Hp where l is the  mixing length of the convective element and Hp is the pressure scale height)
# vtur = 2 km/s (Microturbulence velocity)
# alpha = 0.4  (Alpha)
#
# column 1: WAVELENGTH (ANGSTROM), Wavelength in Angstrom
# column 2: FLUX (ERG/CM2/S/A), Flux in erg/cm2/s/A
          147.2     4.30631e-11 
            151     1.60645e-10 
          155.2     6.41911e-10 
          158.8      1.99275e-9 
            162      5.24369e-9 
            166      1.67147e-8 
          170.3      5.48011e-8 
          173.4      1.24556e-7 
          176.8       2.9664e-7 
          180.2      6.84057e-7 
          181.7      9.79237e-7 
          186.1      2.71583e-6 
            191      8.00528e-6 
          193.9      1.47907e-5 
          198.4      3.69948e-5 
          201.8       7.1954e-5 
            205     0.000131849 
          210.5     0.000357547 
          216.2     0.000951688 
          219.8      0.00171942 
            223      0.00286147 
          226.8      0.00514549 
            230        0.680734 
            234         1.57831 
            240          3.2334 
          246.5         6.80766 
          252.4         13.0856 
          256.8         19.0638 
            260         28.8287 
            264         41.2399 
          268.5         64.2651 
          273.5         101.271 
          278.5         156.069 
            284         260.398 
            290         418.483 
            296         661.349 
            301         941.813 
            308         1490.73 
            318          3181.7 
            328          5784.5 
            338         10705.3 
            348         18531.9 
            357         37475.2 
            366         61443.9 
            375         89386.3 
            385          139595 
            395          213963 
            405          309468 
            414          434370 
            422          555118 
            430          726462 
            441      1.02107e+6 
            451      1.38237e+6 
            460      1.75284e+6 
            470      2.30574e+6 
            480       2.9589e+6 
            490      3.78816e+6 
            500       4.8137e+6 
            506      2.51108e+7 
            512       9.7459e+7 
            520      1.05529e+8 
            530      1.22025e+8 
            540      1.21307e+8 
            550      1.54876e+8 
            560      1.71859e+8 
            570      1.93791e+8 
            580      1.87603e+8 
            590       2.2607e+8 
            600      2.42289e+8 
            610      2.68925e+8 
            620      2.89398e+8 
            630      3.10723e+8 
            640      3.14334e+8 
            650      3.43087e+8 
            658      3.67224e+8 
            665      3.88626e+8 
            675      3.99042e+8 
            685      4.12437e+8 
            695      4.75286e+8 
            705      4.81985e+8 
            716      5.30715e+8 
            726      5.48052e+8 
            735      5.73827e+8 
            745      6.18732e+8 
            755      6.47451e+8 
            765       6.8017e+8 
            775      7.17362e+8 
            785      7.57341e+8 
            795      7.80014e+8 
            805      8.10925e+8 
            815      8.32664e+8 
            825      8.80184e+8 
            835      8.47827e+8 
            845      9.26437e+8 
            855       9.5483e+8 
            865      9.96774e+8 
            875      1.03917e+9 
            885      1.08513e+9 
            895      1.12136e+9 
            905      1.13526e+9 
            915       1.3883e+9 
            925      6.95097e+9 
            935     1.61163e+10 
            945     3.60055e+10 
            955     4.52228e+10 
            965     5.79724e+10 
            975     2.06344e+10 
            985     5.82164e+10 
            995     5.34866e+10 
           1005     5.62507e+10 
           1015     5.36814e+10 
           1025     2.37152e+10 
           1035     4.74031e+10 
           1045     5.86263e+10 
           1055     5.60411e+10 
           1065     4.89518e+10 
           1075     5.18334e+10 
           1085     4.73558e+10 
           1095     5.12203e+10 
           1105     4.78168e+10 
           1115     4.68569e+10 
           1125     4.11102e+10 
           1135     4.59307e+10 
           1145     4.18504e+10 
           1155       4.273e+10 
           1165     4.23383e+10 
           1175     3.29544e+10 
           1185     3.96012e+10 
           1195     3.71024e+10 
           1205     3.07579e+10 
           1215     1.62939e+10 
           1225     3.26865e+10 
           1235     3.58865e+10 
           1245     3.50887e+10 
           1255      3.4527e+10 
           1265     3.41057e+10 
           1275      3.4085e+10 
           1285     3.33124e+10 
           1295      2.8653e+10 
           1305     2.93039e+10 
           1315     3.12934e+10 
           1325     2.99216e+10 
           1335     2.89106e+10 
           1345     2.84948e+10 
           1355     2.86257e+10 
           1365     2.70371e+10 
           1375     2.66154e+10 
           1385     2.62325e+10 
           1395     2.18891e+10 
           1405     2.25634e+10 
           1415     2.42551e+10 
           1425     2.33111e+10 
           1435     2.34154e+10 
           1442      2.3589e+10 
           1447     2.31906e+10 
           1455     2.26249e+10 
           1465     2.19098e+10 
           1475     2.15826e+10 
           1485     2.11818e+10 
           1495     2.06769e+10 
           1505     1.95598e+10 
           1512     1.89292e+10 
           1517     1.90338e+10 
           1525     1.88217e+10 
           1535      1.7239e+10 
           1545     1.69897e+10 
           1555     1.63294e+10 
           1565     1.67936e+10 
           1575     1.70063e+10 
           1585     1.67489e+10 
           1595     1.66121e+10 
           1605     1.59538e+10 
           1615     1.55214e+10 
           1625     1.54779e+10 
           1635     1.55344e+10 
           1645     1.50509e+10 
           1655     1.51076e+10 
           1665     1.48886e+10 
           1672     1.45256e+10 
           1677     1.50205e+10 
           1685     1.46487e+10 
           1695     1.42102e+10 
           1705     1.37977e+10 
           1715      1.3353e+10 
           1725      1.3077e+10 
           1735      1.3127e+10 
           1745     1.28916e+10 
           1755     1.27806e+10 
           1765     1.23895e+10 
           1775      1.2084e+10 
           1785     1.19975e+10 
           1795     1.19764e+10 
           1805     1.18904e+10 
           1815     1.13875e+10 
           1825     1.13552e+10 
           1835     1.11292e+10 
           1845     1.03911e+10 
           1855     1.03143e+10 
           1865     1.03709e+10 
           1875     1.03767e+10 
           1885      9.67496e+9 
           1895        9.188e+9 
           1905      9.55634e+9 
           1915      9.18005e+9 
           1925      8.86197e+9 
           1935      9.09006e+9 
           1945      9.15756e+9 
           1955      8.52633e+9 
           1967      8.77655e+9 
           1976      8.98479e+9 
           1984      8.51395e+9 
           1995      8.28184e+9 
           2005      8.35369e+9 
           2015      8.34484e+9 
           2025      8.35881e+9 
           2035      7.96338e+9 
           2045      7.88298e+9 
           2055       7.4704e+9 
           2065      7.42464e+9 
           2074      7.57606e+9 
           2078        7.296e+9 
           2085      7.34251e+9 
           2095      7.16752e+9 
           2105      7.30482e+9 
           2115      7.25999e+9 
           2125      7.24213e+9 
           2135      7.10676e+9 
           2145      6.91316e+9 
           2155      6.91794e+9 
           2165      6.82959e+9 
           2175      6.72043e+9 
           2185       6.6256e+9 
           2195      6.57256e+9 
           2205      6.47805e+9 
           2215      6.38383e+9 
           2225      6.27659e+9 
           2235      6.17175e+9 
           2245      6.12459e+9 
           2255      6.00823e+9 
           2265       5.9564e+9 
           2275      5.87583e+9 
           2285      5.79392e+9 
           2295      5.56322e+9 
           2305      5.62092e+9 
           2315      5.53683e+9 
           2325      5.46574e+9 
           2335      5.36707e+9 
           2345      5.32762e+9 
           2355      5.26312e+9 
           2365      5.19439e+9 
           2375        5.112e+9 
           2385      5.03982e+9 
           2395      4.97444e+9 
           2405      4.91427e+9 
           2415      4.83884e+9 
           2425      4.79267e+9 
           2435        4.707e+9 
           2445      4.65812e+9 
           2455      4.60549e+9 
           2465      4.54867e+9 
           2475      4.48431e+9 
           2485      4.42517e+9 
           2495      4.08936e+9 
           2505      4.29794e+9 
           2513      4.18448e+9 
           2518      4.21446e+9 
           2525      4.20147e+9 
           2535      4.15302e+9 
           2545        4.046e+9 
           2555       4.0268e+9 
           2565      3.98252e+9 
           2575      3.94756e+9 
           2585      3.89982e+9 
           2595       3.8522e+9 
           2605      3.82418e+9 
           2615      3.77632e+9 
           2625      3.73245e+9 
           2635      3.68437e+9 
           2645      3.63707e+9 
           2655      3.58969e+9 
           2665      3.52789e+9 
           2675      3.48835e+9 
           2685      3.46947e+9 
           2695      3.38879e+9 
           2705      3.37289e+9 
           2715      3.33736e+9 
           2725      3.27481e+9 
           2735      3.25499e+9 
           2745      3.21581e+9 
           2755      3.18234e+9 
           2765      3.12112e+9 
           2775      3.11598e+9 
           2785      3.07495e+9 
           2795      2.98489e+9 
           2805      2.98658e+9 
           2815       2.9732e+9 
           2825      2.90946e+9 
           2835      2.86348e+9 
           2845      2.87163e+9 
           2855      2.83316e+9 
           2865      2.80313e+9 
           2875      2.77173e+9 
           2885      2.74209e+9 
           2895      2.70947e+9 
           2910      2.65959e+9 
           2930      2.60247e+9 
           2950      2.52566e+9 
           2970      2.49009e+9 
           2990      2.43346e+9 
           3010      2.37383e+9 
           3030      2.32917e+9 
           3050      2.28184e+9 
           3070      2.23518e+9 
           3090      2.16905e+9 
           3110      2.13961e+9 
           3130      2.09216e+9 
           3150      2.05008e+9 
           3170      2.00723e+9 
           3190      1.95027e+9 
           3210      1.92578e+9 
           3230      1.88406e+9 
           3250      1.84768e+9 
           3270      1.81137e+9 
           3290      1.77257e+9 
           3310      1.74017e+9 
           3330      1.70462e+9 
           3350      1.66896e+9 
           3370      1.63786e+9 
           3390      1.60728e+9 
           3410      1.57627e+9 
           3430      1.53921e+9 
           3450      1.50404e+9 
           3470      1.47858e+9 
           3490      1.44996e+9 
           3510      1.42578e+9 
           3530       1.4022e+9 
           3550      1.37575e+9 
           3570       1.3578e+9 
           3590      1.32132e+9 
           3610      1.30207e+9 
           3630      1.27426e+9 
           3640      1.27293e+9 
           3650      1.24739e+9 
           3670      1.23117e+9 
           3690      1.20829e+9 
           3710      1.16628e+9 
           3730      1.12077e+9 
           3750      1.13095e+9 
           3770      1.11252e+9 
           3790      1.15903e+9 
           3810      1.20056e+9 
           3830      1.05659e+9 
           3850      1.22566e+9 
           3870      1.23393e+9 
           3890      9.95643e+8 
           3910      1.21364e+9 
           3930      1.19405e+9 
           3950      1.17084e+9 
           3970      9.24249e+8 
           3990      1.12422e+9 
           4010      1.12123e+9 
           4030      1.05625e+9 
           4050      1.09377e+9 
           4070      1.05719e+9 
           4090      9.73212e+8 
           4110       8.6046e+8 
           4130      9.96946e+8 
           4150      9.91035e+8 
           4170      9.84671e+8 
           4190      9.68577e+8 
           4210      9.55613e+8 
           4230       9.3845e+8 
           4250      9.18584e+8 
           4270       8.9725e+8 
           4290      8.84871e+8 
           4310      8.63171e+8 
           4330       7.8296e+8 
           4350      7.15612e+8 
           4370      8.20161e+8 
           4390      7.94779e+8 
           4410      8.01321e+8 
           4430      7.90243e+8 
           4450      7.78723e+8 
           4470       7.3276e+8 
           4490      7.52539e+8 
           4510      7.43898e+8 
           4530      7.32075e+8 
           4550      7.18939e+8 
           4570      7.06978e+8 
           4590       6.9568e+8 
           4610      6.84924e+8 
           4630      6.74925e+8 
           4650      6.56935e+8 
           4670      6.52616e+8 
           4690      6.43756e+8 
           4710       6.2317e+8 
           4730      6.24781e+8 
           4750      6.14338e+8 
           4770      6.07393e+8 
           4790       5.9798e+8 
           4810      5.86895e+8 
           4830      5.73647e+8 
           4850      5.29832e+8 
           4870      4.75612e+8 
           4890      5.47525e+8 
           4910      5.43496e+8 
           4930      5.23533e+8 
           4950      5.28659e+8 
           4970      5.22674e+8 
           4990      5.14922e+8 
           5010      4.99697e+8 
           5030      4.99886e+8 
           5050      4.89449e+8 
           5070      4.85844e+8 
           5090       4.7866e+8 
           5110      4.71776e+8 
           5130      4.64812e+8 
           5150      4.58254e+8 
           5170      4.51925e+8 
           5190      4.45777e+8 
           5210      4.39238e+8 
           5230      4.33434e+8 
           5250      4.27432e+8 
           5270      4.21413e+8 
           5290      4.15661e+8 
           5310       4.0989e+8 
           5330      4.04274e+8 
           5350      3.98638e+8 
           5370      3.93374e+8 
           5390      3.87919e+8 
           5410      3.82675e+8 
           5430      3.77497e+8 
           5450      3.72373e+8 
           5470      3.67426e+8 
           5490      3.62579e+8 
           5510      3.57805e+8 
           5530      3.53004e+8 
           5550      3.48385e+8 
           5570      3.43763e+8 
           5590      3.39282e+8 
           5610      3.34796e+8 
           5630      3.30485e+8 
           5650      3.25954e+8 
           5670      3.21526e+8 
           5690      3.17094e+8 
           5710      3.13524e+8 
           5730      3.09595e+8 
           5750      3.05201e+8 
           5770      3.01799e+8 
           5790      2.97942e+8 
           5810      2.94175e+8 
           5830      2.90376e+8 
           5850      2.86765e+8 
           5870      2.74493e+8 
           5890        2.788e+8 
           5910      2.76032e+8 
           5930      2.72566e+8 
           5950       2.6914e+8 
           5970       2.6604e+8 
           5990      2.62618e+8 
           6010      2.59507e+8 
           6030      2.56286e+8 
           6050      2.53194e+8 
           6070      2.50148e+8 
           6090      2.47106e+8 
           6110      2.44129e+8 
           6130      2.41205e+8 
           6150      2.38145e+8 
           6170      2.35376e+8 
           6190      2.32629e+8 
           6210      2.29872e+8 
           6230      2.27147e+8 
           6250      2.24413e+8 
           6270      2.21795e+8 
           6290      2.19196e+8 
           6310      2.16589e+8 
           6330      2.14094e+8 
           6350      2.11458e+8 
           6370      2.09102e+8 
           6390      2.06697e+8 
           6410       2.0429e+8 
           6430      2.01974e+8 
           6450      1.99655e+8 
           6470      1.97243e+8 
           6490       1.9501e+8 
           6510      1.92658e+8 
           6530      1.89615e+8 
           6550      1.81004e+8 
           6570      1.61061e+8 
           6590      1.81806e+8 
           6610      1.81768e+8 
           6630      1.80159e+8 
           6650      1.78191e+8 
           6670      1.74397e+8 
           6690      1.72523e+8 
           6710      1.72391e+8 
           6730      1.70378e+8 
           6750      1.68626e+8 
           6770      1.66776e+8 
           6790      1.64774e+8 
           6810      1.63125e+8 
           6830      1.61315e+8 
           6850      1.59612e+8 
           6870      1.57878e+8 
           6890      1.56129e+8 
           6910      1.54414e+8 
           6930      1.52826e+8 
           6950      1.51199e+8 
           6970      1.49588e+8 
           6990      1.47985e+8 
           7010      1.46414e+8 
           7030      1.44858e+8 
           7050      1.43332e+8 
           7070      1.39553e+8 
           7090      1.40333e+8 
           7110      1.38844e+8 
           7130      1.37399e+8 
           7150      1.35968e+8 
           7170      1.34537e+8 
           7190      1.33162e+8 
           7210      1.31787e+8 
           7230      1.29834e+8 
           7250      1.29018e+8 
           7270      1.27753e+8 
           7290      1.25401e+8 
           7310      1.25139e+8 
           7330      1.23875e+8 
           7350      1.22616e+8 
           7370      1.21376e+8 
           7390      1.20147e+8 
           7410      1.18937e+8 
           7430      1.17731e+8 
           7450       1.1657e+8 
           7470      1.15279e+8 
           7490      1.14248e+8 
           7510      1.13079e+8 
           7530      1.11981e+8 
           7550      1.10879e+8 
           7570      1.09788e+8 
           7590        1.087e+8 
           7610      1.07596e+8 
           7630      1.06573e+8 
           7650      1.05534e+8 
           7670      1.04504e+8 
           7690      1.03483e+8 
           7710      1.02478e+8 
           7730      1.01476e+8 
           7750      1.00501e+8 
           7770      9.94413e+7 
           7790      9.85775e+7 
           7810      9.75792e+7 
           7830      9.66942e+7 
           7850      9.58414e+7 
           7870      9.48987e+7 
           7890       9.3922e+7 
           7910      9.31466e+7 
           7930       9.2252e+7 
           7950      9.13473e+7 
           7970      9.03912e+7 
           7990      8.95085e+7 
           8010      8.86393e+7 
           8030       8.7801e+7 
           8050       8.6999e+7 
           8070      8.62502e+7 
           8090      8.53005e+7 
           8110      8.45022e+7 
           8130      8.38932e+7 
           8150      8.30396e+7 
           8170      8.23795e+7 
           8190      8.14666e+7 
           8210      8.05504e+7 
           8230      7.99814e+7 
           8250      7.93228e+7 
           8270      7.81629e+7 
           8290      7.78356e+7 
           8310      7.71668e+7 
           8330      7.64384e+7 
           8350      7.53972e+7 
           8370      7.49513e+7 
           8390      7.43964e+7 
           8410      7.37233e+7 
           8430      7.30188e+7 
           8450       7.1861e+7 
           8470      7.17006e+7 
           8490       7.0898e+7 
           8510      7.03206e+7 
           8530      6.96392e+7 
           8550       6.8649e+7 
           8570      6.89342e+7 
