# Kurucz ODFNEW /NOVER (2003)
# teff = 26000 K (value for the effective temperature for the model. Temperatures are given in K)
# logg = 3 log(cm/s2) (value for Log(G) for the model.)
# meta = 0.5  (value for the Metallicity for the model.)
# lh = 1.25  (l/Hp where l is the  mixing length of the convective element and Hp is the pressure scale height)
# vtur = 2 km/s (Microturbulence velocity)
# alpha = 0.4  (Alpha)
#
# column 1: WAVELENGTH (ANGSTROM), Wavelength in Angstrom
# column 2: FLUX (ERG/CM2/S/A), Flux in erg/cm2/s/A
          147.2     5.76121e-13 
            151     2.26226e-12 
          155.2     9.52903e-12 
          158.8     3.08779e-11 
            162     8.43033e-11 
            166     2.81057e-10 
          170.3      9.5937e-10 
          173.4      2.27071e-9 
          176.8      5.61366e-9 
          180.2      1.34312e-8 
          181.7      1.95161e-8 
          186.1      5.67261e-8 
            191      1.76659e-7 
          193.9      3.36857e-7 
          198.4      8.85257e-7 
          201.8      1.78729e-6 
            205      3.39213e-6 
          210.5       9.7876e-6 
          216.2      2.76955e-5 
          219.8      5.22408e-5 
            223      9.01578e-5 
          226.8     0.000189514 
            230      0.00897385 
            234       0.0203948 
            240        0.044802 
          246.5        0.103615 
          252.4        0.216349 
          256.8        0.356037 
            260        0.607504 
            264         0.94431 
          268.5         1.61593 
          273.5         2.73383 
          278.5         4.37418 
            284         11.0175 
            290         19.1227 
            296         31.7461 
            301         47.0574 
            308         139.344 
            318         334.781 
            328         637.174 
            338         1330.48 
            348          2504.5 
            357         16178.1 
            366         47525.7 
            375         67054.5 
            385          121463 
            395          545856 
            405          761291 
            414      1.82795e+6 
            422      2.40887e+6 
            430      3.22125e+6 
            441      4.40168e+6 
            451      5.20417e+6 
            460      5.76862e+6 
            470      8.29419e+6 
            480      1.07682e+7 
            490       1.3062e+7 
            500       1.6888e+7 
            506      2.69441e+7 
            512      3.75502e+8 
            520      3.94995e+8 
            530      3.79975e+8 
            540       4.0563e+8 
            550      5.60872e+8 
            560       9.3828e+8 
            570       1.1576e+9 
            580      9.74524e+8 
            590      1.11742e+9 
            600      6.07727e+8 
            610      1.17291e+9 
            620      1.60267e+9 
            630       1.5875e+9 
            640      1.25491e+9 
            650      7.48269e+8 
            658      7.01854e+8 
            665      1.25101e+9 
            675      1.66162e+9 
            685      1.00343e+9 
            695      1.88846e+9 
            705      1.05449e+9 
            716      2.29158e+9 
            726      2.06121e+9 
            735      2.35888e+9 
            745      1.94791e+9 
            755      2.05745e+9 
            765      2.37036e+9 
            775       2.7731e+9 
            785      2.93228e+9 
            795      2.92973e+9 
            805       2.6588e+9 
            815      2.52539e+9 
            825      3.06686e+9 
            835      1.67453e+9 
            845      2.88652e+9 
            855      2.85434e+9 
            865      3.04158e+9 
            875      3.14836e+9 
            885      3.34587e+9 
            895      3.41788e+9 
            905      3.21655e+9 
            915      6.30683e+9 
            925      1.9138e+10 
            935     2.71085e+10 
            945     2.77211e+10 
            955     2.73539e+10 
            965     2.55762e+10 
            975      5.72847e+9 
            985      1.4745e+10 
            995     1.92755e+10 
           1005     2.35648e+10 
           1015     2.57356e+10 
           1025     2.41161e+10 
           1035     2.33045e+10 
           1045     3.04616e+10 
           1055     2.81221e+10 
           1065     2.20761e+10 
           1075     2.47451e+10 
           1085     2.38581e+10 
           1095     2.57192e+10 
           1105     2.39454e+10 
           1115     2.24997e+10 
           1125     1.37175e+10 
           1135     2.26829e+10 
           1145     2.23789e+10 
           1155     2.15483e+10 
           1165     2.11725e+10 
           1175     1.00743e+10 
           1185     1.90127e+10 
           1195     1.91015e+10 
           1205     1.52056e+10 
           1215     1.71304e+10 
           1225     1.88954e+10 
           1235     2.05523e+10 
           1245      1.9053e+10 
           1255     1.95894e+10 
           1265     2.02461e+10 
           1275     2.12384e+10 
           1285     2.12325e+10 
           1295     1.67917e+10 
           1305     1.82141e+10 
           1315     2.12516e+10 
           1325     2.02486e+10 
           1335     1.95684e+10 
           1345     1.96971e+10 
           1355     1.94836e+10 
           1365     1.84707e+10 
           1375     1.73017e+10 
           1385     1.48704e+10 
           1395      6.41748e+9 
           1405      8.87059e+9 
           1415     1.51947e+10 
           1425     1.47048e+10 
           1435     1.59991e+10 
           1442     1.61056e+10 
           1447     1.59781e+10 
           1455     1.51291e+10 
           1465     1.42675e+10 
           1475     1.49592e+10 
           1485     1.48432e+10 
           1495      1.4425e+10 
           1505     1.35581e+10 
           1512      1.2796e+10 
           1517     1.32192e+10 
           1525     1.28779e+10 
           1535     1.07497e+10 
           1545      9.09034e+9 
           1555       9.0975e+9 
           1565     1.07793e+10 
           1575     1.17624e+10 
           1585      1.1858e+10 
           1595     1.17718e+10 
           1605     1.14198e+10 
           1615     1.09301e+10 
           1625     1.10786e+10 
           1635     1.16582e+10 
           1645     1.19529e+10 
           1655     1.15705e+10 
           1665     1.15738e+10 
           1672     1.05476e+10 
           1677     1.27981e+10 
           1685     1.20264e+10 
           1695     1.13899e+10 
           1705     1.14062e+10 
           1715     1.05654e+10 
           1725     1.03714e+10 
           1735     1.07885e+10 
           1745     1.06779e+10 
           1755     1.06483e+10 
           1765     1.07161e+10 
           1775     1.00619e+10 
           1785     1.03042e+10 
           1795     1.02663e+10 
           1805     1.03749e+10 
           1815      9.64826e+9 
           1825      9.84991e+9 
           1835      9.74464e+9 
           1845      8.95135e+9 
           1855      9.34985e+9 
           1865      9.41243e+9 
           1875      9.36684e+9 
           1885      8.61355e+9 
           1895      8.17836e+9 
           1905      8.74984e+9 
           1915      8.35144e+9 
           1925      7.84472e+9 
           1935      8.46202e+9 
           1945      8.66412e+9 
           1955       7.6747e+9 
           1967      8.33031e+9 
           1976      8.72477e+9 
           1984      8.21209e+9 
           1995      8.06366e+9 
           2005      8.35941e+9 
           2015      8.34781e+9 
           2025      8.47962e+9 
           2035      7.84139e+9 
           2045      7.89163e+9 
           2055      7.10732e+9 
           2065      7.04051e+9 
           2074      7.62212e+9 
           2078      7.19733e+9 
           2085      7.67892e+9 
           2095      7.23129e+9 
           2105      7.45106e+9 
           2115      7.56672e+9 
           2125      7.54965e+9 
           2135      7.47008e+9 
           2145      7.14906e+9 
           2155       7.3633e+9 
           2165      7.22334e+9 
           2175      7.17515e+9 
           2185      7.05462e+9 
           2195      7.12623e+9 
           2205      7.07608e+9 
           2215      6.96403e+9 
           2225      6.81345e+9 
           2235      6.69138e+9 
           2245      6.70052e+9 
           2255      6.57069e+9 
           2265      6.56039e+9 
           2275      6.50742e+9 
           2285      6.37779e+9 
           2295      5.29178e+9 
           2305      6.15088e+9 
           2315        6.027e+9 
           2325      6.03116e+9 
           2335      5.89932e+9 
           2345      5.93954e+9 
           2355       5.8388e+9 
           2365      5.76313e+9 
           2375      5.63389e+9 
           2385      5.52746e+9 
           2395      5.47234e+9 
           2405      5.45754e+9 
           2415      5.35184e+9 
           2425      5.34848e+9 
           2435      5.24389e+9 
           2445      5.21231e+9 
           2455      5.14749e+9 
           2465      5.03624e+9 
           2475      4.86439e+9 
           2485      4.31579e+9 
           2495      2.48895e+9 
           2505      3.84106e+9 
           2513      4.36571e+9 
           2518      4.51048e+9 
           2525      4.65846e+9 
           2535      4.69371e+9 
           2545      4.52318e+9 
           2555      4.58283e+9 
           2565      4.51006e+9 
           2575      4.51072e+9 
           2585      4.45791e+9 
           2595      4.39973e+9 
           2605      4.38517e+9 
           2615      4.27748e+9 
           2625      4.26158e+9 
           2635      4.23206e+9 
           2645      4.16835e+9 
           2655      4.12926e+9 
           2665      3.99001e+9 
           2675      3.94402e+9 
           2685      3.97793e+9 
           2695      3.86474e+9 
           2705       3.8042e+9 
           2715      3.78849e+9 
           2725      3.77819e+9 
           2735      3.72498e+9 
           2745      3.70559e+9 
           2755      3.66945e+9 
           2765      3.62576e+9 
           2775      3.63084e+9 
           2785      3.54711e+9 
           2795       3.4177e+9 
           2805      3.47731e+9 
           2815      3.46882e+9 
           2825      3.44454e+9 
           2835      3.34238e+9 
           2845      3.35644e+9 
           2855      3.28841e+9 
           2865       3.2654e+9 
           2875      3.22144e+9 
           2885      3.19784e+9 
           2895      3.16095e+9 
           2910      3.06643e+9 
           2930      3.05815e+9 
           2950      2.97838e+9 
           2970      2.91871e+9 
           2990      2.83277e+9 
           3010      2.71583e+9 
           3030      2.67591e+9 
           3050      2.66616e+9 
           3070      2.63438e+9 
           3090      2.52277e+9 
           3110      2.53667e+9 
           3130      2.45782e+9 
           3150      2.43256e+9 
           3170      2.37058e+9 
           3190      2.33736e+9 
           3210      2.28423e+9 
           3230      2.22158e+9 
           3250      2.20581e+9 
           3270      2.13705e+9 
           3290      2.10645e+9 
           3310      2.06006e+9 
           3330      2.00974e+9 
           3350       1.9696e+9 
           3370      1.92911e+9 
           3390      1.91726e+9 
           3410      1.88003e+9 
           3430      1.85885e+9 
           3450       1.8095e+9 
           3470      1.77976e+9 
           3490      1.74423e+9 
           3510      1.71062e+9 
           3530      1.69407e+9 
           3550      1.65644e+9 
           3570      1.62271e+9 
           3590      1.58717e+9 
           3610      1.55989e+9 
           3630      1.53315e+9 
           3640      1.51842e+9 
           3650      1.46962e+9 
           3670      1.44962e+9 
           3690      1.41732e+9 
           3710      1.37375e+9 
           3730       1.3609e+9 
           3750      1.38843e+9 
           3770       1.3569e+9 
           3790      1.35815e+9 
           3810      1.37055e+9 
           3830      1.28824e+9 
           3850      1.32992e+9 
           3870      1.27458e+9 
           3890      1.23362e+9 
           3910      1.27271e+9 
           3930      1.22862e+9 
           3950      1.20689e+9 
           3970      1.13622e+9 
           3990      1.18508e+9 
           4010       1.1668e+9 
           4030      1.14003e+9 
           4050      1.12705e+9 
           4070      1.07825e+9 
           4090      1.04122e+9 
           4110       1.0021e+9 
           4130      1.03593e+9 
           4150      1.02647e+9 
           4170      1.02226e+9 
           4190      1.00529e+9 
           4210      9.93341e+8 
           4230      9.74537e+8 
           4250      9.47992e+8 
           4270      9.25909e+8 
           4290      9.07061e+8 
           4310       8.8481e+8 
           4330      8.67915e+8 
           4350      8.22862e+8 
           4370      8.50896e+8 
           4390      8.48165e+8 
           4410      8.29312e+8 
           4430      8.26621e+8 
           4450      8.08458e+8 
           4470      7.96055e+8 
           4490      7.90362e+8 
           4510      7.74773e+8 
           4530      7.68425e+8 
           4550       7.5597e+8 
           4570      7.45832e+8 
           4590      7.31622e+8 
           4610      7.17594e+8 
           4630      7.07436e+8 
           4650      6.71605e+8 
           4670      6.84608e+8 
           4690      6.79004e+8 
           4710      6.60785e+8 
           4730      6.66743e+8 
           4750      6.54361e+8 
           4770      6.52495e+8 
           4790      6.42641e+8 
           4810      6.30485e+8 
           4830      6.19429e+8 
           4850       6.0951e+8 
           4870      5.71315e+8 
           4890      5.94648e+8 
           4910       5.8586e+8 
           4930      5.74187e+8 
           4950      5.65575e+8 
           4970      5.65257e+8 
           4990      5.57058e+8 
           5010        5.374e+8 
           5030      5.37885e+8 
           5050      5.30767e+8 
           5070       5.2669e+8 
           5090      5.18125e+8 
           5110      5.10744e+8 
           5130      5.02503e+8 
           5150      4.96137e+8 
           5170      4.89346e+8 
           5190      4.83763e+8 
           5210      4.77655e+8 
           5230      4.71544e+8 
           5250      4.63994e+8 
           5270      4.56884e+8 
           5290      4.52884e+8 
           5310      4.46433e+8 
           5330      4.41046e+8 
           5350      4.35294e+8 
           5370      4.29549e+8 
           5390      4.22594e+8 
           5410      4.16849e+8 
           5430      4.13107e+8 
           5450      4.07239e+8 
           5470      4.01849e+8 
           5490      3.96765e+8 
           5510      3.91867e+8 
           5530      3.86561e+8 
           5550      3.82313e+8 
           5570      3.76961e+8 
           5590      3.71472e+8 
           5610      3.67846e+8 
           5630      3.63276e+8 
           5650      3.58219e+8 
           5670      3.52286e+8 
           5690       3.4388e+8 
           5710      3.39268e+8 
           5730      3.35756e+8 
           5750      3.30075e+8 
           5770      3.28141e+8 
           5790      3.24024e+8 
           5810      3.19788e+8 
           5830      3.15736e+8 
           5850       3.1336e+8 
           5870      3.05019e+8 
           5890      3.05014e+8 
           5910      3.02586e+8 
           5930      2.99242e+8 
           5950       2.9601e+8 
           5970      2.94093e+8 
           5990      2.89277e+8 
           6010      2.86562e+8 
           6030      2.82488e+8 
           6050       2.7943e+8 
           6070      2.76538e+8 
           6090      2.73536e+8 
           6110      2.69983e+8 
           6130      2.66981e+8 
           6150      2.62797e+8 
           6170      2.59839e+8 
           6190       2.5772e+8 
           6210      2.54998e+8 
           6230      2.51674e+8 
           6250      2.48485e+8 
           6270       2.4602e+8 
           6290      2.43297e+8 
           6310      2.39732e+8 
           6330      2.37862e+8 
           6350       2.3461e+8 
           6370      2.32508e+8 
           6390      2.29827e+8 
           6410      2.27002e+8 
           6430      2.24753e+8 
           6450      2.22013e+8 
           6470      2.18572e+8 
           6490        2.161e+8 
           6510      2.13485e+8 
           6530      2.11314e+8 
           6550      2.08831e+8 
           6570      1.92847e+8 
           6590      2.03927e+8 
           6610      2.02591e+8 
           6630      2.00771e+8 
           6650      1.98057e+8 
           6670      1.94686e+8 
           6690       1.9264e+8 
           6710      1.91745e+8 
           6730      1.88843e+8 
           6750      1.87767e+8 
           6770      1.85977e+8 
           6790      1.82971e+8 
           6810      1.81906e+8 
           6830      1.79647e+8 
           6850      1.78038e+8 
           6870      1.75989e+8 
           6890      1.73564e+8 
           6910      1.71267e+8 
           6930      1.70774e+8 
           6950      1.68966e+8 
           6970      1.67214e+8 
           6990      1.65395e+8 
           7010      1.63471e+8 
           7030      1.61574e+8 
           7050      1.60038e+8 
           7070      1.56556e+8 
           7090      1.56948e+8 
           7110      1.54233e+8 
           7130      1.52865e+8 
           7150       1.5218e+8 
           7170      1.50439e+8 
           7190      1.49042e+8 
           7210      1.47564e+8 
           7230      1.44226e+8 
           7250      1.43969e+8 
           7270      1.43092e+8 
           7290      1.40749e+8 
           7310      1.40099e+8 
           7330      1.38719e+8 
           7350      1.37337e+8 
           7370       1.3599e+8 
           7390      1.34682e+8 
           7410       1.3329e+8 
           7430       1.3198e+8 
           7450       1.3056e+8 
           7470      1.28241e+8 
           7490      1.27645e+8 
           7510      1.26745e+8 
           7530      1.25329e+8 
           7550      1.24328e+8 
           7570      1.23081e+8 
           7590      1.21596e+8 
           7610      1.20249e+8 
           7630      1.19412e+8 
           7650      1.18222e+8 
           7670       1.1726e+8 
           7690      1.15868e+8 
           7710       1.1483e+8 
           7730      1.13486e+8 
           7750      1.12707e+8 
           7770      1.11647e+8 
           7790      1.10665e+8 
           7810      1.09604e+8 
           7830      1.08578e+8 
           7850      1.07439e+8 
           7870      1.06072e+8 
           7890      1.05045e+8 
           7910      1.04382e+8 
           7930      1.03359e+8 
           7950      1.02553e+8 
           7970      1.01458e+8 
           7990      1.00591e+8 
           8010      9.96194e+7 
           8030      9.86681e+7 
           8050      9.78703e+7 
           8070      9.69693e+7 
           8090      9.60127e+7 
           8110      9.42968e+7 
           8130       9.4335e+7 
           8150      9.33791e+7 
           8170      9.26233e+7 
           8190      9.10258e+7 
           8210      8.99904e+7 
           8230      8.89528e+7 
           8250      8.86771e+7 
           8270      8.68385e+7 
           8290      8.69408e+7 
           8310      8.63482e+7 
           8330      8.54618e+7 
           8350      8.44045e+7 
           8370      8.37327e+7 
           8390      8.32912e+7 
           8410      8.23682e+7 
           8430        8.184e+7 
           8450      8.08779e+7 
           8470      8.00973e+7 
           8490      7.99451e+7 
           8510      7.80976e+7 
           8530      7.87933e+7 
           8550       7.6374e+7 
           8570      7.78697e+7 
