# Kurucz ODFNEW /NOVER (2003)
# teff = 20000 K (value for the effective temperature for the model. Temperatures are given in K)
# logg = 5 log(cm/s2) (value for Log(G) for the model.)
# meta = 0  (value for the Metallicity for the model.)
# lh = 1.25  (l/Hp where l is the  mixing length of the convective element and Hp is the pressure scale height)
# vtur = 2 km/s (Microturbulence velocity)
# alpha = 0  (Alpha)
#
# column 1: WAVELENGTH (ANGSTROM), Wavelength in Angstrom
# column 2: FLUX (ERG/CM2/S/A), Flux in erg/cm2/s/A
          147.2     4.42262e-19 
            151     2.59783e-18 
          155.2     1.66319e-17 
          158.8     7.54193e-17 
            162     2.73446e-16 
            166     1.27613e-15 
          170.3     6.16051e-15 
          173.4     1.82817e-14 
          176.8     5.76286e-14 
          180.2     1.73978e-13 
          181.7     2.79476e-13 
          186.1     1.07564e-12 
            191     4.48407e-12 
          193.9     1.00622e-11 
          198.4     3.36881e-11 
          201.8     8.11967e-11 
            205     1.81287e-10 
          210.5     6.78169e-10 
          216.2      2.48246e-9 
          219.8      5.44523e-9 
            223      1.06968e-8 
          226.8      2.32996e-8 
            230      8.00105e-8 
            234      1.96518e-7 
            240      5.99497e-7 
          246.5      1.86572e-6 
          252.4      4.98101e-6 
          256.8      9.90349e-6 
            260      1.64936e-5 
            264      3.01104e-5 
          268.5      5.78689e-5 
          273.5     0.000116475 
          278.5      0.00022931 
            284     0.000470118 
            290     0.000993338 
            296      0.00203113 
            301      0.00361215 
            308      0.00775706 
            318       0.0222903 
            328        0.058934 
            338        0.148411 
            348        0.351955 
            357        0.739927 
            366         1.49341 
            375         2.87908 
            385         5.77758 
            395         11.1434 
            405         20.7994 
            414         35.5462 
            422         55.8333 
            430         86.0732 
            441         153.097 
            451           251.3 
            460         383.798 
            470         603.364 
            480         927.925 
            490         1402.37 
            500         2079.55 
            506         16834.2 
            512         69326.1 
            520           88360 
            530          122978 
            540          146067 
            550          211516 
            560          262665 
            570          340181 
            580          366942 
            590          502454 
            600          626145 
            610          781787 
            620          923007 
            630      1.10503e+6 
            640      1.24442e+6 
            650      1.37459e+6 
            658      1.71518e+6 
            665      1.90714e+6 
            675      2.17856e+6 
            685      2.49743e+6 
            695      2.99075e+6 
            705      3.38365e+6 
            716      3.91158e+6 
            726      4.39216e+6 
            735      4.88401e+6 
            745      5.60195e+6 
            755       6.3143e+6 
            765      7.07271e+6 
            775      7.92629e+6 
            785      8.84196e+6 
            795      9.66285e+6 
            805      1.06399e+7 
            815      1.16117e+7 
            825      1.28945e+7 
            835      1.37059e+7 
            845      1.50702e+7 
            855      1.63828e+7 
            865      1.79306e+7 
            875      1.95921e+7 
            885      2.14549e+7 
            895      2.31369e+7 
            905      2.41237e+7 
            915      3.53734e+7 
            925      1.17049e+8 
            935      2.55933e+8 
            945      9.44455e+8 
            955      2.75558e+9 
            965       4.0295e+9 
            975      8.22712e+8 
            985      7.16125e+9 
            995      7.52374e+9 
           1005      8.88612e+9 
           1015      6.17153e+9 
           1025      7.07543e+8 
           1035      3.85829e+9 
           1045     1.04464e+10 
           1055     1.07783e+10 
           1065      8.55013e+9 
           1075     1.05189e+10 
           1085      9.35307e+9 
           1095     1.05026e+10 
           1105      9.24063e+9 
           1115      8.80412e+9 
           1125      8.25389e+9 
           1135      9.94357e+9 
           1145      8.38789e+9 
           1155      9.11561e+9 
           1165      9.46914e+9 
           1175      7.10632e+9 
           1185      9.22786e+9 
           1195      6.09985e+9 
           1205        3.411e+9 
           1215      7.87898e+8 
           1225      3.18731e+9 
           1235      7.58782e+9 
           1245      8.49183e+9 
           1255      8.39005e+9 
           1265      7.66325e+9 
           1275      8.38938e+9 
           1285       8.6944e+9 
           1295      6.03095e+9 
           1305      5.42367e+9 
           1315      8.07978e+9 
           1325      7.57976e+9 
           1335      6.78175e+9 
           1345      7.61133e+9 
           1355      7.35331e+9 
           1365      6.65758e+9 
           1375      6.72449e+9 
           1385      6.82825e+9 
           1395      6.06457e+9 
           1405      6.30737e+9 
           1415      6.17018e+9 
           1425      6.28091e+9 
           1435      6.21215e+9 
           1442      6.47303e+9 
           1447      6.38303e+9 
           1455      6.22121e+9 
           1465      5.83325e+9 
           1475      5.74715e+9 
           1485      5.55282e+9 
           1495      5.61127e+9 
           1505      5.18234e+9 
           1512      4.74705e+9 
           1517      4.98232e+9 
           1525      5.02851e+9 
           1535      4.54942e+9 
           1545        4.685e+9 
           1555      4.41507e+9 
           1565      4.45004e+9 
           1575      4.67816e+9 
           1585      4.67316e+9 
           1595      4.71722e+9 
           1605      4.58886e+9 
           1615      4.56543e+9 
           1625      4.38914e+9 
           1635      4.53404e+9 
           1645      4.49189e+9 
           1655      4.20602e+9 
           1665      4.50408e+9 
           1672      4.30864e+9 
           1677      4.39256e+9 
           1685      4.43972e+9 
           1695      4.22817e+9 
           1705      4.01517e+9 
           1715      3.80287e+9 
           1725      3.73738e+9 
           1735      3.88953e+9 
           1745      3.74388e+9 
           1755      3.85827e+9 
           1765      3.56277e+9 
           1775      3.61385e+9 
           1785      3.62302e+9 
           1795      3.73184e+9 
           1805      3.70506e+9 
           1815      3.42842e+9 
           1825      3.51718e+9 
           1835      3.35756e+9 
           1845      3.11596e+9 
           1855      3.03144e+9 
           1865      3.07213e+9 
           1875      3.27734e+9 
           1885      2.98777e+9 
           1895      2.82288e+9 
           1905      3.00769e+9 
           1915      2.84456e+9 
           1925      2.77147e+9 
           1935      2.85005e+9 
           1945      2.89392e+9 
           1955      2.68618e+9 
           1967       2.8644e+9 
           1976      2.95695e+9 
           1984      2.75398e+9 
           1995      2.67997e+9 
           2005      2.73905e+9 
           2015      2.63909e+9 
           2025      2.78149e+9 
           2035      2.59257e+9 
           2045      2.60763e+9 
           2055      2.50801e+9 
           2065      2.54968e+9 
           2074      2.61159e+9 
           2078      2.47312e+9 
           2085       2.5354e+9 
           2095      2.40285e+9 
           2105      2.44954e+9 
           2115      2.43257e+9 
           2125       2.4668e+9 
           2135      2.38027e+9 
           2145      2.32472e+9 
           2155       2.3758e+9 
           2165      2.32199e+9 
           2175      2.29153e+9 
           2185      2.24007e+9 
           2195      2.26545e+9 
           2205      2.20837e+9 
           2215      2.15976e+9 
           2225      2.08484e+9 
           2235      2.13289e+9 
           2245      2.09562e+9 
           2255      2.02581e+9 
           2265      2.05525e+9 
           2275      2.04545e+9 
           2285      2.04699e+9 
           2295      1.97076e+9 
           2305      1.94923e+9 
           2315      1.89664e+9 
           2325      1.87618e+9 
           2335       1.8048e+9 
           2345      1.76786e+9 
           2355      1.78643e+9 
           2365      1.73115e+9 
           2375      1.73724e+9 
           2385      1.68237e+9 
           2395      1.72522e+9 
           2405      1.66225e+9 
           2415      1.66608e+9 
           2425      1.67563e+9 
           2435      1.61094e+9 
           2445      1.63389e+9 
           2455       1.6203e+9 
           2465      1.58945e+9 
           2475       1.5607e+9 
           2485      1.58465e+9 
           2495      1.53203e+9 
           2505       1.5589e+9 
           2513      1.49131e+9 
           2518      1.53073e+9 
           2525      1.47758e+9 
           2535      1.46114e+9 
           2545        1.432e+9 
           2555      1.46098e+9 
           2565      1.44004e+9 
           2575      1.45683e+9 
           2585      1.45229e+9 
           2595      1.43939e+9 
           2605      1.41276e+9 
           2615      1.40148e+9 
           2625      1.38852e+9 
           2635       1.3811e+9 
           2645      1.39862e+9 
           2655      1.38447e+9 
           2665      1.34222e+9 
           2675      1.34984e+9 
           2685       1.3374e+9 
           2695      1.30763e+9 
           2705      1.30478e+9 
           2715      1.28087e+9 
           2725      1.26007e+9 
           2735      1.27298e+9 
           2745      1.21613e+9 
           2755      1.21164e+9 
           2765      1.21028e+9 
           2775      1.22334e+9 
           2785      1.20879e+9 
           2795      1.15304e+9 
           2805      1.17696e+9 
           2815       1.1825e+9 
           2825      1.15927e+9 
           2835      1.11942e+9 
           2845      1.12069e+9 
           2855      1.12053e+9 
           2865      1.12603e+9 
           2875      1.10718e+9 
           2885      1.10001e+9 
           2895      1.09166e+9 
           2910      1.08004e+9 
           2930       1.0531e+9 
           2950      1.02675e+9 
           2970      1.01775e+9 
           2990      9.94529e+8 
           3010      9.81731e+8 
           3030      9.67952e+8 
           3050      9.48131e+8 
           3070      9.30102e+8 
           3090      9.12814e+8 
           3110      8.95191e+8 
           3130      8.81287e+8 
           3150      8.64931e+8 
           3170      8.48203e+8 
           3190      8.23643e+8 
           3210      8.17763e+8 
           3230      8.04345e+8 
           3250      7.90588e+8 
           3270      7.77741e+8 
           3290      7.63719e+8 
           3310       7.5187e+8 
           3330      7.38449e+8 
           3350       7.2422e+8 
           3370      7.12863e+8 
           3390      7.01035e+8 
           3410      6.89498e+8 
           3430      6.76005e+8 
           3450      6.63031e+8 
           3470      6.53126e+8 
           3490      6.42414e+8 
           3510      6.32332e+8 
           3530      6.22889e+8 
           3550      6.12632e+8 
           3570      6.05255e+8 
           3590      5.91164e+8 
           3610      5.83388e+8 
           3630      5.73147e+8 
           3640       5.7202e+8 
           3650      5.65271e+8 
           3670      5.58567e+8 
           3690      5.49845e+8 
           3710      5.32464e+8 
           3730      5.08898e+8 
           3750      5.14522e+8 
           3770      5.08547e+8 
           3790      5.47964e+8 
           3810      5.84321e+8 
           3830      4.98157e+8 
           3850      6.13925e+8 
           3870      6.44673e+8 
           3890      4.61573e+8 
           3910      6.42023e+8 
           3930       6.4553e+8 
           3950      6.24836e+8 
           3970      4.32856e+8 
           3990      5.92754e+8 
           4010      6.14829e+8 
           4030      5.67823e+8 
           4050      6.06901e+8 
           4070      5.84759e+8 
           4090      5.00208e+8 
           4110      4.22513e+8 
           4130      5.42536e+8 
           4150      5.50006e+8 
           4170      5.49444e+8 
           4190      5.44619e+8 
           4210      5.37714e+8 
           4230      5.28115e+8 
           4250      5.18213e+8 
           4270      5.02398e+8 
           4290      4.98973e+8 
           4310      4.81638e+8 
           4330       4.0223e+8 
           4350      3.61668e+8 
           4370      4.54358e+8 
           4390      4.41861e+8 
           4410      4.54502e+8 
           4430      4.46415e+8 
           4450      4.42715e+8 
           4470      4.07144e+8 
           4490      4.24734e+8 
           4510      4.24365e+8 
           4530      4.16661e+8 
           4550      4.10695e+8 
           4570      4.05015e+8 
           4590      3.98972e+8 
           4610      3.92451e+8 
           4630      3.85553e+8 
           4650      3.79857e+8 
           4670      3.75366e+8 
           4690      3.70476e+8 
           4710      3.56791e+8 
           4730      3.57097e+8 
           4750      3.51558e+8 
           4770      3.49113e+8 
           4790      3.42838e+8 
           4810      3.34994e+8 
           4830      3.24539e+8 
           4850      2.79987e+8 
           4870      2.45494e+8 
           4890      3.07706e+8 
           4910      3.11065e+8 
           4930      2.98517e+8 
           4950      3.05904e+8 
           4970      3.02745e+8 
           4990      2.98205e+8 
           5010      2.86959e+8 
           5030      2.88999e+8 
           5050      2.80658e+8 
           5070      2.82039e+8 
           5090      2.78009e+8 
           5110      2.73644e+8 
           5130      2.69468e+8 
           5150      2.65461e+8 
           5170      2.63129e+8 
           5190      2.59609e+8 
           5210      2.54067e+8 
           5230      2.52664e+8 
           5250      2.49444e+8 
           5270      2.45846e+8 
           5290      2.43182e+8 
           5310      2.39777e+8 
           5330      2.36403e+8 
           5350      2.32783e+8 
           5370      2.30674e+8 
           5390      2.27629e+8 
           5410      2.24495e+8 
           5430      2.21043e+8 
           5450       2.1851e+8 
           5470      2.15555e+8 
           5490      2.13325e+8 
           5510      2.10439e+8 
           5530       2.0786e+8 
           5550      2.05338e+8 
           5570      2.02651e+8 
           5590      2.00191e+8 
           5610      1.97485e+8 
           5630      1.95431e+8 
           5650      1.91631e+8 
           5670      1.89438e+8 
           5690      1.87631e+8 
           5710      1.85741e+8 
           5730       1.8354e+8 
           5750       1.8124e+8 
           5770      1.79137e+8 
           5790      1.76902e+8 
           5810      1.74704e+8 
           5830      1.72587e+8 
           5850      1.70529e+8 
           5870      1.62218e+8 
           5890      1.65201e+8 
           5910      1.64387e+8 
           5930       1.6253e+8 
           5950      1.60099e+8 
           5970       1.5869e+8 
           5990       1.5655e+8 
           6010      1.55061e+8 
           6030      1.53195e+8 
           6050      1.51433e+8 
           6070      1.49649e+8 
           6090      1.47845e+8 
           6110      1.46233e+8 
           6130      1.44549e+8 
           6150      1.42365e+8 
           6170      1.41156e+8 
           6190      1.39616e+8 
           6210      1.38015e+8 
           6230      1.36383e+8 
           6250      1.34557e+8 
           6270      1.33307e+8 
           6290      1.31804e+8 
           6310      1.30193e+8 
           6330      1.28883e+8 
           6350      1.26662e+8 
           6370      1.25543e+8 
           6390      1.24546e+8 
           6410      1.23091e+8 
           6430      1.21917e+8 
           6450      1.20456e+8 
           6470      1.18992e+8 
           6490      1.17509e+8 
           6510      1.15783e+8 
           6530      1.13246e+8 
           6550      1.04012e+8 
           6570      9.06631e+7 
           6590      1.07411e+8 
           6610      1.09383e+8 
           6630      1.08827e+8 
           6650      1.07884e+8 
           6670      1.05502e+8 
           6690      1.04527e+8 
           6710      1.04675e+8 
           6730      1.03579e+8 
           6750      1.02512e+8 
           6770      1.01455e+8 
           6790      1.00123e+8 
           6810      9.92755e+7 
           6830      9.82104e+7 
           6850      9.72524e+7 
           6870      9.62479e+7 
           6890      9.52456e+7 
           6910      9.42532e+7 
           6930      9.31843e+7 
           6950       9.2329e+7 
           6970      9.14044e+7 
           6990      9.04503e+7 
           7010      8.95056e+7 
           7030      8.86007e+7 
           7050       8.7606e+7 
           7070      8.54454e+7 
           7090      8.59683e+7 
           7110      8.50456e+7 
           7130      8.42061e+7 
           7150      8.33525e+7 
           7170       8.2551e+7 
           7190      8.17426e+7 
           7210      8.09274e+7 
           7230      7.94569e+7 
           7250      7.92843e+7 
           7270      7.85493e+7 
           7290      7.72186e+7 
           7310      7.70152e+7 
           7330      7.62589e+7 
           7350      7.55237e+7 
           7370      7.47815e+7 
           7390      7.40599e+7 
           7410      7.33382e+7 
           7430      7.25617e+7 
           7450       7.1908e+7 
           7470      7.11589e+7 
           7490       7.0504e+7 
           7510      6.98418e+7 
           7530      6.91922e+7 
           7550      6.85419e+7 
           7570      6.78975e+7 
           7590      6.72394e+7 
           7610      6.66197e+7 
           7630      6.59926e+7 
           7650      6.53648e+7 
           7670      6.47554e+7 
           7690      6.41451e+7 
           7710      6.35465e+7 
           7730      6.29483e+7 
           7750      6.23666e+7 
           7770       6.1339e+7 
           7790      6.12163e+7 
           7810      6.06382e+7 
           7830      6.00984e+7 
           7850      5.94251e+7 
           7870      5.88966e+7 
           7890      5.82589e+7 
           7910      5.79345e+7 
           7930      5.74264e+7 
           7950      5.67724e+7 
           7970      5.63669e+7 
           7990      5.56843e+7 
           8010       5.5372e+7 
           8030      5.48599e+7 
           8050      5.43527e+7 
           8070      5.38806e+7 
           8090      5.33613e+7 
           8110      5.28968e+7 
           8130      5.24277e+7 
           8150      5.19501e+7 
           8170      5.15245e+7 
           8190      5.10052e+7 
           8210      5.04384e+7 
           8230      4.99883e+7 
           8250      4.97048e+7 
           8270      4.91545e+7 
           8290      4.88316e+7 
           8310      4.84353e+7 
           8330      4.80119e+7 
           8350      4.74737e+7 
           8370      4.71417e+7 
           8390      4.68192e+7 
           8410      4.64125e+7 
           8430      4.59832e+7 
           8450      4.52307e+7 
           8470       4.5187e+7 
           8490      4.47057e+7 
           8510      4.43148e+7 
           8530       4.3955e+7 
           8550      4.32693e+7 
           8570      4.34113e+7 
           8590      4.21648e+7 
