# Kurucz ODFNEW /NOVER (2003)
# teff = 22000 K (value for the effective temperature for the model. Temperatures are given in K)
# logg = 5 log(cm/s2) (value for Log(G) for the model.)
# meta = -1  (value for the Metallicity for the model.)
# lh = 1.25  (l/Hp where l is the  mixing length of the convective element and Hp is the pressure scale height)
# vtur = 2 km/s (Microturbulence velocity)
# alpha = 0  (Alpha)
#
# column 1: WAVELENGTH (ANGSTROM), Wavelength in Angstrom
# column 2: FLUX (ERG/CM2/S/A), Flux in erg/cm2/s/A
          147.2      3.2273e-17 
            151     1.72363e-16 
          155.2      9.9984e-16 
          158.8       4.193e-15 
            162     1.42382e-14 
            166     6.15268e-14 
          170.3     2.75252e-13 
          173.4      7.7497e-13 
          176.8      2.3157e-12 
          180.2      6.6467e-12 
          181.7     1.04534e-11 
          186.1     3.79077e-11 
            191     1.48695e-10 
          193.9      3.2319e-10 
          198.4      1.03211e-9 
          201.8      2.40155e-9 
            205      5.18815e-9 
          210.5      1.84631e-8 
          216.2      6.43727e-8 
          219.8      1.37102e-7 
            223      2.63027e-7 
          226.8      5.56991e-7 
            230      2.64238e-6 
            234      6.26376e-6 
            240      1.77684e-5 
          246.5      5.15113e-5 
          252.4     0.000129549 
          256.8     0.000246148 
            260     0.000396859 
            264     0.000696638 
          268.5      0.00128311 
          273.5      0.00246786 
          278.5       0.0046421 
            284      0.00905251 
            290       0.0181896 
            296       0.0354401 
            301       0.0605921 
            308        0.123026 
            318        0.328575 
            328        0.814116 
            338         1.91013 
            348         4.25276 
            357         8.39482 
            366         16.0171 
            375         29.4766 
            385         56.0932 
            395         102.968 
            405         183.113 
            414         299.808 
            422         455.226 
            430         678.887 
            441         1151.28 
            451         1813.68 
            460         2678.05 
            470         4053.12 
            480         6015.08 
            490         8774.77 
            500         12580.8 
            506         81812.4 
            512          264859 
            520          338193 
            530          471173 
            540          537602 
            550          757868 
            560          922531 
            570      1.15009e+6 
            580      1.20936e+6 
            590      1.60508e+6 
            600      1.98191e+6 
            610      2.38339e+6 
            620      2.78176e+6 
            630      3.28084e+6 
            640      3.71984e+6 
            650      4.32245e+6 
            658      4.93966e+6 
            665      5.42104e+6 
            675      6.09092e+6 
            685      6.91413e+6 
            695      8.04272e+6 
            705      9.02059e+6 
            716      1.02557e+7 
            726      1.14218e+7 
            735      1.26514e+7 
            745      1.41752e+7 
            755      1.57545e+7 
            765       1.7368e+7 
            775      1.92233e+7 
            785      2.11503e+7 
            795       2.3041e+7 
            805      2.51597e+7 
            815      2.73031e+7 
            825      2.98206e+7 
            835      3.18242e+7 
            845      3.46611e+7 
            855      3.72315e+7 
            865      4.03322e+7 
            875      4.34612e+7 
            885      4.68242e+7 
            895      5.00691e+7 
            905      5.25197e+7 
            915      7.30353e+7 
            925      2.53255e+8 
            935      6.39241e+8 
            945      2.74735e+9 
            955      6.88752e+9 
            965       9.9435e+9 
            975      2.53915e+9 
            985     1.66216e+10 
            995     1.78345e+10 
           1005     1.88468e+10 
           1015     1.33264e+10 
           1025      1.67907e+9 
           1035     1.00405e+10 
           1045     1.93711e+10 
           1055     1.95448e+10 
           1065     1.72643e+10 
           1075      1.8973e+10 
           1085     1.73083e+10 
           1095     1.85445e+10 
           1105     1.71925e+10 
           1115     1.70091e+10 
           1125     1.56972e+10 
           1135     1.66194e+10 
           1145     1.52005e+10 
           1155      1.5815e+10 
           1165     1.57395e+10 
           1175     1.29105e+10 
           1185      1.4861e+10 
           1195     1.24788e+10 
           1205      7.95114e+9 
           1215      1.51442e+9 
           1225      7.25655e+9 
           1235     1.21141e+10 
           1245     1.28674e+10 
           1255     1.26395e+10 
           1265     1.23524e+10 
           1275     1.26081e+10 
           1285     1.24194e+10 
           1295      1.0737e+10 
           1305     1.04943e+10 
           1315     1.16784e+10 
           1325     1.11438e+10 
           1335     1.05866e+10 
           1345     1.08096e+10 
           1355     1.07139e+10 
           1365     1.02449e+10 
           1375     1.00904e+10 
           1385     1.00057e+10 
           1395      9.28899e+9 
           1405      9.38815e+9 
           1415      9.34436e+9 
           1425      9.22684e+9 
           1435      9.10894e+9 
           1442      9.13033e+9 
           1447      8.99879e+9 
           1455      8.82928e+9 
           1465      8.53959e+9 
           1475      8.41657e+9 
           1485      8.17599e+9 
           1495      8.07709e+9 
           1505      7.72528e+9 
           1512      7.41398e+9 
           1517      7.49861e+9 
           1525       7.4297e+9 
           1535      7.00896e+9 
           1545      7.07666e+9 
           1555      6.77561e+9 
           1565      6.82281e+9 
           1575      6.88117e+9 
           1585      6.76388e+9 
           1595      6.72449e+9 
           1605      6.51241e+9 
           1615       6.4076e+9 
           1625      6.33298e+9 
           1635      6.32565e+9 
           1645      6.19844e+9 
           1655      6.02528e+9 
           1665      6.10654e+9 
           1672      5.89246e+9 
           1677      5.99468e+9 
           1685      5.92529e+9 
           1695       5.7651e+9 
           1705      5.58972e+9 
           1715      5.42457e+9 
           1725      5.32856e+9 
           1735      5.34728e+9 
           1745      5.22282e+9 
           1755      5.23466e+9 
           1765      4.94163e+9 
           1775      4.97997e+9 
           1785      4.93095e+9 
           1795      4.93311e+9 
           1805      4.87698e+9 
           1815      4.70765e+9 
           1825      4.70156e+9 
           1835      4.59843e+9 
           1845      4.36589e+9 
           1855      4.26716e+9 
           1865      4.26994e+9 
           1875      4.32953e+9 
           1885      4.07983e+9 
           1895       3.9197e+9 
           1905      4.04371e+9 
           1915      3.89178e+9 
           1925      3.80804e+9 
           1935      3.84273e+9 
           1945      3.87014e+9 
           1955      3.66298e+9 
           1967      3.74822e+9 
           1976      3.79375e+9 
           1984      3.63449e+9 
           1995      3.53148e+9 
           2005      3.56354e+9 
           2015      3.54366e+9 
           2025      3.55468e+9 
           2035      3.42604e+9 
           2045      3.38937e+9 
           2055      3.28653e+9 
           2065      3.29524e+9 
           2074      3.33186e+9 
           2078      3.23294e+9 
           2085      3.23761e+9 
           2095      3.13914e+9 
           2105      3.15895e+9 
           2115      3.12847e+9 
           2125      3.13005e+9 
           2135      3.07096e+9 
           2145      3.00277e+9 
           2155      3.00003e+9 
           2165      2.95494e+9 
           2175      2.91341e+9 
           2185      2.87939e+9 
           2195      2.85939e+9 
           2205      2.81166e+9 
           2215      2.77213e+9 
           2225      2.72246e+9 
           2235      2.70358e+9 
           2245      2.67566e+9 
           2255       2.6288e+9 
           2265      2.61386e+9 
           2275      2.57776e+9 
           2285      2.55719e+9 
           2295      2.49347e+9 
           2305       2.4845e+9 
           2315       2.4434e+9 
           2325      2.41922e+9 
           2335      2.36662e+9 
           2345      2.32086e+9 
           2355      2.32422e+9 
           2365      2.27638e+9 
           2375       2.2614e+9 
           2385      2.21909e+9 
           2395      2.20763e+9 
           2405      2.17517e+9 
           2415      2.14828e+9 
           2425      2.14418e+9 
           2435      2.10456e+9 
           2445      2.08524e+9 
           2455       2.0726e+9 
           2465      2.03659e+9 
           2475      2.01777e+9 
           2485      1.99766e+9 
           2495      1.94652e+9 
           2505      1.95178e+9 
           2513      1.90483e+9 
           2518      1.92407e+9 
           2525      1.89764e+9 
           2535      1.86576e+9 
           2545      1.84746e+9 
           2555      1.84734e+9 
           2565      1.81916e+9 
           2575      1.80938e+9 
           2585         1.79e+9 
           2595      1.76867e+9 
           2605      1.75534e+9 
           2615      1.73875e+9 
           2625      1.72143e+9 
           2635      1.70106e+9 
           2645       1.6977e+9 
           2655      1.67719e+9 
           2665      1.64839e+9 
           2675      1.63372e+9 
           2685      1.62664e+9 
           2695      1.59213e+9 
           2705      1.59022e+9 
           2715       1.5704e+9 
           2725       1.5385e+9 
           2735      1.54026e+9 
           2745      1.50101e+9 
           2755      1.49148e+9 
           2765      1.47356e+9 
           2775      1.47822e+9 
           2785      1.45995e+9 
           2795      1.41345e+9 
           2805      1.42034e+9 
           2815       1.4184e+9 
           2825      1.38595e+9 
           2835      1.36354e+9 
           2845        1.371e+9 
           2855      1.35897e+9 
           2865      1.34748e+9 
           2875      1.33251e+9 
           2885      1.31967e+9 
           2895      1.30661e+9 
           2910      1.28686e+9 
           2930      1.25838e+9 
           2950      1.22406e+9 
           2970      1.21182e+9 
           2990      1.18626e+9 
           3010      1.16452e+9 
           3030      1.14309e+9 
           3050      1.12085e+9 
           3070       1.0993e+9 
           3090      1.07762e+9 
           3110      1.05765e+9 
           3130      1.03887e+9 
           3150      1.01938e+9 
           3170      9.99961e+8 
           3190       9.7169e+8 
           3210      9.63093e+8 
           3230      9.45245e+8 
           3250      9.27905e+8 
           3270      9.12079e+8 
           3290      8.94376e+8 
           3310      8.79646e+8 
           3330       8.6388e+8 
           3350      8.46982e+8 
           3370      8.33443e+8 
           3390      8.18786e+8 
           3410       8.0448e+8 
           3430      7.87792e+8 
           3450       7.7169e+8 
           3470      7.60317e+8 
           3490      7.47329e+8 
           3510      7.35289e+8 
           3530      7.23685e+8 
           3550      7.11638e+8 
           3570      7.03746e+8 
           3590      6.86865e+8 
           3610      6.77975e+8 
           3630      6.64492e+8 
           3640      6.63831e+8 
           3650      6.55053e+8 
           3670      6.47177e+8 
           3690      6.36805e+8 
           3710      6.16245e+8 
           3730      5.90348e+8 
           3750      5.93471e+8 
           3770       5.8462e+8 
           3790      6.25045e+8 
           3810      6.62464e+8 
           3830      5.66164e+8 
           3850      6.96934e+8 
           3870      7.26524e+8 
           3890      5.27448e+8 
           3910      7.20286e+8 
           3930      7.27169e+8 
           3950      7.00846e+8 
           3970      4.93497e+8 
           3990       6.6649e+8 
           4010      6.84997e+8 
           4030      6.31103e+8 
           4050      6.75942e+8 
           4070      6.55875e+8 
           4090      5.63875e+8 
           4110      4.78514e+8 
           4130      6.09215e+8 
           4150      6.14185e+8 
           4170      6.12771e+8 
           4190      6.06141e+8 
           4210      5.97229e+8 
           4230      5.87278e+8 
           4250      5.76821e+8 
           4270      5.63227e+8 
           4290      5.55163e+8 
           4310      5.37165e+8 
           4330      4.52885e+8 
           4350      4.08216e+8 
           4370       5.0772e+8 
           4390      4.89832e+8 
           4410      5.05293e+8 
           4430      4.95922e+8 
           4450      4.90619e+8 
           4470      4.49491e+8 
           4490      4.73357e+8 
           4510      4.69798e+8 
           4530      4.62354e+8 
           4550      4.55223e+8 
           4570      4.48325e+8 
           4590      4.41638e+8 
           4610      4.34818e+8 
           4630        4.281e+8 
           4650      4.21341e+8 
           4670      4.15581e+8 
           4690      4.09577e+8 
           4710      3.96223e+8 
           4730      3.96483e+8 
           4750      3.90246e+8 
           4770      3.85589e+8 
           4790      3.78977e+8 
           4810      3.71631e+8 
           4830      3.60308e+8 
           4850      3.12931e+8 
           4870      2.75293e+8 
           4890      3.41169e+8 
           4910      3.44052e+8 
           4930      3.29518e+8 
           4950      3.37899e+8 
           4970      3.33965e+8 
           4990      3.29191e+8 
           5010      3.18673e+8 
           5030      3.19821e+8 
           5050        3.123e+8 
           5070      3.11248e+8 
           5090      3.06931e+8 
           5110      3.02643e+8 
           5130       2.9837e+8 
           5150      2.94253e+8 
           5170      2.90459e+8 
           5190       2.8649e+8 
           5210      2.82227e+8 
           5230      2.78819e+8 
           5250      2.75072e+8 
           5270      2.71361e+8 
           5290      2.67778e+8 
           5310      2.64201e+8 
           5330      2.60671e+8 
           5350      2.57107e+8 
           5370      2.53889e+8 
           5390      2.50543e+8 
           5410      2.47265e+8 
           5430      2.43901e+8 
           5450      2.40807e+8 
           5470       2.3769e+8 
           5490      2.34686e+8 
           5510      2.31646e+8 
           5530      2.28692e+8 
           5550      2.25775e+8 
           5570      2.22893e+8 
           5590      2.20072e+8 
           5610      2.17248e+8 
           5630      2.14567e+8 
           5650      2.11646e+8 
           5670      2.09019e+8 
           5690       2.0647e+8 
           5710      2.04009e+8 
           5730      2.01486e+8 
           5750      1.98982e+8 
           5770      1.96563e+8 
           5790       1.9414e+8 
           5810      1.91757e+8 
           5830      1.89413e+8 
           5850      1.87107e+8 
           5870      1.77459e+8 
           5890      1.81697e+8 
           5910      1.80393e+8 
           5930      1.78225e+8 
           5950      1.76029e+8 
           5970      1.73995e+8 
           5990       1.7188e+8 
           6010      1.69893e+8 
           6030      1.67866e+8 
           6050      1.65894e+8 
           6070      1.63943e+8 
           6090      1.62015e+8 
           6110      1.60129e+8 
           6130      1.58263e+8 
           6150      1.56359e+8 
           6170      1.54605e+8 
           6190      1.52831e+8 
           6210      1.51067e+8 
           6230      1.49322e+8 
           6250      1.47586e+8 
           6270      1.45928e+8 
           6290      1.44268e+8 
           6310      1.42617e+8 
           6330      1.41021e+8 
           6350      1.39219e+8 
           6370      1.37752e+8 
           6390      1.36309e+8 
           6410      1.34772e+8 
           6430      1.33288e+8 
           6450      1.31802e+8 
           6470      1.30296e+8 
           6490      1.28555e+8 
           6510       1.2677e+8 
           6530      1.24104e+8 
           6550      1.14549e+8 
           6570      1.00229e+8 
           6590      1.18081e+8 
           6610       1.1967e+8 
           6630       1.1894e+8 
           6650      1.17902e+8 
           6670      1.15122e+8 
           6690      1.14005e+8 
           6710      1.14364e+8 
           6730      1.13145e+8 
           6750      1.11946e+8 
           6770      1.10751e+8 
           6790      1.09511e+8 
           6810      1.08406e+8 
           6830      1.07263e+8 
           6850       1.0614e+8 
           6870      1.05028e+8 
           6890      1.03927e+8 
           6910      1.02845e+8 
           6930      1.01766e+8 
           6950      1.00721e+8 
           6970      9.96787e+7 
           6990      9.86465e+7 
           7010      9.76321e+7 
           7030      9.66276e+7 
           7050      9.56253e+7 
           7070        9.302e+7 
           7090       9.3695e+7 
           7110      9.27439e+7 
           7130      9.18019e+7 
           7150       9.0869e+7 
           7170      8.99524e+7 
           7190      8.90591e+7 
           7210      8.81599e+7 
           7230      8.69882e+7 
           7250      8.64086e+7 
           7270      8.55489e+7 
           7290      8.39884e+7 
           7310      8.38538e+7 
           7330      8.30322e+7 
           7350      8.22114e+7 
           7370      8.14051e+7 
           7390      8.06064e+7 
           7410      7.98219e+7 
           7430      7.90311e+7 
           7450      7.82815e+7 
           7470      7.75118e+7 
           7490      7.67694e+7 
           7510       7.6007e+7 
           7530      7.52982e+7 
           7550      7.45693e+7 
           7570      7.38603e+7 
           7590      7.31511e+7 
           7610      7.24548e+7 
           7630      7.17649e+7 
           7650      7.10811e+7 
           7670        7.041e+7 
           7690      6.97448e+7 
           7710      6.90855e+7 
           7730      6.84385e+7 
           7750      6.77972e+7 
           7770      6.70617e+7 
           7790      6.65316e+7 
           7810      6.58825e+7 
           7830      6.53005e+7 
           7850      6.47298e+7 
           7870      6.41275e+7 
           7890      6.35063e+7 
           7910      6.29748e+7 
           7930      6.23999e+7 
           7950      6.18062e+7 
           7970      6.12177e+7 
           7990      6.06637e+7 
           8010      6.01498e+7 
           8030      5.95818e+7 
           8050      5.90303e+7 
           8070      5.84951e+7 
           8090      5.78897e+7 
           8110      5.74212e+7 
           8130      5.69139e+7 
           8150      5.63666e+7 
           8170      5.59126e+7 
           8190      5.53445e+7 
           8210      5.47689e+7 
           8230      5.43834e+7 
           8250      5.39363e+7 
           8270      5.32802e+7 
           8290      5.29862e+7 
           8310      5.25514e+7 
           8330      5.20686e+7 
           8350      5.14267e+7 
           8370      5.11156e+7 
           8390      5.07443e+7 
           8410      5.03008e+7 
           8430      4.98361e+7 
           8450      4.91082e+7 
           8470      4.89679e+7 
           8490       4.8449e+7 
           8510      4.80608e+7 
           8530      4.75892e+7 
           8550      4.69788e+7 
           8570      4.70178e+7 
           8590      4.56335e+7 
