# Kurucz ODFNEW /NOVER (2003)
# teff = 8250 K (value for the effective temperature for the model. Temperatures are given in K)
# logg = 5 log(cm/s2) (value for Log(G) for the model.)
# meta = -0.5  (value for the Metallicity for the model.)
# lh = 1.25  (l/Hp where l is the  mixing length of the convective element and Hp is the pressure scale height)
# vtur = 2 km/s (Microturbulence velocity)
# alpha = 0  (Alpha)
#
# column 1: WAVELENGTH (ANGSTROM), Wavelength in Angstrom
# column 2: FLUX (ERG/CM2/S/A), Flux in erg/cm2/s/A
            318     1.60018e-22 
            328     1.86712e-21 
            338     1.83342e-20 
            348     1.57083e-19 
            357     9.76075e-19 
            366      5.5268e-18 
            375     2.87105e-17 
            385     1.63097e-16 
            395     9.62124e-17 
            405     4.17945e-16 
            414     1.46961e-15 
            422        4.28e-15 
            430     1.19441e-14 
            441      4.5888e-14 
            451     1.46626e-13 
            460     3.98201e-13 
            470     1.15149e-12 
            480     3.17293e-12 
            490     8.36289e-12 
            500     2.11134e-11 
            506     4.77452e-11 
            512     9.09259e-11 
            520     1.78361e-10 
            530     4.04317e-10 
            540     8.71245e-10 
            550      1.84591e-9 
            560      3.77246e-9 
            570       7.4976e-9 
            580      1.43446e-8 
            590      2.73981e-8 
            600      5.05131e-8 
            610      9.10934e-8 
            620      1.60747e-7 
            630      2.78005e-7 
            640      4.71813e-7 
            650      7.86379e-7 
            658      1.16839e-6 
            665      1.63683e-6 
            675       2.6153e-6 
            685      4.11386e-6 
            695      6.37599e-6 
            705      9.72853e-6 
            716      1.52843e-5 
            726      2.27099e-5 
            735      3.20958e-5 
            745      4.66119e-5 
            755      6.69293e-5 
            765      9.50667e-5 
            775     0.000133619 
            785     0.000185961 
            795     0.000255063 
            805     0.000349327 
            815     0.000473163 
            825     0.000634815 
            835     0.000844747 
            845      0.00111511 
            855      0.00146079 
            865      0.00189955 
            875      0.00244974 
            885      0.00314443 
            895      0.00400558 
            905        0.005062 
            915         1.75733 
            925         9.15026 
            935         13.2282 
            945         18.4339 
            955         25.0807 
            965         32.1393 
            975         34.8115 
            985         47.5734 
            995         55.9791 
           1005          71.644 
           1015         85.5647 
           1025         86.6285 
           1035         121.717 
           1045         148.008 
           1055         176.196 
           1065         205.523 
           1075         247.425 
           1085         294.321 
           1095         339.426 
           1105         751.932 
           1115         1868.94 
           1125         2445.89 
           1135         3284.99 
           1145         3901.13 
           1155         4130.67 
           1165         5134.27 
           1175         5728.33 
           1185         5838.37 
           1195          3631.1 
           1205         2849.03 
           1215         740.303 
           1225         3159.69 
           1235            7079 
           1245         11578.8 
           1255         17889.7 
           1265         19966.2 
           1275         26388.7 
           1285         37476.2 
           1295           44935 
           1305         47476.5 
           1315         59815.7 
           1325         69675.5 
           1335         78568.4 
           1345         94041.5 
           1355           98211 
           1365          111392 
           1375          119667 
           1385          122330 
           1395          137346 
           1405          153373 
           1415          176539 
           1425          190366 
           1435          190960 
           1442          230165 
           1447          225626 
           1455          254934 
           1465          251571 
           1475          273903 
           1485          298397 
           1495          327321 
           1505          359045 
           1512          362814 
           1517          372311 
           1525          387903 
           1535          542704 
           1545          676733 
           1555          621067 
           1565          515360 
           1575          652413 
           1585          708689 
           1595          734082 
           1605          771805 
           1615      1.02997e+6 
           1625      1.53524e+6 
           1635      2.96102e+6 
           1645      7.12438e+6 
           1655      5.19907e+6 
           1665      1.18136e+7 
           1672      8.43186e+6 
           1677      1.46428e+7 
           1685      1.89703e+7 
           1695       1.3864e+7 
           1705      1.68185e+7 
           1715      2.15556e+7 
           1725      2.22015e+7 
           1735      2.66632e+7 
           1745      2.55518e+7 
           1755      3.01357e+7 
           1765      2.17193e+7 
           1775      2.83196e+7 
           1785      2.97803e+7 
           1795      3.42398e+7 
           1805      2.99219e+7 
           1815      3.07893e+7 
           1825      2.81148e+7 
           1835        2.873e+7 
           1845      2.43843e+7 
           1855      2.74942e+7 
           1865      3.07646e+7 
           1875      3.06356e+7 
           1885      3.12995e+7 
           1895      3.24703e+7 
           1905       3.0324e+7 
           1915      3.34906e+7 
           1925      3.36336e+7 
           1935      2.78676e+7 
           1945      3.54221e+7 
           1955      3.56057e+7 
           1967      3.81365e+7 
           1976      3.69052e+7 
           1984      3.56453e+7 
           1995      3.50962e+7 
           2005      3.26553e+7 
           2015      3.35818e+7 
           2025      3.04112e+7 
           2035      3.46061e+7 
           2045      3.72863e+7 
           2055      3.60589e+7 
           2065      3.51363e+7 
           2074      3.89072e+7 
           2078      3.99327e+7 
           2085      3.89796e+7 
           2095       3.7186e+7 
           2105      3.52284e+7 
           2115      3.62157e+7 
           2125      3.71254e+7 
           2135      3.11196e+7 
           2145      3.60613e+7 
           2155      3.55709e+7 
           2165      3.29757e+7 
           2175      3.26142e+7 
           2185      3.48328e+7 
           2195      3.75015e+7 
           2205      3.58023e+7 
           2215       3.2353e+7 
           2225      3.29532e+7 
           2235      3.78387e+7 
           2245      3.38808e+7 
           2255      3.22319e+7 
           2265      3.14463e+7 
           2275      3.38797e+7 
           2285      3.56344e+7 
           2295      3.25393e+7 
           2305      3.37254e+7 
           2315      3.35443e+7 
           2325       3.3032e+7 
           2335      3.10513e+7 
           2345      2.66806e+7 
           2355      3.35068e+7 
           2365      2.81044e+7 
           2375      3.10099e+7 
           2385      2.53289e+7 
           2395      2.82093e+7 
           2405      2.74372e+7 
           2415      2.74733e+7 
           2425      3.13421e+7 
           2435      2.98983e+7 
           2445       3.2192e+7 
           2455       3.1629e+7 
           2465      3.20295e+7 
           2475      2.96679e+7 
           2485      3.00287e+7 
           2495      2.86356e+7 
           2505      3.37434e+7 
           2513      2.92159e+7 
           2518       2.9018e+7 
           2525      2.69292e+7 
           2535      2.61081e+7 
           2545      2.47842e+7 
           2555      2.71668e+7 
           2565      2.77381e+7 
           2575      3.14093e+7 
           2585      3.20632e+7 
           2595      3.16135e+7 
           2605      3.00983e+7 
           2615      2.88047e+7 
           2625      3.26517e+7 
           2635       3.2891e+7 
           2645      3.75942e+7 
           2655      3.80052e+7 
           2665      3.38149e+7 
           2675      3.57906e+7 
           2685      3.65263e+7 
           2695      3.32369e+7 
           2705      3.44338e+7 
           2715      3.18618e+7 
           2725      3.22869e+7 
           2735      3.49446e+7 
           2745      2.86008e+7 
           2755      3.01164e+7 
           2765      3.18582e+7 
           2775      3.42586e+7 
           2785      3.21833e+7 
           2795      1.96461e+7 
           2805      2.36939e+7 
           2815      3.59689e+7 
           2825      3.65932e+7 
           2835      3.52753e+7 
           2845        3.357e+7 
           2855      3.07886e+7 
           2865      3.47584e+7 
           2875      3.41706e+7 
           2885      3.47466e+7 
           2895      3.35014e+7 
           2910      3.73126e+7 
           2930      3.56434e+7 
           2950      3.53327e+7 
           2970      3.60551e+7 
           2990      3.60118e+7 
           3010      3.62209e+7 
           3030        3.608e+7 
           3050      3.60599e+7 
           3070      3.61692e+7 
           3090      3.62454e+7 
           3110      3.55673e+7 
           3130      3.54988e+7 
           3150      3.60768e+7 
           3170      3.58517e+7 
           3190      3.40501e+7 
           3210      3.46808e+7 
           3230      3.34055e+7 
           3250       3.4413e+7 
           3270      3.50492e+7 
           3290      3.52049e+7 
           3310      3.54135e+7 
           3330        3.467e+7 
           3350      3.42002e+7 
           3370      3.38784e+7 
           3390      3.37388e+7 
           3410      3.38432e+7 
           3430      3.39043e+7 
           3450      3.35978e+7 
           3470       3.3293e+7 
           3490      3.32868e+7 
           3510      3.35965e+7 
           3530      3.32411e+7 
           3550      3.36777e+7 
           3570      3.25713e+7 
           3590         3.23e+7 
           3610        3.229e+7 
           3630      3.24355e+7 
           3640      3.21438e+7 
           3650      3.30312e+7 
           3670      3.29267e+7 
           3690      3.19482e+7 
           3710      3.14103e+7 
           3730      2.96745e+7 
           3750      3.36639e+7 
           3770      3.49139e+7 
           3790      4.12029e+7 
           3810      4.72258e+7 
           3830      3.80019e+7 
           3850       5.2019e+7 
           3870      5.80153e+7 
           3890       3.5091e+7 
           3910      5.83818e+7 
           3930       5.6633e+7 
           3950       5.8531e+7 
           3970      3.35834e+7 
           3990      5.72332e+7 
           4010      6.56086e+7 
           4030      6.64993e+7 
           4050      6.54927e+7 
           4070      6.14301e+7 
           4090      4.80615e+7 
           4110      3.75389e+7 
           4130      5.87394e+7 
           4150      6.28251e+7 
           4170      6.37426e+7 
           4190      6.29488e+7 
           4210      6.28559e+7 
           4230      6.13197e+7 
           4250      6.13821e+7 
           4270      5.99489e+7 
           4290      5.90085e+7 
           4310       5.4039e+7 
           4330      4.13944e+7 
           4350      3.57049e+7 
           4370      5.36128e+7 
           4390      5.64309e+7 
           4410      5.66253e+7 
           4430      5.64012e+7 
           4450      5.66488e+7 
           4470      5.63164e+7 
           4490      5.57411e+7 
           4510      5.60591e+7 
           4530      5.49171e+7 
           4550      5.41715e+7 
           4570      5.46562e+7 
           4590      5.36624e+7 
           4610      5.38023e+7 
           4630      5.28323e+7 
           4650      5.27256e+7 
           4670      5.24028e+7 
           4690       5.1073e+7 
           4710      4.93699e+7 
           4730      5.07264e+7 
           4750      5.02651e+7 
           4770      4.95663e+7 
           4790      4.86935e+7 
           4810      4.73238e+7 
           4830      4.42876e+7 
           4850      3.44594e+7 
           4870      2.82409e+7 
           4890      4.15359e+7 
           4910      4.46939e+7 
           4930      4.48404e+7 
           4950      4.52798e+7 
           4970      4.54743e+7 
           4990      4.46521e+7 
           5010      4.37785e+7 
           5030      4.42113e+7 
           5050      4.36003e+7 
           5070      4.36483e+7 
           5090      4.31693e+7 
           5110       4.2933e+7 
           5130      4.23527e+7 
           5150      4.17261e+7 
           5170      4.06075e+7 
           5190      4.04141e+7 
           5210      4.05096e+7 
           5230      4.00324e+7 
           5250      4.03567e+7 
           5270      3.89142e+7 
           5290      3.95198e+7 
           5310      3.90918e+7 
           5330      3.81664e+7 
           5350      3.85002e+7 
           5370        3.795e+7 
           5390      3.76819e+7 
           5410      3.70395e+7 
           5430      3.70253e+7 
           5450      3.67794e+7 
           5470      3.64845e+7 
           5490      3.62691e+7 
           5510      3.60249e+7 
           5530      3.55702e+7 
           5550      3.54476e+7 
           5570      3.49628e+7 
           5590       3.4572e+7 
           5610      3.43894e+7 
           5630      3.42513e+7 
           5650      3.39478e+7 
           5670      3.35646e+7 
           5690      3.33559e+7 
           5710      3.30533e+7 
           5730      3.29101e+7 
           5750       3.2546e+7 
           5770      3.23083e+7 
           5790      3.20181e+7 
           5810      3.17735e+7 
           5830      3.15281e+7 
           5850      3.12139e+7 
           5870      3.09545e+7 
           5890      3.03678e+7 
           5910      3.04463e+7 
           5930      3.01952e+7 
           5950      2.99489e+7 
           5970      2.97053e+7 
           5990      2.94337e+7 
           6010      2.91412e+7 
           6030       2.8913e+7 
           6050      2.87211e+7 
           6070      2.85147e+7 
           6090      2.82506e+7 
           6110      2.79912e+7 
           6130      2.76284e+7 
           6150      2.73634e+7 
           6170        2.712e+7 
           6190      2.71151e+7 
           6210      2.69026e+7 
           6230      2.66147e+7 
           6250      2.62546e+7 
           6270      2.62541e+7 
           6290      2.60446e+7 
           6310      2.57596e+7 
           6330      2.55736e+7 
           6350       2.5266e+7 
           6370      2.50844e+7 
           6390      2.49258e+7 
           6410      2.46229e+7 
           6430      2.44554e+7 
           6450      2.40794e+7 
           6470      2.38974e+7 
           6490      2.34946e+7 
           6510      2.30464e+7 
           6530      2.19734e+7 
           6550      1.88222e+7 
           6570      1.52996e+7 
           6590      2.05792e+7 
           6610      2.19069e+7 
           6630      2.22377e+7 
           6650      2.22685e+7 
           6670      2.21775e+7 
           6690      2.20847e+7 
           6710      2.19348e+7 
           6730      2.17864e+7 
           6750      2.16045e+7 
           6770      2.15001e+7 
           6790       2.1336e+7 
           6810      2.11678e+7 
           6830      2.09972e+7 
           6850      2.08282e+7 
           6870      2.06872e+7 
           6890      2.05315e+7 
           6910      2.03726e+7 
           6930      2.02136e+7 
           6950      2.00616e+7 
           6970      1.99055e+7 
           6990      1.97601e+7 
           7010      1.95617e+7 
           7030      1.94345e+7 
           7050      1.93055e+7 
           7070      1.91617e+7 
           7090      1.90185e+7 
           7110      1.87209e+7 
           7130      1.86931e+7 
           7150      1.85577e+7 
           7170      1.84184e+7 
           7190      1.82658e+7 
           7210       1.8148e+7 
           7230      1.80182e+7 
           7250      1.78744e+7 
           7270      1.77648e+7 
           7290      1.75909e+7 
           7310      1.74899e+7 
           7330      1.73511e+7 
           7350      1.72477e+7 
           7370      1.71223e+7 
           7390       1.6967e+7 
           7410      1.68042e+7 
           7430      1.66893e+7 
           7450      1.65889e+7 
           7470      1.64395e+7 
           7490      1.63216e+7 
           7510      1.62374e+7 
           7530      1.61287e+7 
           7550      1.60295e+7 
           7570      1.59054e+7 
           7590      1.57936e+7 
           7610      1.56762e+7 
           7630       1.5565e+7 
           7650      1.54451e+7 
           7670         1.53e+7 
           7690       1.5209e+7 
           7710      1.51011e+7 
           7730      1.50136e+7 
           7750      1.48885e+7 
           7770      1.45836e+7 
           7790      1.46994e+7 
           7810       1.4589e+7 
           7830      1.44617e+7 
           7850      1.43478e+7 
           7870      1.42421e+7 
           7890      1.41349e+7 
           7910      1.40497e+7 
           7930      1.39232e+7 
           7950      1.38276e+7 
           7970      1.37861e+7 
           7990      1.36458e+7 
           8010      1.35777e+7 
           8030      1.34786e+7 
           8050      1.33902e+7 
           8070      1.33002e+7 
           8090      1.32012e+7 
           8110       1.3123e+7 
           8130       1.3038e+7 
           8150      1.29463e+7 
           8170      1.28559e+7 
           8190      1.26701e+7 
           8210      1.26364e+7 
           8230      1.25378e+7 
           8250      1.24616e+7 
           8270      1.24455e+7 
           8290      1.23603e+7 
           8310       1.2267e+7 
           8330      1.21116e+7 
           8350      1.21141e+7 
           8370      1.20461e+7 
           8390      1.19432e+7 
           8410      1.18806e+7 
           8430      1.17888e+7 
           8450      1.16128e+7 
           8470        1.159e+7 
           8490      1.15454e+7 
           8510      1.12342e+7 
           8530      1.13975e+7 
           8550      1.07155e+7 
           8570      1.13186e+7 
           8590      1.09652e+7 
           8610      1.08269e+7 
           8630      1.11658e+7 
           8650       1.0872e+7 
           8670      9.81105e+6 
           8690      1.08026e+7 
           8710      1.10137e+7 
           8730      1.06781e+7 
           8750      9.28606e+6 
           8770      1.02973e+7 
           8790      1.08049e+7 
           8810      1.07952e+7 
           8830      1.05594e+7 
           8850      9.66469e+6 
           8870       8.5864e+6 
           8890      1.01147e+7 
           8910      1.04812e+7 
           8930       1.0542e+7 
           8950      1.05448e+7 
           8970      1.03293e+7 
           8990      9.81863e+6 
           9010        8.162e+6 
           9030      8.76947e+6 
           9050      9.80663e+6 
           9070      9.95118e+6 
           9090      9.92385e+6 
           9110      1.00851e+7 
           9130      1.01015e+7 
           9150      1.00115e+7 
           9170      9.83837e+6 
           9190      9.52974e+6 
           9210      8.81421e+6 
           9230      7.16686e+6 
           9250      8.51623e+6 
           9270      9.15159e+6 
           9290      9.46231e+6 
           9310      9.52819e+6 
           9330      9.52374e+6 
           9350      9.49726e+6 
