# Kurucz ODFNEW /NOVER (2003)
# teff = 22000 K (value for the effective temperature for the model. Temperatures are given in K)
# logg = 3 log(cm/s2) (value for Log(G) for the model.)
# meta = -1  (value for the Metallicity for the model.)
# lh = 1.25  (l/Hp where l is the  mixing length of the convective element and Hp is the pressure scale height)
# vtur = 2 km/s (Microturbulence velocity)
# alpha = 0  (Alpha)
#
# column 1: WAVELENGTH (ANGSTROM), Wavelength in Angstrom
# column 2: FLUX (ERG/CM2/S/A), Flux in erg/cm2/s/A
          147.2     2.55687e-17 
            151     1.45904e-16 
          155.2      9.0775e-16 
          158.8      4.0327e-15 
            162     1.43707e-14 
            166     6.57116e-14 
          170.3     3.11078e-13 
          173.4     9.09662e-13 
          176.8      2.8225e-12 
          180.2      8.3873e-12 
          181.7     1.33838e-11 
          186.1     5.04627e-11 
            191     2.05626e-10 
          193.9     4.56317e-10 
          198.4      1.49811e-9 
          201.8      3.54775e-9 
            205      7.77421e-9 
          210.5      2.82677e-8 
          216.2      1.00287e-7 
          219.8      2.15345e-7 
            223      4.15699e-7 
          226.8      8.85242e-7 
            230      3.35816e-5 
            234      8.26581e-5 
            240      0.00021556 
          246.5     0.000579569 
          252.4      0.00137449 
          256.8      0.00236693 
            260      0.00389904 
            264      0.00652639 
          268.5       0.0114714 
          273.5       0.0209431 
          278.5       0.0375703 
            284       0.0702351 
            290        0.133419 
            296        0.246691 
            301         0.40073 
            308         0.74473 
            318         1.94113 
            328         4.43493 
            338         9.88221 
            348         20.7017 
            357         40.8509 
            366         75.1569 
            375         129.959 
            385         236.077 
            395         413.756 
            405         701.735 
            414         1110.61 
            422         1618.37 
            430         2346.15 
            441         3822.09 
            451         5819.64 
            460         8302.65 
            470         12232.5 
            480         17570.9 
            490         24982.4 
            500         34934.9 
            506          304255 
            512      1.11673e+6 
            520      1.35988e+6 
            530      1.80573e+6 
            540      1.99204e+6 
            550      2.85816e+6 
            560      3.39297e+6 
            570      4.20177e+6 
            580      4.18087e+6 
            590      5.55722e+6 
            600      6.70589e+6 
            610      8.02896e+6 
            620      9.16303e+6 
            630       1.0553e+7 
            640      1.13929e+7 
            650      1.20919e+7 
            658      1.49512e+7 
            665      1.62959e+7 
            675      1.75249e+7 
            685      1.92642e+7 
            695      2.29855e+7 
            705      2.47613e+7 
            716      2.82171e+7 
            726      3.05193e+7 
            735      3.29187e+7 
            745      3.72491e+7 
            755      4.07782e+7 
            765      4.45374e+7 
            775      4.88348e+7 
            785      5.32835e+7 
            795      5.69495e+7 
            805       6.1129e+7 
            815      6.47256e+7 
            825      7.07822e+7 
            835      7.14852e+7 
            845      7.87675e+7 
            855        8.363e+7 
            865      8.98793e+7 
            875      9.70529e+7 
            885      1.04482e+8 
            895       1.1073e+8 
            905      1.14501e+8 
            915      2.32916e+8 
            925      3.17965e+9 
            935       6.8785e+9 
            945     1.10679e+10 
            955     1.24276e+10 
            965      1.3824e+10 
            975      4.55503e+9 
            985     1.26987e+10 
            995     1.22301e+10 
           1005     1.33948e+10 
           1015     1.32744e+10 
           1025      8.51691e+9 
           1035     1.10565e+10 
           1045     1.47508e+10 
           1055     1.39021e+10 
           1065     1.23107e+10 
           1075     1.36201e+10 
           1085     1.23747e+10 
           1095     1.37052e+10 
           1105     1.27616e+10 
           1115     1.27535e+10 
           1125     1.13841e+10 
           1135     1.29949e+10 
           1145      1.2137e+10 
           1155     1.25137e+10 
           1165     1.25558e+10 
           1175      9.43498e+9 
           1185     1.21537e+10 
           1195     1.13521e+10 
           1205      8.62415e+9 
           1215      6.51265e+9 
           1225     1.07672e+10 
           1235     1.14432e+10 
           1245     1.13433e+10 
           1255     1.11264e+10 
           1265      1.1003e+10 
           1275     1.12343e+10 
           1285     1.09987e+10 
           1295      9.11281e+9 
           1305      9.56852e+9 
           1315     1.06283e+10 
           1325      1.0158e+10 
           1335      9.76287e+9 
           1345      9.91645e+9 
           1355      9.95467e+9 
           1365      9.48483e+9 
           1375      9.32346e+9 
           1385      9.27769e+9 
           1395      7.93987e+9 
           1405       8.2908e+9 
           1415      8.69786e+9 
           1425      8.51146e+9 
           1435      8.60876e+9 
           1442      8.70113e+9 
           1447      8.54106e+9 
           1455      8.38849e+9 
           1465      8.07145e+9 
           1475      8.02264e+9 
           1485      7.91171e+9 
           1495      7.77554e+9 
           1505      7.39812e+9 
           1512      6.88007e+9 
           1517      7.04908e+9 
           1525      7.09195e+9 
           1535      6.44536e+9 
           1545      6.50613e+9 
           1555      6.21519e+9 
           1565      6.50718e+9 
           1575      6.68405e+9 
           1585      6.59607e+9 
           1595      6.58233e+9 
           1605      6.39103e+9 
           1615      6.27992e+9 
           1625      6.24766e+9 
           1635      6.39047e+9 
           1645      6.27445e+9 
           1655      6.22059e+9 
           1665      6.22654e+9 
           1672      6.05997e+9 
           1677      6.29421e+9 
           1685      6.15471e+9 
           1695      5.93753e+9 
           1705      5.76182e+9 
           1715      5.54253e+9 
           1725      5.50074e+9 
           1735      5.55966e+9 
           1745      5.45369e+9 
           1755      5.48357e+9 
           1765      5.32051e+9 
           1775      5.15838e+9 
           1785      5.18232e+9 
           1795       5.2281e+9 
           1805      5.22457e+9 
           1815      4.87977e+9 
           1825      4.96884e+9 
           1835      4.86628e+9 
           1845      4.51662e+9 
           1855      4.48317e+9 
           1865       4.5536e+9 
           1875      4.65829e+9 
           1885      4.25148e+9 
           1895      3.99051e+9 
           1905      4.24417e+9 
           1915      4.06662e+9 
           1925      3.91712e+9 
           1935      4.07626e+9 
           1945      4.13473e+9 
           1955      3.80473e+9 
           1967      4.02212e+9 
           1976      4.16271e+9 
           1984      3.90717e+9 
           1995      3.81725e+9 
           2005      3.88891e+9 
           2015       3.8865e+9 
           2025         3.95e+9 
           2035      3.68767e+9 
           2045      3.69782e+9 
           2055       3.5918e+9 
           2065      3.60436e+9 
           2074      3.75584e+9 
           2078      3.49973e+9 
           2085      3.58286e+9 
           2095       3.4272e+9 
           2105      3.50209e+9 
           2115      3.48295e+9 
           2125      3.52608e+9 
           2135      3.46329e+9 
           2145      3.31006e+9 
           2155       3.3972e+9 
           2165      3.37272e+9 
           2175      3.32083e+9 
           2185      3.26312e+9 
           2195      3.26317e+9 
           2205      3.22899e+9 
           2215      3.19192e+9 
           2225      3.12593e+9 
           2235      3.08112e+9 
           2245       3.0852e+9 
           2255      3.01738e+9 
           2265      3.01693e+9 
           2275      2.98079e+9 
           2285      2.96457e+9 
           2295      2.84187e+9 
           2305      2.88676e+9 
           2315      2.82433e+9 
           2325       2.7941e+9 
           2335      2.73387e+9 
           2345      2.72615e+9 
           2355      2.71732e+9 
           2365       2.6824e+9 
           2375      2.64349e+9 
           2385      2.61389e+9 
           2395      2.58613e+9 
           2405      2.55464e+9 
           2415      2.51763e+9 
           2425      2.51389e+9 
           2435      2.46698e+9 
           2445      2.45169e+9 
           2455       2.4372e+9 
           2465      2.40333e+9 
           2475      2.37429e+9 
           2485      2.34357e+9 
           2495      2.20705e+9 
           2505      2.28858e+9 
           2513      2.21796e+9 
           2518      2.25521e+9 
           2525      2.23758e+9 
           2535       2.2107e+9 
           2545      2.16067e+9 
           2555      2.16451e+9 
           2565      2.13753e+9 
           2575      2.12846e+9 
           2585      2.10233e+9 
           2595      2.08034e+9 
           2605       2.0679e+9 
           2615      2.04517e+9 
           2625      2.02546e+9 
           2635      2.00106e+9 
           2645      1.98606e+9 
           2655      1.96776e+9 
           2665      1.93488e+9 
           2675      1.91965e+9 
           2685      1.91055e+9 
           2695      1.86787e+9 
           2705      1.86114e+9 
           2715       1.8447e+9 
           2725      1.81551e+9 
           2735      1.80915e+9 
           2745       1.7737e+9 
           2755      1.76213e+9 
           2765      1.73901e+9 
           2775       1.7379e+9 
           2785      1.71641e+9 
           2795      1.66924e+9 
           2805      1.67249e+9 
           2815      1.66737e+9 
           2825      1.63898e+9 
           2835      1.60709e+9 
           2845      1.61504e+9 
           2855      1.59625e+9 
           2865      1.58389e+9 
           2875      1.56779e+9 
           2885      1.55286e+9 
           2895      1.53523e+9 
           2910      1.51059e+9 
           2930      1.48091e+9 
           2950      1.44324e+9 
           2970      1.42387e+9 
           2990      1.39418e+9 
           3010      1.36282e+9 
           3030      1.34341e+9 
           3050      1.31792e+9 
           3070      1.29305e+9 
           3090      1.26101e+9 
           3110      1.24329e+9 
           3130      1.21991e+9 
           3150      1.19733e+9 
           3170       1.1732e+9 
           3190      1.14432e+9 
           3210      1.13098e+9 
           3230      1.10922e+9 
           3250      1.08933e+9 
           3270      1.06981e+9 
           3290      1.04887e+9 
           3310      1.03177e+9 
           3330      1.01282e+9 
           3350      9.93109e+8 
           3370      9.76845e+8 
           3390      9.59714e+8 
           3410      9.42852e+8 
           3430      9.21546e+8 
           3450      9.02315e+8 
           3470      8.89034e+8 
           3490      8.74172e+8 
           3510       8.6326e+8 
           3530      8.49364e+8 
           3550      8.34858e+8 
           3570      8.23638e+8 
           3590       8.0487e+8 
           3610       7.9112e+8 
           3630      7.78309e+8 
           3640      7.76285e+8 
           3650      7.60839e+8 
           3670      7.50695e+8 
           3690      7.25868e+8 
           3710      7.21868e+8 
           3730        7.207e+8 
           3750      7.84106e+8 
           3770      7.81349e+8 
           3790      7.93607e+8 
           3810       8.1644e+8 
           3830      7.38003e+8 
           3850      8.17151e+8 
           3870      8.02061e+8 
           3890      7.08292e+8 
           3910      7.86918e+8 
           3930      7.65684e+8 
           3950      7.60558e+8 
           3970      6.57829e+8 
           3990      7.34689e+8 
           4010      7.22435e+8 
           4030      6.96076e+8 
           4050      7.02999e+8 
           4070      6.86918e+8 
           4090      6.62538e+8 
           4110      6.01086e+8 
           4130      6.50716e+8 
           4150      6.42731e+8 
           4170      6.36126e+8 
           4190      6.27578e+8 
           4210      6.18803e+8 
           4230      6.08459e+8 
           4250      5.97803e+8 
           4270      5.84902e+8 
           4290      5.79195e+8 
           4310      5.68924e+8 
           4330      5.42442e+8 
           4350       5.0147e+8 
           4370      5.42657e+8 
           4390      5.29475e+8 
           4410      5.27221e+8 
           4430      5.18747e+8 
           4450      5.12649e+8 
           4470      4.93459e+8 
           4490      4.96735e+8 
           4510      4.90542e+8 
           4530      4.82934e+8 
           4550      4.75368e+8 
           4570      4.67987e+8 
           4590      4.61468e+8 
           4610      4.54477e+8 
           4630      4.47835e+8 
           4650       4.3866e+8 
           4670      4.34738e+8 
           4690      4.29205e+8 
           4710      4.17705e+8 
           4730      4.15713e+8 
           4750       4.0923e+8 
           4770      4.05591e+8 
           4790      3.99682e+8 
           4810      3.93613e+8 
           4830      3.87696e+8 
           4850      3.73406e+8 
           4870      3.40848e+8 
           4890      3.71702e+8 
           4910      3.67071e+8 
           4930      3.56705e+8 
           4950      3.56657e+8 
           4970      3.52222e+8 
           4990      3.47255e+8 
           5010      3.37944e+8 
           5030      3.37764e+8 
           5050      3.31046e+8 
           5070      3.28689e+8 
           5090      3.24235e+8 
           5110      3.19812e+8 
           5130      3.15076e+8 
           5150        3.109e+8 
           5170      3.07175e+8 
           5190      3.03119e+8 
           5210      2.98923e+8 
           5230       2.9514e+8 
           5250      2.91269e+8 
           5270       2.8738e+8 
           5290      2.83677e+8 
           5310      2.79927e+8 
           5330      2.76319e+8 
           5350      2.72651e+8 
           5370      2.69265e+8 
           5390      2.65753e+8 
           5410      2.62376e+8 
           5430      2.58939e+8 
           5450      2.55634e+8 
           5470      2.52396e+8 
           5490      2.49211e+8 
           5510      2.46114e+8 
           5530       2.4297e+8 
           5550      2.39974e+8 
           5570       2.3693e+8 
           5590      2.34008e+8 
           5610       2.3105e+8 
           5630      2.28235e+8 
           5650      2.25217e+8 
           5670      2.22225e+8 
           5690      2.19281e+8 
           5710      2.17089e+8 
           5730      2.14452e+8 
           5750      2.11686e+8 
           5770      2.09339e+8 
           5790      2.06794e+8 
           5810      2.04301e+8 
           5830      2.01771e+8 
           5850      1.99414e+8 
           5870      1.92657e+8 
           5890      1.94261e+8 
           5910       1.9229e+8 
           5930      1.89935e+8 
           5950      1.87649e+8 
           5970      1.85633e+8 
           5990      1.83335e+8 
           6010      1.81272e+8 
           6030      1.79108e+8 
           6050      1.77051e+8 
           6070      1.75027e+8 
           6090      1.72996e+8 
           6110      1.70997e+8 
           6130      1.69031e+8 
           6150      1.66977e+8 
           6170      1.65124e+8 
           6190      1.63282e+8 
           6210      1.61431e+8 
           6230      1.59591e+8 
           6250      1.57751e+8 
           6270       1.5599e+8 
           6290      1.54237e+8 
           6310      1.52495e+8 
           6330      1.50799e+8 
           6350       1.4901e+8 
           6370      1.47417e+8 
           6390      1.45803e+8 
           6410      1.44189e+8 
           6430       1.4261e+8 
           6450      1.41039e+8 
           6470      1.39412e+8 
           6490      1.37901e+8 
           6510      1.36442e+8 
           6530      1.34874e+8 
           6550      1.31611e+8 
           6570       1.1936e+8 
           6590      1.29809e+8 
           6610      1.29163e+8 
           6630      1.27819e+8 
           6650      1.26506e+8 
           6670      1.24301e+8 
           6690      1.22995e+8 
           6710      1.22522e+8 
           6730      1.21179e+8 
           6750      1.19942e+8 
           6770      1.18675e+8 
           6790      1.17266e+8 
           6810      1.16172e+8 
           6830       1.1496e+8 
           6850      1.13776e+8 
           6870      1.12587e+8 
           6890      1.11403e+8 
           6910      1.10246e+8 
           6930      1.09109e+8 
           6950      1.07998e+8 
           6970      1.06891e+8 
           6990      1.05779e+8 
           7010      1.04708e+8 
           7030      1.03641e+8 
           7050      1.02583e+8 
           7070      1.00074e+8 
           7090      1.00515e+8 
           7110      9.94808e+7 
           7130      9.84862e+7 
           7150      9.75012e+7 
           7170       9.6511e+7 
           7190      9.55668e+7 
           7210      9.46097e+7 
           7230      9.30709e+7 
           7250      9.27158e+7 
           7270      9.18214e+7 
           7290      9.02337e+7 
           7310      9.00015e+7 
           7330      8.91324e+7 
           7350      8.82574e+7 
           7370      8.73907e+7 
           7390      8.65389e+7 
           7410       8.5695e+7 
           7430       8.4859e+7 
           7450       8.4051e+7 
           7470      8.32099e+7 
           7490      8.24371e+7 
           7510      8.16112e+7 
           7530      8.08593e+7 
           7550      8.00878e+7 
           7570      7.93234e+7 
           7590      7.85658e+7 
           7610      7.78086e+7 
           7630      7.70842e+7 
           7650      7.63533e+7 
           7670      7.56355e+7 
           7690      7.49177e+7 
           7710      7.42063e+7 
           7730      7.35201e+7 
           7750      7.28276e+7 
           7770      7.20912e+7 
           7790      7.14856e+7 
           7810      7.07617e+7 
           7830       7.0161e+7 
           7850      6.95717e+7 
           7870      6.89205e+7 
           7890      6.82266e+7 
           7910      6.76412e+7 
           7930       6.6905e+7 
           7950      6.62708e+7 
           7970      6.56302e+7 
           7990      6.50719e+7 
           8010      6.44714e+7 
           8030      6.39286e+7 
           8050      6.33904e+7 
           8070       6.2851e+7 
           8090      6.21607e+7 
           8110      6.16139e+7 
           8130      6.11915e+7 
           8150      6.05229e+7 
           8170      6.01197e+7 
           8190      5.95175e+7 
           8210      5.87528e+7 
           8230      5.83897e+7 
           8250      5.79022e+7 
           8270      5.70826e+7 
           8290      5.68021e+7 
           8310      5.63217e+7 
           8330      5.58181e+7 
           8350      5.50917e+7 
           8370      5.46621e+7 
           8390      5.42519e+7 
           8410      5.37385e+7 
           8430      5.32347e+7 
           8450      5.25429e+7 
           8470      5.19448e+7 
           8490      5.21635e+7 
           8510      5.07975e+7 
           8530      5.15444e+7 
           8550       4.9221e+7 
           8570      5.14327e+7 
           8590      4.89817e+7 
