# Kurucz ODFNEW /NOVER (2003)
# teff = 32000 K (value for the effective temperature for the model. Temperatures are given in K)
# logg = 5 log(cm/s2) (value for Log(G) for the model.)
# meta = -0.5  (value for the Metallicity for the model.)
# lh = 1.25  (l/Hp where l is the  mixing length of the convective element and Hp is the pressure scale height)
# vtur = 2 km/s (Microturbulence velocity)
# alpha = 0.4  (Alpha)
#
# column 1: WAVELENGTH (ANGSTROM), Wavelength in Angstrom
# column 2: FLUX (ERG/CM2/S/A), Flux in erg/cm2/s/A
          147.2      5.09757e-7 
            151      1.45628e-6 
          155.2       4.3965e-6 
          158.8      1.08499e-5 
            162      2.34846e-5 
            166      5.92943e-5 
          170.3     0.000153084 
          173.4     0.000295569 
          176.8     0.000592436 
          180.2      0.00115766 
          181.7      0.00154435 
          186.1      0.00350436 
            191      0.00836269 
          193.9       0.0137096 
          198.4       0.0287094 
          201.8       0.0491004 
            205       0.0800665 
          210.5        0.179377 
          216.2        0.395956 
          219.8        0.639906 
            223        0.967183 
          226.8           1.566 
            230         367.343 
            234         859.331 
            240         1491.29 
          246.5         2678.92 
          252.4         4504.02 
          256.8         6009.73 
            260         8906.64 
            264         11764.1 
          268.5         17260.9 
          273.5           24878 
          278.5         33959.5 
            284         60809.4 
            290         88824.8 
            296          124719 
            301          162075 
            308          273870 
            318          537280 
            328          829838 
            338      1.38268e+6 
            348      2.12784e+6 
            357      4.48059e+6 
            366      7.59781e+6 
            375      9.79135e+6 
            385      1.41633e+7 
            395      2.18485e+7 
            405      2.79403e+7 
            414      3.69683e+7 
            422      4.27111e+7 
            430      5.15991e+7 
            441      6.54682e+7 
            451      8.05704e+7 
            460      9.26851e+7 
            470      1.12777e+8 
            480      1.33788e+8 
            490      1.57188e+8 
            500      1.88606e+8 
            506      5.13428e+8 
            512      3.03604e+9 
            520       2.9099e+9 
            530      2.91231e+9 
            540      2.66605e+9 
            550       3.2258e+9 
            560      3.62001e+9 
            570      3.79559e+9 
            580      3.49639e+9 
            590      3.88548e+9 
            600       3.6413e+9 
            610       4.0278e+9 
            620       4.3857e+9 
            630      4.41644e+9 
            640       4.2853e+9 
            650      4.53894e+9 
            658      4.35789e+9 
            665      4.60288e+9 
            675      4.66495e+9 
            685      4.35343e+9 
            695      5.09721e+9 
            705      4.69524e+9 
            716      5.36351e+9 
            726      5.29647e+9 
            735      5.38548e+9 
            745      5.55132e+9 
            755      5.57522e+9 
            765      5.73329e+9 
            775      5.86208e+9 
            785      6.06392e+9 
            795      6.06081e+9 
            805      6.04197e+9 
            815      6.06703e+9 
            825      6.30553e+9 
            835      5.66155e+9 
            845      6.27808e+9 
            855      6.30884e+9 
            865      6.46944e+9 
            875      6.56352e+9 
            885      6.70847e+9 
            895      6.80678e+9 
            905      6.71653e+9 
            915       6.9224e+9 
            925      2.1085e+10 
            935     3.88673e+10 
            945     7.11505e+10 
            955     8.49229e+10 
            965      1.0821e+11 
            975     4.25543e+10 
            985     1.02691e+11 
            995     9.16076e+10 
           1005     9.66343e+10 
           1015     9.53393e+10 
           1025     5.07995e+10 
           1035     8.73083e+10 
           1045     1.03712e+11 
           1055     9.93183e+10 
           1065     8.47872e+10 
           1075     8.92904e+10 
           1085     8.10437e+10 
           1095     8.84149e+10 
           1105     8.33231e+10 
           1115     8.12625e+10 
           1125     6.72361e+10 
           1135     7.82922e+10 
           1145     7.16922e+10 
           1155     7.11395e+10 
           1165     7.01816e+10 
           1175     5.19651e+10 
           1185     6.47286e+10 
           1195     6.16607e+10 
           1205     5.49414e+10 
           1215     3.28976e+10 
           1225     5.50825e+10 
           1235     5.97244e+10 
           1245     5.78987e+10 
           1255     5.74581e+10 
           1265     5.73137e+10 
           1275     5.72154e+10 
           1285     5.63306e+10 
           1295      4.9976e+10 
           1305     5.09009e+10 
           1315     5.32603e+10 
           1325     5.08071e+10 
           1335     4.93386e+10 
           1345     4.82578e+10 
           1355     4.82622e+10 
           1365     4.55579e+10 
           1375     4.47682e+10 
           1385     4.36154e+10 
           1395     3.43737e+10 
           1405     3.57411e+10 
           1415     4.04722e+10 
           1425     3.77318e+10 
           1435     3.87171e+10 
           1442     3.90197e+10 
           1447     3.84123e+10 
           1455     3.71102e+10 
           1465     3.60488e+10 
           1475     3.55323e+10 
           1485     3.51424e+10 
           1495      3.4121e+10 
           1505     3.24167e+10 
           1512     3.16822e+10 
           1517     3.16586e+10 
           1525     3.10941e+10 
           1535     2.78651e+10 
           1545     2.62966e+10 
           1555     2.56183e+10 
           1565     2.66732e+10 
           1575     2.72954e+10 
           1585     2.70735e+10 
           1595     2.69276e+10 
           1605     2.56323e+10 
           1615     2.46413e+10 
           1625     2.47584e+10 
           1635     2.47735e+10 
           1645     2.41127e+10 
           1655     2.44865e+10 
           1665     2.39813e+10 
           1672     2.30384e+10 
           1677     2.46935e+10 
           1685     2.39036e+10 
           1695     2.31451e+10 
           1705     2.25038e+10 
           1715     2.18246e+10 
           1725      2.1038e+10 
           1735      2.1457e+10 
           1745     2.11227e+10 
           1755     2.07774e+10 
           1765     2.02875e+10 
           1775     1.97534e+10 
           1785     1.96628e+10 
           1795     1.94595e+10 
           1805     1.93486e+10 
           1815     1.86396e+10 
           1825     1.84676e+10 
           1835     1.82008e+10 
           1845     1.70368e+10 
           1855     1.69751e+10 
           1865      1.7008e+10 
           1875     1.68218e+10 
           1885     1.58592e+10 
           1895     1.52369e+10 
           1905      1.5695e+10 
           1915      1.5098e+10 
           1925     1.44363e+10 
           1935     1.49012e+10 
           1945     1.50153e+10 
           1955     1.39464e+10 
           1967     1.43006e+10 
           1976     1.46087e+10 
           1984     1.39044e+10 
           1995     1.35404e+10 
           2005     1.36446e+10 
           2015     1.35986e+10 
           2025     1.35409e+10 
           2035      1.2976e+10 
           2045     1.28179e+10 
           2055     1.14294e+10 
           2065     1.11811e+10 
           2074     1.13681e+10 
           2078     1.10687e+10 
           2085     1.11904e+10 
           2095     1.11842e+10 
           2105     1.16793e+10 
           2115     1.17266e+10 
           2125     1.15731e+10 
           2135     1.14121e+10 
           2145     1.11618e+10 
           2155     1.11152e+10 
           2165     1.08609e+10 
           2175     1.07963e+10 
           2185     1.05714e+10 
           2195     1.05481e+10 
           2205     1.03922e+10 
           2215     1.01296e+10 
           2225     1.00585e+10 
           2235      9.89257e+9 
           2245      9.78071e+9 
           2255      9.51339e+9 
           2265       9.4986e+9 
           2275      9.36505e+9 
           2285      9.17215e+9 
           2295      8.66466e+9 
           2305      8.82789e+9 
           2315      8.77288e+9 
           2325       8.6704e+9 
           2335       8.5265e+9 
           2345      8.44983e+9 
           2355      8.32388e+9 
           2365      8.20918e+9 
           2375      8.06673e+9 
           2385      7.84822e+9 
           2395      7.80252e+9 
           2405      7.73972e+9 
           2415      7.61052e+9 
           2425      7.52546e+9 
           2435      7.37991e+9 
           2445      7.30265e+9 
           2455       7.2064e+9 
           2465      7.12263e+9 
           2475      7.01291e+9 
           2485      6.89496e+9 
           2495      5.93523e+9 
           2505      6.65202e+9 
           2513       6.4087e+9 
           2518        6.473e+9 
           2525       6.5512e+9 
           2535      6.47851e+9 
           2545      6.30846e+9 
           2555      6.25976e+9 
           2565      6.18814e+9 
           2575      6.12824e+9 
           2585      6.05554e+9 
           2595      5.97092e+9 
           2605      5.92073e+9 
           2615      5.83421e+9 
           2625      5.76579e+9 
           2635      5.68847e+9 
           2645         5.61e+9 
           2655      5.53361e+9 
           2665      5.42533e+9 
           2675       5.3543e+9 
           2685       5.3286e+9 
           2695      5.19992e+9 
           2705      5.16051e+9 
           2715      5.10376e+9 
           2725        5.013e+9 
           2735      4.94065e+9 
           2745      4.92081e+9 
           2755      4.86332e+9 
           2765      4.76764e+9 
           2775      4.76133e+9 
           2785      4.68853e+9 
           2795       4.5436e+9 
           2805      4.55153e+9 
           2815      4.53032e+9 
           2825      4.43817e+9 
           2835       4.3584e+9 
           2845      4.36933e+9 
           2855      4.30032e+9 
           2865      4.24989e+9 
           2875      4.19831e+9 
           2885      4.15342e+9 
           2895      4.10014e+9 
           2910      4.01118e+9 
           2930      3.93501e+9 
           2950      3.81024e+9 
           2970      3.75111e+9 
           2990      3.65676e+9 
           3010      3.55249e+9 
           3030      3.47809e+9 
           3050      3.41428e+9 
           3070      3.35015e+9 
           3090       3.2346e+9 
           3110      3.19699e+9 
           3130      3.11454e+9 
           3150      3.05142e+9 
           3170      2.98387e+9 
           3190      2.90289e+9 
           3210      2.85425e+9 
           3230      2.79208e+9 
           3250      2.74116e+9 
           3270      2.67694e+9 
           3290      2.62132e+9 
           3310      2.56921e+9 
           3330      2.50986e+9 
           3350      2.45766e+9 
           3370      2.40728e+9 
           3390      2.36562e+9 
           3410      2.31696e+9 
           3430      2.26616e+9 
           3450      2.21129e+9 
           3470      2.17001e+9 
           3490      2.12603e+9 
           3510      2.08741e+9 
           3530      2.05034e+9 
           3550      2.00888e+9 
           3570      1.97917e+9 
           3590      1.92347e+9 
           3610      1.89733e+9 
           3630      1.85224e+9 
           3640      1.84813e+9 
           3650      1.80403e+9 
           3670        1.779e+9 
           3690      1.74701e+9 
           3710      1.68621e+9 
           3730      1.64437e+9 
           3750      1.61456e+9 
           3770      1.55896e+9 
           3790      1.59275e+9 
           3810       1.6355e+9 
           3830      1.45526e+9 
           3850      1.65499e+9 
           3870       1.6568e+9 
           3890      1.36044e+9 
           3910      1.63916e+9 
           3930      1.61681e+9 
           3950      1.57008e+9 
           3970      1.25839e+9 
           3990      1.51536e+9 
           4010      1.51485e+9 
           4030      1.42968e+9 
           4050      1.47754e+9 
           4070      1.41432e+9 
           4090      1.29578e+9 
           4110      1.16029e+9 
           4130      1.34185e+9 
           4150      1.33496e+9 
           4170      1.32964e+9 
           4190       1.3041e+9 
           4210      1.28709e+9 
           4230      1.26476e+9 
           4250      1.23131e+9 
           4270      1.20206e+9 
           4290      1.18242e+9 
           4310      1.14937e+9 
           4330      1.04319e+9 
           4350      9.59139e+8 
           4370      1.09348e+9 
           4390      1.06558e+9 
           4410      1.07036e+9 
           4430      1.06049e+9 
           4450      1.04118e+9 
           4470      9.80772e+8 
           4490      1.00649e+9 
           4510      9.95698e+8 
           4530      9.80959e+8 
           4550      9.61308e+8 
           4570       9.4687e+8 
           4590      9.29624e+8 
           4610      9.12871e+8 
           4630      8.97761e+8 
           4650      8.66377e+8 
           4670      8.69285e+8 
           4690       8.5406e+8 
           4710      8.28346e+8 
           4730      8.34944e+8 
           4750      8.20247e+8 
           4770      8.11496e+8 
           4790      7.98396e+8 
           4810         7.82e+8 
           4830      7.62312e+8 
           4850      7.02161e+8 
           4870      6.33995e+8 
           4890      7.27003e+8 
           4910      7.22296e+8 
           4930      6.95987e+8 
           4950      7.01522e+8 
           4970      6.95795e+8 
           4990      6.85161e+8 
           5010      6.63476e+8 
           5030      6.63705e+8 
           5050      6.51013e+8 
           5070      6.45653e+8 
           5090      6.35412e+8 
           5110       6.2612e+8 
           5130      6.16681e+8 
           5150       6.0781e+8 
           5170      5.98817e+8 
           5190      5.90938e+8 
           5210      5.82371e+8 
           5230      5.74331e+8 
           5250      5.66041e+8 
           5270      5.57819e+8 
           5290      5.50257e+8 
           5310      5.42445e+8 
           5330      5.34881e+8 
           5350      5.27283e+8 
           5370      5.20084e+8 
           5390      5.12471e+8 
           5410      5.04518e+8 
           5430      4.98739e+8 
           5450       4.9166e+8 
           5470      4.84949e+8 
           5490      4.78472e+8 
           5510      4.72052e+8 
           5530      4.65514e+8 
           5550      4.59377e+8 
           5570      4.53157e+8 
           5590      4.46943e+8 
           5610      4.41092e+8 
           5630       4.3529e+8 
           5650      4.29251e+8 
           5670      4.23135e+8 
           5690      4.16233e+8 
           5710      4.11207e+8 
           5730       4.0615e+8 
           5750       3.9998e+8 
           5770      3.95797e+8 
           5790      3.90595e+8 
           5810      3.85556e+8 
           5830      3.80322e+8 
           5850      3.75623e+8 
           5870      3.59587e+8 
           5890      3.64631e+8 
           5910      3.61574e+8 
           5930       3.5719e+8 
           5950      3.52643e+8 
           5970      3.48741e+8 
           5990       3.4399e+8 
           6010      3.39963e+8 
           6030      3.35577e+8 
           6050      3.31489e+8 
           6070      3.27488e+8 
           6090      3.23431e+8 
           6110       3.1945e+8 
           6130      3.15554e+8 
           6150      3.11344e+8 
           6170      3.07637e+8 
           6190      3.04069e+8 
           6210      3.00423e+8 
           6230      2.96789e+8 
           6250      2.93089e+8 
           6270      2.89632e+8 
           6290      2.86193e+8 
           6310      2.82679e+8 
           6330      2.79391e+8 
           6350      2.75915e+8 
           6370      2.72802e+8 
           6390      2.69547e+8 
           6410      2.66354e+8 
           6430      2.63278e+8 
           6450      2.60172e+8 
           6470      2.56811e+8 
           6490       2.5388e+8 
           6510      2.50616e+8 
           6530      2.46406e+8 
           6550      2.34533e+8 
           6570      2.09569e+8 
           6590      2.36015e+8 
           6610      2.36167e+8 
           6630      2.34238e+8 
           6650      2.31545e+8 
           6670      2.26441e+8 
           6690      2.23995e+8 
           6710       2.2385e+8 
           6730      2.21083e+8 
           6750      2.18972e+8 
           6770      2.16546e+8 
           6790      2.13744e+8 
           6810      2.11686e+8 
           6830      2.09237e+8 
           6850      2.07046e+8 
           6870      2.04748e+8 
           6890        2.023e+8 
           6910      1.99915e+8 
           6930      1.98112e+8 
           6950      1.95959e+8 
           6970      1.93828e+8 
           6990      1.91726e+8 
           7010      1.89629e+8 
           7030      1.87546e+8 
           7050      1.85551e+8 
           7070      1.80832e+8 
           7090      1.81612e+8 
           7110      1.79608e+8 
           7130      1.77727e+8 
           7150      1.75872e+8 
           7170      1.73998e+8 
           7190      1.72172e+8 
           7210      1.70363e+8 
           7230       1.6767e+8 
           7250      1.66589e+8 
           7270      1.65053e+8 
           7290      1.62079e+8 
           7310      1.61616e+8 
           7330      1.59943e+8 
           7350      1.58286e+8 
           7370      1.56665e+8 
           7390      1.55053e+8 
           7410      1.53462e+8 
           7430      1.51886e+8 
           7450      1.50339e+8 
           7470      1.48455e+8 
           7490      1.47247e+8 
           7510      1.45769e+8 
           7530      1.44291e+8 
           7550       1.4288e+8 
           7570      1.41442e+8 
           7590      1.40011e+8 
           7610      1.38476e+8 
           7630      1.37227e+8 
           7650      1.35854e+8 
           7670      1.34519e+8 
           7690      1.33164e+8 
           7710      1.31859e+8 
           7730      1.30509e+8 
           7750      1.29278e+8 
           7770      1.27958e+8 
           7790      1.26762e+8 
           7810      1.25477e+8 
           7830      1.24303e+8 
           7850      1.23175e+8 
           7870      1.21838e+8 
           7890      1.20598e+8 
           7910      1.19633e+8 
           7930      1.18444e+8 
           7950      1.17324e+8 
           7970      1.16137e+8 
           7990       1.1506e+8 
           8010      1.13999e+8 
           8030      1.12889e+8 
           8050      1.11799e+8 
           8070      1.10737e+8 
           8090      1.09557e+8 
           8110      1.08152e+8 
           8130      1.07609e+8 
           8150      1.06537e+8 
           8170      1.05627e+8 
           8190      1.04286e+8 
           8210      1.03225e+8 
           8230      1.02346e+8 
           8250      1.01552e+8 
           8270      1.00036e+8 
           8290      9.96421e+7 
           8310      9.88139e+7 
           8330      9.78567e+7 
           8350      9.66213e+7 
           8370       9.5945e+7 
           8390      9.52312e+7 
           8410      9.43367e+7 
           8430      9.34814e+7 
           8450      9.21319e+7 
           8470      9.18129e+7 
           8490      9.08268e+7 
           8510       9.0083e+7 
           8530       8.9133e+7 
           8550      8.83248e+7 
           8570      8.78361e+7 
