# Kurucz ODFNEW /NOVER (2003)
# teff = 9500 K (value for the effective temperature for the model. Temperatures are given in K)
# logg = 3.5 log(cm/s2) (value for Log(G) for the model.)
# meta = -1.5  (value for the Metallicity for the model.)
# lh = 1.25  (l/Hp where l is the  mixing length of the convective element and Hp is the pressure scale height)
# vtur = 2 km/s (Microturbulence velocity)
# alpha = 0.4  (Alpha)
#
# column 1: WAVELENGTH (ANGSTROM), Wavelength in Angstrom
# column 2: FLUX (ERG/CM2/S/A), Flux in erg/cm2/s/A
            264      4.0028e-23 
          268.5     1.86629e-22 
          273.5      8.1493e-22 
          278.5     3.31659e-21 
            284     1.46028e-20 
            290     6.88282e-20 
            296     3.04007e-19 
            301     1.00211e-18 
            308     4.97718e-18 
            318     4.33415e-17 
            328     3.29736e-16 
            338     2.21687e-15 
            348     1.33251e-14 
            357     6.12674e-14 
            366     2.60805e-13 
            375     1.03282e-12 
            385     4.40892e-12 
            395     1.74371e-11 
            405     6.42846e-11 
            414     1.96713e-10 
            422     5.09868e-10 
            430      1.27361e-9 
            441      4.23935e-9 
            451      1.19919e-8 
            460      2.93621e-8 
            470      7.61389e-8 
            480      1.89362e-7 
            490      4.53001e-7 
            500      1.04461e-6 
            506      1.95416e-6 
            512      3.31613e-6 
            520      6.08619e-6 
            530      1.27069e-5 
            540       2.5561e-5 
            550      5.04431e-5 
            560       9.6657e-5 
            570     0.000180781 
            580        0.000329 
            590     0.000591057 
            600      0.00103561 
            610      0.00177937 
            620       0.0030008 
            630      0.00497152 
            640      0.00809858 
            650       0.0129827 
            658       0.0187293 
            665        0.025608 
            675       0.0395561 
            685       0.0602703 
            695       0.0906366 
            705          0.1346 
            716        0.205121 
            726        0.297252 
            735         0.41121 
            745        0.583884 
            755        0.820705 
            765         1.14244 
            775          1.5756 
            785         2.15354 
            795         2.91769 
            805         3.92138 
            815         5.22813 
            825         6.91715 
            835         9.08344 
            845         11.8481 
            855         15.3449 
            865         19.7421 
            875         25.2375 
            885         32.0672 
            895         40.5002 
            905           50.85 
            915         191.405 
            925          1105.5 
            935          1908.5 
            945         3596.93 
            955         5938.28 
            965         8044.93 
            975         5364.27 
            985         18677.2 
            995         99929.7 
           1005         60707.9 
           1015         17946.3 
           1025         9184.58 
           1035         22794.9 
           1045          108104 
           1055          924236 
           1065      2.04343e+6 
           1075        3.451e+6 
           1085      4.43156e+6 
           1095      4.52192e+6 
           1105      1.29029e+7 
           1115       3.8451e+7 
           1125      4.16341e+7 
           1135      4.36585e+7 
           1145      3.65774e+7 
           1155      2.71189e+7 
           1165       1.8309e+7 
           1175       7.1347e+6 
           1185      5.35895e+6 
           1195         97201.3 
           1205         69457.6 
           1215         23312.1 
           1225         75452.6 
           1235          146219 
           1245          541388 
           1255      5.21433e+6 
           1265      1.30241e+7 
           1275      2.91859e+7 
           1285      4.77247e+7 
           1295      5.56819e+7 
           1305      4.58351e+7 
           1315      6.98743e+7 
           1325         7.91e+7 
           1335      8.35042e+7 
           1345      9.26796e+7 
           1355      8.87703e+7 
           1365      8.56789e+7 
           1375      8.81853e+7 
           1385      8.66435e+7 
           1395      8.62866e+7 
           1405      9.52881e+7 
           1415      9.93028e+7 
           1425      1.02363e+8 
           1435      9.62485e+7 
           1442       1.0446e+8 
           1447      1.06903e+8 
           1455      1.08216e+8 
           1465      1.04125e+8 
           1475       1.0205e+8 
           1485      1.02527e+8 
           1495      1.05431e+8 
           1505      1.06526e+8 
           1512       1.0454e+8 
           1517      1.05792e+8 
           1525      1.01191e+8 
           1535      9.91251e+7 
           1545      1.03757e+8 
           1555      9.60058e+7 
           1565      8.68259e+7 
           1575      9.42194e+7 
           1585      9.82498e+7 
           1595      1.01593e+8 
           1605        9.708e+7 
           1615      9.74111e+7 
           1625      9.13938e+7 
           1635      9.36882e+7 
           1645      9.62071e+7 
           1655      8.67116e+7 
           1665      9.53285e+7 
           1672      8.56702e+7 
           1677      9.08358e+7 
           1685      9.50068e+7 
           1695      8.99907e+7 
           1705      8.87088e+7 
           1715      9.08667e+7 
           1725      8.93414e+7 
           1735      9.17812e+7 
           1745      8.96621e+7 
           1755      9.20753e+7 
           1765      8.58204e+7 
           1775      9.06638e+7 
           1785      8.91897e+7 
           1795      9.20723e+7 
           1805      8.88325e+7 
           1815      8.80508e+7 
           1825       8.5911e+7 
           1835      8.57838e+7 
           1845      8.21782e+7 
           1855      8.41115e+7 
           1865      8.41283e+7 
           1875      8.51814e+7 
           1885      8.53021e+7 
           1895      8.39132e+7 
           1905      8.13082e+7 
           1915      8.22313e+7 
           1925      8.30037e+7 
           1935      8.13964e+7 
           1945      8.35511e+7 
           1955      8.28208e+7 
           1967      8.27549e+7 
           1976      8.09849e+7 
           1984      8.02364e+7 
           1995      7.98519e+7 
           2005      7.85382e+7 
           2015      7.60729e+7 
           2025       7.6254e+7 
           2035      7.74978e+7 
           2045      7.73246e+7 
           2055      7.45622e+7 
           2065      7.47774e+7 
           2074      7.57886e+7 
           2078      7.66993e+7 
           2085      7.64382e+7 
           2095      7.50193e+7 
           2105      7.47223e+7 
           2115      7.40392e+7 
           2125      7.37912e+7 
           2135      7.00535e+7 
           2145      7.31781e+7 
           2155      7.22385e+7 
           2165      7.01871e+7 
           2175      6.99366e+7 
           2185      6.98069e+7 
           2195       7.1891e+7 
           2205      6.96241e+7 
           2215      6.64998e+7 
           2225       6.6417e+7 
           2235      6.97804e+7 
           2245      6.70216e+7 
           2255      6.54239e+7 
           2265      6.48468e+7 
           2275      6.73496e+7 
           2285      6.77629e+7 
           2295      6.55608e+7 
           2305      6.54994e+7 
           2315      6.47457e+7 
           2325       6.5006e+7 
           2335      6.37995e+7 
           2345       6.0273e+7 
           2355      6.33006e+7 
           2365      6.04905e+7 
           2375      6.21969e+7 
           2385      5.80351e+7 
           2395       6.1102e+7 
           2405      5.98127e+7 
           2415      6.02595e+7 
           2425      6.13209e+7 
           2435      5.94135e+7 
           2445      6.09394e+7 
           2455      6.01652e+7 
           2465      5.92105e+7 
           2475      5.79717e+7 
           2485      5.97529e+7 
           2495      5.84585e+7 
           2505      6.04806e+7 
           2513      5.85505e+7 
           2518      5.83217e+7 
           2525      5.60867e+7 
           2535      5.57905e+7 
           2545      5.60986e+7 
           2555      5.79115e+7 
           2565      5.75239e+7 
           2575      5.89529e+7 
           2585      5.91629e+7 
           2595      5.88197e+7 
           2605      5.75362e+7 
           2615      5.71687e+7 
           2625      5.74337e+7 
           2635      5.77637e+7 
           2645      6.03271e+7 
           2655      5.98415e+7 
           2665      5.80724e+7 
           2675      5.88026e+7 
           2685      5.91074e+7 
           2695       5.7933e+7 
           2705      5.79277e+7 
           2715      5.67249e+7 
           2725      5.66848e+7 
           2735       5.7928e+7 
           2745      5.44368e+7 
           2755      5.44841e+7 
           2765      5.56429e+7 
           2775      5.69745e+7 
           2785      5.64398e+7 
           2795      4.98495e+7 
           2805      5.28751e+7 
           2815       5.7064e+7 
           2825      5.66608e+7 
           2835      5.56711e+7 
           2845      5.49035e+7 
           2855      5.39926e+7 
           2865      5.47684e+7 
           2875      5.44017e+7 
           2885      5.49169e+7 
           2895      5.49967e+7 
           2910      5.59037e+7 
           2930      5.45946e+7 
           2950       5.4372e+7 
           2970      5.43298e+7 
           2990      5.40731e+7 
           3010      5.42551e+7 
           3030      5.40377e+7 
           3050        5.355e+7 
           3070      5.28266e+7 
           3090      5.29341e+7 
           3110      5.25009e+7 
           3130      5.20936e+7 
           3150      5.18784e+7 
           3170       5.1627e+7 
           3190      5.07299e+7 
           3210       5.0904e+7 
           3230      5.02034e+7 
           3250      5.02722e+7 
           3270      5.02968e+7 
           3290      5.01953e+7 
           3310      5.00101e+7 
           3330      4.93636e+7 
           3350      4.87927e+7 
           3370      4.87361e+7 
           3390      4.84086e+7 
           3410      4.85552e+7 
           3430       4.8266e+7 
           3450      4.80213e+7 
           3470      4.76852e+7 
           3490      4.74619e+7 
           3510      4.72743e+7 
           3530      4.70787e+7 
           3550      4.68337e+7 
           3570      4.64937e+7 
           3590      4.62314e+7 
           3610      4.59894e+7 
           3630      4.57214e+7 
           3640      4.55643e+7 
           3650      4.59032e+7 
           3670      4.55636e+7 
           3690      4.37319e+7 
           3710      4.71374e+7 
           3730      5.09359e+7 
           3750      6.90182e+7 
           3770      7.46467e+7 
           3790      9.30618e+7 
           3810      1.08977e+8 
           3830      8.58478e+7 
           3850      1.19562e+8 
           3870      1.34116e+8 
           3890      7.31819e+7 
           3910      1.31877e+8 
           3930      1.36667e+8 
           3950      1.30197e+8 
           3970      6.97531e+7 
           3990       1.2369e+8 
           4010      1.33333e+8 
           4030      1.32254e+8 
           4050      1.30643e+8 
           4070      1.26344e+8 
           4090      9.96656e+7 
           4110       7.5361e+7 
           4130      1.19226e+8 
           4150      1.21958e+8 
           4170      1.20843e+8 
           4190      1.19565e+8 
           4210      1.18139e+8 
           4230      1.16308e+8 
           4250      1.14757e+8 
           4270      1.13042e+8 
           4290      1.10957e+8 
           4310      1.06612e+8 
           4330      8.08659e+7 
           4350      6.82802e+7 
           4370      1.01982e+8 
           4390      1.03418e+8 
           4410       1.0297e+8 
           4430      1.02006e+8 
           4450      1.00854e+8 
           4470      9.93933e+7 
           4490      9.74596e+7 
           4510       9.6962e+7 
           4530      9.57148e+7 
           4550      9.42329e+7 
           4570      9.33576e+7 
           4590      9.21649e+7 
           4610      9.12464e+7 
           4630      8.99484e+7 
           4650      8.89846e+7 
           4670        8.787e+7 
           4690      8.67334e+7 
           4710      8.53734e+7 
           4730       8.4663e+7 
           4750      8.36177e+7 
           4770      8.24162e+7 
           4790      8.12385e+7 
           4810      7.97616e+7 
           4830      7.68577e+7 
           4850      6.06627e+7 
           4870      4.87747e+7 
           4890      7.27665e+7 
           4910      7.48971e+7 
           4930      7.44596e+7 
           4950      7.39283e+7 
           4970      7.32552e+7 
           4990      7.23893e+7 
           5010      7.13832e+7 
           5030      7.07005e+7 
           5050      6.97398e+7 
           5070      6.90984e+7 
           5090      6.83048e+7 
           5110      6.75202e+7 
           5130      6.67385e+7 
           5150      6.59726e+7 
           5170      6.48641e+7 
           5190      6.42687e+7 
           5210      6.37484e+7 
           5230      6.29533e+7 
           5250       6.2331e+7 
           5270      6.15428e+7 
           5290      6.09423e+7 
           5310      6.02129e+7 
           5330      5.95497e+7 
           5350      5.89447e+7 
           5370      5.82818e+7 
           5390      5.76426e+7 
           5410      5.69932e+7 
           5430      5.63799e+7 
           5450      5.57817e+7 
           5470      5.51718e+7 
           5490      5.45768e+7 
           5510       5.3989e+7 
           5530      5.33947e+7 
           5550      5.28381e+7 
           5570      5.22711e+7 
           5590      5.17109e+7 
           5610      5.11645e+7 
           5630      5.06245e+7 
           5650       5.0085e+7 
           5670      4.95566e+7 
           5690      4.90401e+7 
           5710      4.85261e+7 
           5730      4.80193e+7 
           5750      4.75172e+7 
           5770      4.70254e+7 
           5790       4.6537e+7 
           5810      4.60576e+7 
           5830      4.55825e+7 
           5850      4.51151e+7 
           5870      4.46092e+7 
           5890      4.41645e+7 
           5910      4.37463e+7 
           5930      4.33028e+7 
           5950      4.28569e+7 
           5970      4.24296e+7 
           5990      4.19945e+7 
           6010      4.15799e+7 
           6030      4.11657e+7 
           6050       4.0754e+7 
           6070      4.03509e+7 
           6090      3.99502e+7 
           6110      3.95549e+7 
           6130      3.91628e+7 
           6150      3.87332e+7 
           6170      3.83954e+7 
           6190      3.80229e+7 
           6210      3.76523e+7 
           6230      3.72838e+7 
           6250      3.69077e+7 
           6270      3.65662e+7 
           6290      3.62131e+7 
           6310      3.58619e+7 
           6330        3.552e+7 
           6350      3.50985e+7 
           6370      3.48023e+7 
           6390      3.45101e+7 
           6410      3.41795e+7 
           6430       3.3857e+7 
           6450      3.34997e+7 
           6470      3.31364e+7 
           6490      3.27562e+7 
           6510      3.22895e+7 
           6530      3.14117e+7 
           6550      2.74566e+7 
           6570       2.2061e+7 
           6590      2.97398e+7 
           6610      3.06689e+7 
           6630       3.0641e+7 
           6650      3.04459e+7 
           6670      3.02263e+7 
           6690      2.99794e+7 
           6710      2.97097e+7 
           6730      2.94336e+7 
           6750      2.91685e+7 
           6770      2.89068e+7 
           6790      2.86444e+7 
           6810      2.83862e+7 
           6830       2.8129e+7 
           6850      2.78775e+7 
           6870      2.76276e+7 
           6890      2.73809e+7 
           6910      2.71366e+7 
           6930      2.68947e+7 
           6950      2.66559e+7 
           6970      2.64202e+7 
           6990      2.61867e+7 
           7010      2.59494e+7 
           7030      2.57264e+7 
           7050      2.55019e+7 
           7070      2.52771e+7 
           7090      2.50583e+7 
           7110      2.48311e+7 
           7130      2.46238e+7 
           7150      2.44074e+7 
           7170      2.41996e+7 
           7190      2.39901e+7 
           7210       2.3784e+7 
           7230      2.35791e+7 
           7250       2.3376e+7 
           7270      2.31777e+7 
           7290      2.29791e+7 
           7310      2.27838e+7 
           7330      2.25909e+7 
           7350      2.23998e+7 
           7370      2.22111e+7 
           7390      2.20234e+7 
           7410      2.18368e+7 
           7430      2.16498e+7 
           7450      2.14719e+7 
           7470      2.12889e+7 
           7490      2.11143e+7 
           7510      2.09398e+7 
           7530       2.0767e+7 
           7550      2.05956e+7 
           7570      2.04251e+7 
           7590      2.02575e+7 
           7610      2.00906e+7 
           7630      1.99259e+7 
           7650       1.9762e+7 
           7670      1.96008e+7 
           7690       1.9441e+7 
           7710       1.9282e+7 
           7730      1.91268e+7 
           7750      1.89718e+7 
           7770       1.8639e+7 
           7790      1.86663e+7 
           7810      1.85165e+7 
           7830      1.83673e+7 
           7850      1.82189e+7 
           7870      1.80613e+7 
           7890      1.79033e+7 
           7910      1.77876e+7 
           7930      1.76452e+7 
           7950      1.74987e+7 
           7970      1.73677e+7 
           7990      1.72018e+7 
           8010      1.70949e+7 
           8030      1.69602e+7 
           8050      1.68272e+7 
           8070      1.66953e+7 
           8090      1.65651e+7 
           8110      1.64359e+7 
           8130      1.63078e+7 
           8150      1.61814e+7 
           8170       1.6056e+7 
           8190      1.59249e+7 
           8210      1.58759e+7 
           8230      1.57577e+7 
           8250      1.56465e+7 
           8270      1.55538e+7 
           8290      1.54438e+7 
           8310      1.53341e+7 
           8330      1.52111e+7 
           8350      1.50962e+7 
           8370      1.49548e+7 
           8390       1.4806e+7 
           8410      1.46376e+7 
           8430       1.4537e+7 
           8450      1.43933e+7 
           8470      1.39589e+7 
           8490      1.44179e+7 
           8510       1.3495e+7 
           8530      1.44513e+7 
           8550      1.27563e+7 
           8570       1.4624e+7 
           8590      1.33766e+7 
           8610      1.29786e+7 
           8630       1.4826e+7 
           8650      1.41251e+7 
           8670      1.14885e+7 
           8690      1.45566e+7 
           8710      1.51145e+7 
           8730      1.44314e+7 
           8750      1.10481e+7 
           8770      1.36075e+7 
           8790      1.49372e+7 
           8810      1.50384e+7 
           8830       1.4663e+7 
           8850      1.28773e+7 
           8870       1.0699e+7 
           8890      1.38266e+7 
           8910      1.44673e+7 
           8930      1.45065e+7 
           8950      1.44352e+7 
           8970      1.41958e+7 
           8990      1.34834e+7 
           9010      1.05264e+7 
           9030      1.15919e+7 
           9050      1.34519e+7 
           9070      1.37183e+7 
           9090      1.36858e+7 
           9110      1.36639e+7 
           9130      1.35788e+7 
           9150       1.3461e+7 
