# Kurucz ODFNEW /NOVER (2003)
# teff = 21000 K (value for the effective temperature for the model. Temperatures are given in K)
# logg = 3.5 log(cm/s2) (value for Log(G) for the model.)
# meta = 0.2  (value for the Metallicity for the model.)
# lh = 1.25  (l/Hp where l is the  mixing length of the convective element and Hp is the pressure scale height)
# vtur = 2 km/s (Microturbulence velocity)
# alpha = 0.4  (Alpha)
#
# column 1: WAVELENGTH (ANGSTROM), Wavelength in Angstrom
# column 2: FLUX (ERG/CM2/S/A), Flux in erg/cm2/s/A
          147.2     3.93441e-19 
            151     2.17932e-18 
          155.2     1.31717e-17 
          158.8     5.73024e-17 
            162     2.01169e-16 
            166     9.06401e-16 
          170.3     4.22556e-15 
          173.4      1.2346e-14 
          176.8     3.82463e-14 
          180.2     1.13978e-13 
          181.7     1.82095e-13 
          186.1     6.92028e-13 
            191      2.8636e-12 
          193.9     6.42241e-12 
          198.4     2.15256e-11 
          201.8     5.19044e-11 
            205     1.15892e-10 
          210.5     4.36931e-10 
          216.2      1.61548e-9 
          219.8      3.56899e-9 
            223      7.07323e-9 
          226.8      1.55604e-8 
            230      2.74521e-7 
            234      6.96477e-7 
            240      2.01812e-6 
          246.5      6.00141e-6 
          252.4      1.55474e-5 
          256.8      2.97802e-5 
            260      5.02427e-5 
            264        8.935e-5 
          268.5     0.000167801 
          273.5     0.000327579 
          278.5     0.000632495 
            284      0.00132147 
            290      0.00270954 
            296      0.00540912 
            301      0.00941065 
            308       0.0205191 
            318       0.0577328 
            328         0.14502 
            338        0.363427 
            348        0.839821 
            357         2.68229 
            366          5.4475 
            375         9.84841 
            385         18.9139 
            395         35.8294 
            405         63.6484 
            414         105.911 
            422         159.633 
            430         242.949 
            441         415.624 
            451          659.57 
            460         971.253 
            470         1492.27 
            480          2224.4 
            490          3303.8 
            500         4802.85 
            506         32182.3 
            512          390865 
            520          476053 
            530          653972 
            540          721625 
            550      1.14507e+6 
            560      1.39267e+6 
            570      1.80967e+6 
            580      1.77961e+6 
            590      2.54988e+6 
            600      3.13617e+6 
            610      3.94741e+6 
            620      4.44892e+6 
            630       5.0578e+6 
            640      5.08263e+6 
            650      4.11148e+6 
            658      6.60001e+6 
            665      7.77508e+6 
            675      8.38747e+6 
            685      9.01469e+6 
            695      1.17139e+7 
            705      1.24436e+7 
            716      1.44319e+7 
            726      1.53658e+7 
            735      1.67547e+7 
            745       1.9568e+7 
            755      2.16557e+7 
            765      2.39991e+7 
            775      2.65901e+7 
            785      2.90923e+7 
            795      3.08697e+7 
            805       3.3105e+7 
            815      3.52758e+7 
            825      3.91621e+7 
            835      3.55865e+7 
            845      4.27029e+7 
            855      4.51792e+7 
            865      4.91806e+7 
            875      5.32846e+7 
            885      5.91098e+7 
            895      6.32425e+7 
            905      6.25057e+7 
            915      1.12979e+8 
            925      1.13046e+9 
            935      3.07192e+9 
            945      6.28526e+9 
            955      8.60547e+9 
            965      9.20155e+9 
            975      1.23022e+9 
            985      6.79198e+9 
            995      7.68471e+9 
           1005     1.03333e+10 
           1015     1.04832e+10 
           1025      5.27072e+9 
           1035      7.05261e+9 
           1045      1.3633e+10 
           1055     1.24342e+10 
           1065       8.8009e+9 
           1075     1.14529e+10 
           1085      9.90254e+9 
           1095     1.19514e+10 
           1105      9.45815e+9 
           1115      7.86837e+9 
           1125      6.76587e+9 
           1135     1.08984e+10 
           1145      9.39306e+9 
           1155     1.01636e+10 
           1165     1.03057e+10 
           1175       5.9177e+9 
           1185     1.00488e+10 
           1195      6.84617e+9 
           1205       2.1878e+9 
           1215       3.4416e+9 
           1225       7.7958e+9 
           1235     1.02979e+10 
           1245     1.02347e+10 
           1255      9.99549e+9 
           1265      9.65022e+9 
           1275     1.01073e+10 
           1285     1.01667e+10 
           1295      4.57235e+9 
           1305      4.79012e+9 
           1315      9.63378e+9 
           1325      8.98743e+9 
           1335      8.18194e+9 
           1345       9.0899e+9 
           1355      8.90124e+9 
           1365      7.60485e+9 
           1375      7.52632e+9 
           1385      7.19158e+9 
           1395       4.6533e+9 
           1405      5.39648e+9 
           1415      6.29041e+9 
           1425      6.65289e+9 
           1435      6.88266e+9 
           1442      7.20915e+9 
           1447      7.06153e+9 
           1455      6.81361e+9 
           1465      6.16834e+9 
           1475      6.35546e+9 
           1485      6.24863e+9 
           1495      6.14003e+9 
           1505      5.44098e+9 
           1512      4.80226e+9 
           1517      5.06008e+9 
           1525      5.31345e+9 
           1535      4.45765e+9 
           1545      4.42333e+9 
           1555      4.30648e+9 
           1565      4.60571e+9 
           1575      4.94743e+9 
           1585      5.01371e+9 
           1595      4.98184e+9 
           1605      5.11783e+9 
           1615      5.10303e+9 
           1625      4.88206e+9 
           1635      5.28645e+9 
           1645      5.27472e+9 
           1655      5.05616e+9 
           1665      5.34608e+9 
           1672      5.10547e+9 
           1677      5.43903e+9 
           1685      5.42214e+9 
           1695      5.03617e+9 
           1705      4.85273e+9 
           1715      4.51106e+9 
           1725       4.4917e+9 
           1735      4.77822e+9 
           1745      4.60373e+9 
           1755      4.68266e+9 
           1765      4.52744e+9 
           1775      4.26875e+9 
           1785       4.3601e+9 
           1795      4.64699e+9 
           1805      4.71498e+9 
           1815      4.02481e+9 
           1825       4.3111e+9 
           1835      4.08915e+9 
           1845       3.7085e+9 
           1855      3.60939e+9 
           1865      3.69188e+9 
           1875      4.08017e+9 
           1885       3.5619e+9 
           1895      3.29235e+9 
           1905      3.68682e+9 
           1915       3.3467e+9 
           1925      3.20944e+9 
           1935      3.46079e+9 
           1945      3.47967e+9 
           1955      3.14422e+9 
           1967      3.53138e+9 
           1976      3.67112e+9 
           1984      3.38709e+9 
           1995      3.30914e+9 
           2005      3.50797e+9 
           2015      3.38082e+9 
           2025      3.56433e+9 
           2035      3.20034e+9 
           2045      3.32406e+9 
           2055      3.18644e+9 
           2065        3.175e+9 
           2074      3.39282e+9 
           2078      2.98438e+9 
           2085      3.23406e+9 
           2095      3.02429e+9 
           2105      3.12222e+9 
           2115      3.15888e+9 
           2125      3.18336e+9 
           2135      3.10956e+9 
           2145      2.94725e+9 
           2155      3.11092e+9 
           2165      3.10668e+9 
           2175      3.07062e+9 
           2185      2.92626e+9 
           2195       3.0035e+9 
           2205      2.98484e+9 
           2215      2.90766e+9 
           2225      2.81126e+9 
           2235      2.82591e+9 
           2245      2.85521e+9 
           2255      2.72259e+9 
           2265      2.80765e+9 
           2275       2.7748e+9 
           2285      2.78952e+9 
           2295      2.55477e+9 
           2305      2.67191e+9 
           2315      2.56804e+9 
           2325      2.52968e+9 
           2335      2.40476e+9 
           2345      2.43129e+9 
           2355       2.4435e+9 
           2365      2.40038e+9 
           2375      2.38288e+9 
           2385      2.34738e+9 
           2395      2.37038e+9 
           2405      2.28251e+9 
           2415      2.29498e+9 
           2425      2.30626e+9 
           2435       2.2134e+9 
           2445      2.25022e+9 
           2455      2.25462e+9 
           2465       2.2004e+9 
           2475      2.15922e+9 
           2485      2.14987e+9 
           2495      1.89659e+9 
           2505      2.09323e+9 
           2513      1.99109e+9 
           2518      2.08308e+9 
           2525      2.02445e+9 
           2535       2.0037e+9 
           2545      1.89725e+9 
           2555      1.98036e+9 
           2565      1.94697e+9 
           2575      1.98722e+9 
           2585      1.96387e+9 
           2595      1.95049e+9 
           2605      1.93388e+9 
           2615      1.90843e+9 
           2625      1.89452e+9 
           2635      1.88391e+9 
           2645      1.88553e+9 
           2655      1.88193e+9 
           2665      1.79437e+9 
           2675      1.82399e+9 
           2685      1.81064e+9 
           2695      1.74836e+9 
           2705      1.72341e+9 
           2715      1.71994e+9 
           2725      1.70648e+9 
           2735      1.71094e+9 
           2745      1.64155e+9 
           2755      1.64187e+9 
           2765      1.63637e+9 
           2775      1.65792e+9 
           2785      1.62966e+9 
           2795      1.55451e+9 
           2805      1.58951e+9 
           2815      1.59273e+9 
           2825      1.57459e+9 
           2835      1.50102e+9 
           2845      1.51557e+9 
           2855      1.50053e+9 
           2865      1.51459e+9 
           2875      1.49391e+9 
           2885      1.48158e+9 
           2895      1.45792e+9 
           2910      1.43452e+9 
           2930      1.41158e+9 
           2950       1.3725e+9 
           2970      1.35763e+9 
           2990      1.32781e+9 
           3010      1.28673e+9 
           3030      1.28621e+9 
           3050      1.26336e+9 
           3070       1.2446e+9 
           3090      1.19808e+9 
           3110      1.19133e+9 
           3130      1.16708e+9 
           3150      1.14885e+9 
           3170      1.11948e+9 
           3190      1.09375e+9 
           3210      1.08301e+9 
           3230      1.06087e+9 
           3250      1.04643e+9 
           3270       1.0257e+9 
           3290      1.00613e+9 
           3310      9.90401e+8 
           3330      9.70217e+8 
           3350      9.52725e+8 
           3370       9.3528e+8 
           3390      9.21917e+8 
           3410      9.06566e+8 
           3430       8.8597e+8 
           3450       8.6753e+8 
           3470      8.53429e+8 
           3490      8.37737e+8 
           3510      8.26872e+8 
           3530      8.16289e+8 
           3550      8.02185e+8 
           3570      7.91507e+8 
           3590      7.68536e+8 
           3610      7.55737e+8 
           3630      7.47089e+8 
           3640      7.46771e+8 
           3650        7.357e+8 
           3670      7.28095e+8 
           3690      7.07691e+8 
           3710      6.88941e+8 
           3730      6.75264e+8 
           3750      7.42475e+8 
           3770      7.43445e+8 
           3790      7.74068e+8 
           3810      8.04139e+8 
           3830       7.0662e+8 
           3850      8.07443e+8 
           3870      7.97584e+8 
           3890      6.73986e+8 
           3910      7.98499e+8 
           3930      7.64147e+8 
           3950      7.65145e+8 
           3970      6.25871e+8 
           3990      7.36653e+8 
           4010      7.33118e+8 
           4030      6.94614e+8 
           4050      7.09705e+8 
           4070      6.77094e+8 
           4090      6.44251e+8 
           4110      5.75684e+8 
           4130      6.44665e+8 
           4150      6.40478e+8 
           4170      6.38747e+8 
           4190      6.33823e+8 
           4210      6.29048e+8 
           4230      6.14776e+8 
           4250      5.98846e+8 
           4270      5.79426e+8 
           4290      5.75838e+8 
           4310      5.60771e+8 
           4330      5.22951e+8 
           4350      4.79032e+8 
           4370      5.33287e+8 
           4390      5.28165e+8 
           4410      5.25942e+8 
           4430      5.19265e+8 
           4450      5.14114e+8 
           4470      4.91781e+8 
           4490      4.96193e+8 
           4510      4.95469e+8 
           4530      4.85247e+8 
           4550      4.79535e+8 
           4570      4.71848e+8 
           4590       4.6424e+8 
           4610      4.53661e+8 
           4630      4.47448e+8 
           4650      4.35471e+8 
           4670      4.34876e+8 
           4690      4.32322e+8 
           4710      4.13239e+8 
           4730      4.14871e+8 
           4750      4.08913e+8 
           4770      4.10194e+8 
           4790      4.02309e+8 
           4810      3.92604e+8 
           4830      3.86453e+8 
           4850      3.66808e+8 
           4870      3.28633e+8 
           4890      3.72033e+8 
           4910       3.6768e+8 
           4930      3.55031e+8 
           4950      3.56749e+8 
           4970      3.54814e+8 
           4990      3.48632e+8 
           5010      3.32496e+8 
           5030      3.37555e+8 
           5050      3.27796e+8 
           5070      3.29671e+8 
           5090      3.24177e+8 
           5110      3.18586e+8 
           5130      3.11397e+8 
           5150      3.08599e+8 
           5170      3.07132e+8 
           5190       3.0298e+8 
           5210      2.95412e+8 
           5230      2.95071e+8 
           5250      2.91419e+8 
           5270      2.86499e+8 
           5290      2.83987e+8 
           5310      2.79727e+8 
           5330      2.75443e+8 
           5350      2.70966e+8 
           5370      2.69291e+8 
           5390       2.6552e+8 
           5410      2.62016e+8 
           5430      2.57521e+8 
           5450      2.54341e+8 
           5470      2.50671e+8 
           5490      2.48598e+8 
           5510      2.45643e+8 
           5530      2.41886e+8 
           5550      2.39571e+8 
           5570      2.36105e+8 
           5590      2.33719e+8 
           5610      2.30045e+8 
           5630      2.28092e+8 
           5650      2.22055e+8 
           5670      2.19014e+8 
           5690      2.17035e+8 
           5710      2.15772e+8 
           5730      2.13603e+8 
           5750      2.10353e+8 
           5770      2.08796e+8 
           5790      2.06131e+8 
           5810      2.03442e+8 
           5830      2.00585e+8 
           5850       1.9849e+8 
           5870      1.90776e+8 
           5890      1.91644e+8 
           5910      1.90662e+8 
           5930       1.8836e+8 
           5950      1.85255e+8 
           5970      1.84787e+8 
           5990      1.81613e+8 
           6010      1.80385e+8 
           6030      1.77885e+8 
           6050       1.7596e+8 
           6070      1.74086e+8 
           6090      1.71838e+8 
           6110      1.70038e+8 
           6130      1.68209e+8 
           6150      1.64666e+8 
           6170      1.63739e+8 
           6190      1.62309e+8 
           6210      1.60494e+8 
           6230      1.58708e+8 
           6250      1.56179e+8 
           6270      1.54753e+8 
           6290      1.53076e+8 
           6310         1.51e+8 
           6330      1.49784e+8 
           6350      1.47011e+8 
           6370      1.45885e+8 
           6390      1.44484e+8 
           6410      1.42905e+8 
           6430      1.41699e+8 
           6450      1.39898e+8 
           6470      1.37945e+8 
           6490      1.36569e+8 
           6510      1.35117e+8 
           6530      1.33187e+8 
           6550      1.28669e+8 
           6570      1.13949e+8 
           6590      1.27467e+8 
           6610      1.27818e+8 
           6630      1.26688e+8 
           6650       1.2522e+8 
           6670      1.22887e+8 
           6690      1.21656e+8 
           6710      1.21384e+8 
           6730      1.19832e+8 
           6750      1.18916e+8 
           6770       1.1768e+8 
           6790      1.15207e+8 
           6810      1.14913e+8 
           6830      1.13619e+8 
           6850      1.12708e+8 
           6870       1.1151e+8 
           6890      1.10252e+8 
           6910      1.09031e+8 
           6930      1.07893e+8 
           6950      1.06968e+8 
           6970      1.05875e+8 
           6990      1.04691e+8 
           7010      1.03581e+8 
           7030      1.02528e+8 
           7050      1.01439e+8 
           7070      9.87329e+7 
           7090      9.94432e+7 
           7110      9.74612e+7 
           7130      9.65743e+7 
           7150      9.63074e+7 
           7170      9.54411e+7 
           7190      9.45465e+7 
           7210      9.35952e+7 
           7230      9.10673e+7 
           7250      9.14686e+7 
           7270      9.07879e+7 
           7290      8.91562e+7 
           7310      8.89651e+7 
           7330      8.80806e+7 
           7350      8.72672e+7 
           7370      8.64127e+7 
           7390      8.55524e+7 
           7410      8.47207e+7 
           7430      8.37057e+7 
           7450      8.30057e+7 
           7470      8.17989e+7 
           7490      8.13291e+7 
           7510      8.05759e+7 
           7530       7.9763e+7 
           7550      7.91031e+7 
           7570       7.8357e+7 
           7590      7.75326e+7 
           7610      7.67873e+7 
           7630       7.6107e+7 
           7650      7.53877e+7 
           7670      7.46813e+7 
           7690      7.39621e+7 
           7710       7.3262e+7 
           7730      7.25177e+7 
           7750       7.1893e+7 
           7770      7.04438e+7 
           7790      7.05544e+7 
           7810      6.98415e+7 
           7830      6.92516e+7 
           7850      6.83979e+7 
           7870      6.77891e+7 
           7890      6.69134e+7 
           7910      6.66356e+7 
           7930      6.59824e+7 
           7950      6.50488e+7 
           7970      6.46812e+7 
           7990        6.375e+7 
           8010      6.35436e+7 
           8030      6.29704e+7 
           8050      6.24021e+7 
           8070      6.19197e+7 
           8090       6.1234e+7 
           8110        6.056e+7 
           8130      6.02567e+7 
           8150      5.96551e+7 
           8170      5.92618e+7 
           8190      5.84841e+7 
           8210      5.78306e+7 
           8230      5.72217e+7 
           8250      5.71162e+7 
           8270      5.60856e+7 
           8290      5.60291e+7 
           8310      5.55197e+7 
           8330      5.51014e+7 
           8350      5.43245e+7 
           8370      5.39038e+7 
           8390      5.35936e+7 
           8410      5.30828e+7 
           8430      5.25344e+7 
           8450      5.14513e+7 
           8470      5.13919e+7 
           8490       5.1207e+7 
           8510      5.01827e+7 
           8530      5.06155e+7 
           8550       4.8481e+7 
           8570      5.05735e+7 
