# Kurucz ODFNEW /NOVER (2003)
# teff = 21000 K (value for the effective temperature for the model. Temperatures are given in K)
# logg = 5 log(cm/s2) (value for Log(G) for the model.)
# meta = -1.5  (value for the Metallicity for the model.)
# lh = 1.25  (l/Hp where l is the  mixing length of the convective element and Hp is the pressure scale height)
# vtur = 2 km/s (Microturbulence velocity)
# alpha = 0  (Alpha)
#
# column 1: WAVELENGTH (ANGSTROM), Wavelength in Angstrom
# column 2: FLUX (ERG/CM2/S/A), Flux in erg/cm2/s/A
          147.2      6.4838e-19 
            151     3.87948e-18 
          155.2     2.54062e-17 
          158.8     1.17733e-16 
            162     4.35656e-16 
            166      2.0879e-15 
          170.3     1.03941e-14 
          173.4      3.1509e-14 
          176.8     1.01826e-13 
          180.2     3.15182e-13 
          181.7     5.12041e-13 
          186.1     2.03511e-12 
            191     8.79104e-12 
          193.9     2.01726e-11 
          198.4     6.98493e-11 
          201.8     1.72364e-10 
            205     3.92794e-10 
          210.5      1.52383e-9 
          216.2      5.77863e-9 
          219.8      1.29444e-8 
            223      2.59193e-8 
          226.8      5.76473e-8 
            230      1.60854e-7 
            234      3.78498e-7 
            240      1.16433e-6 
          246.5      3.67149e-6 
          252.4      9.89875e-6 
          256.8      1.99447e-5 
            260      3.31266e-5 
            264      6.07937e-5 
          268.5     0.000117593 
          273.5      0.00023836 
          278.5     0.000471248 
            284     0.000968634 
            290      0.00205741 
            296      0.00422879 
            301      0.00754199 
            308       0.0163171 
            318       0.0467168 
            328        0.124462 
            338        0.311853 
            348        0.739031 
            357          1.5369 
            366         3.07782 
            375         5.94382 
            385         11.8835 
            395         22.8715 
            405          42.518 
            414         72.2572 
            422         113.378 
            430         174.652 
            441         307.844 
            451         501.859 
            460         763.625 
            470         1192.49 
            480         1823.97 
            490         2737.53 
            500         4033.72 
            506         27163.4 
            512         80087.2 
            520          102593 
            530          146413 
            540          170613 
            550          242589 
            560          303582 
            570          382573 
            580          412398 
            590          554715 
            600          699754 
            610          849448 
            620      1.01297e+6 
            630      1.21011e+6 
            640      1.41237e+6 
            650      1.67589e+6 
            658      1.90878e+6 
            665      2.11687e+6 
            675      2.43174e+6 
            685      2.80059e+6 
            695      3.26193e+6 
            705      3.72079e+6 
            716      4.27908e+6 
            726      4.84117e+6 
            735      5.41539e+6 
            745      6.10722e+6 
            755      6.85287e+6 
            765      7.63855e+6 
            775      8.52279e+6 
            785      9.45881e+6 
            795      1.04431e+7 
            805      1.15154e+7 
            815      1.26383e+7 
            825      1.38819e+7 
            835      1.50054e+7 
            845      1.65038e+7 
            855      1.78799e+7 
            865      1.94974e+7 
            875      2.11151e+7 
            885      2.28695e+7 
            895       2.4648e+7 
            905       2.6184e+7 
            915       3.8718e+7 
            925      1.29606e+8 
            935      3.14148e+8 
            945      1.52961e+9 
            955      4.56276e+9 
            965      6.71112e+9 
            975      1.76475e+9 
            985     1.27332e+10 
            995     1.47678e+10 
           1005     1.51359e+10 
           1015      9.75004e+9 
           1025      9.40259e+8 
           1035      7.51542e+9 
           1045     1.50343e+10 
           1055     1.56778e+10 
           1065     1.43753e+10 
           1075     1.53544e+10 
           1085     1.42122e+10 
           1095     1.49708e+10 
           1105     1.40414e+10 
           1115     1.39453e+10 
           1125     1.31043e+10 
           1135     1.34271e+10 
           1145     1.25433e+10 
           1155     1.28684e+10 
           1165     1.27092e+10 
           1175     1.09988e+10 
           1185      1.1867e+10 
           1195      9.93224e+9 
           1205      6.06986e+9 
           1215      8.66779e+8 
           1225       5.2198e+9 
           1235      9.45612e+9 
           1245     1.02517e+10 
           1255     1.01689e+10 
           1265       9.9937e+9 
           1275     1.01261e+10 
           1285      9.97843e+9 
           1295       9.0562e+9 
           1305      8.82636e+9 
           1315      9.39065e+9 
           1325      9.03829e+9 
           1335      8.61972e+9 
           1345       8.7869e+9 
           1355      8.68354e+9 
           1365      8.41342e+9 
           1375      8.27415e+9 
           1385      8.16413e+9 
           1395      7.79661e+9 
           1405      7.77725e+9 
           1415      7.68841e+9 
           1425      7.59535e+9 
           1435      7.46864e+9 
           1442      7.42438e+9 
           1447      7.34294e+9 
           1455       7.2181e+9 
           1465      7.04687e+9 
           1475      6.93624e+9 
           1485      6.77275e+9 
           1495      6.67082e+9 
           1505      6.47352e+9 
           1512      6.33709e+9 
           1517      6.34253e+9 
           1525      6.23421e+9 
           1535      5.99816e+9 
           1545       6.0153e+9 
           1555       5.8193e+9 
           1565      5.78809e+9 
           1575      5.76661e+9 
           1585      5.67308e+9 
           1595      5.61372e+9 
           1605      5.44103e+9 
           1615      5.35508e+9 
           1625      5.30036e+9 
           1635      5.24558e+9 
           1645       5.1458e+9 
           1655      5.02563e+9 
           1665      5.03937e+9 
           1672      4.87625e+9 
           1677      4.93803e+9 
           1685      4.88316e+9 
           1695      4.77785e+9 
           1705      4.66677e+9 
           1715      4.56204e+9 
           1725      4.48334e+9 
           1735      4.46835e+9 
           1745      4.37671e+9 
           1755      4.35535e+9 
           1765      4.14941e+9 
           1775      4.18625e+9 
           1785      4.13108e+9 
           1795      4.10424e+9 
           1805       4.0486e+9 
           1815      3.96031e+9 
           1825      3.92358e+9 
           1835       3.8561e+9 
           1845      3.72864e+9 
           1855      3.62976e+9 
           1865      3.60773e+9 
           1875      3.62539e+9 
           1885      3.48853e+9 
           1895       3.3918e+9 
           1905      3.43933e+9 
           1915      3.33252e+9 
           1925      3.27979e+9 
           1935      3.27234e+9 
           1945      3.27134e+9 
           1955      3.14925e+9 
           1967      3.17267e+9 
           1976      3.16873e+9 
           1984      3.08571e+9 
           1995      3.00142e+9 
           2005      3.01607e+9 
           2015      2.99279e+9 
           2025      2.97378e+9 
           2035      2.90796e+9 
           2045      2.87013e+9 
           2055      2.78678e+9 
           2065      2.77744e+9 
           2074      2.78842e+9 
           2078      2.73233e+9 
           2085       2.7303e+9 
           2095      2.66859e+9 
           2105      2.66379e+9 
           2115       2.6379e+9 
           2125       2.6193e+9 
           2135      2.57962e+9 
           2145      2.53884e+9 
           2155      2.51679e+9 
           2165      2.47985e+9 
           2175      2.44802e+9 
           2185      2.42085e+9 
           2195      2.39743e+9 
           2205      2.36202e+9 
           2215      2.32976e+9 
           2225      2.29555e+9 
           2235      2.27672e+9 
           2245      2.24983e+9 
           2255      2.21732e+9 
           2265      2.19705e+9 
           2275      2.16824e+9 
           2285       2.1475e+9 
           2295      2.10673e+9 
           2305      2.09182e+9 
           2315      2.06303e+9 
           2325      2.04226e+9 
           2335      2.00525e+9 
           2345      1.96688e+9 
           2355      1.96536e+9 
           2365       1.9289e+9 
           2375      1.91596e+9 
           2385       1.8798e+9 
           2395      1.86669e+9 
           2405      1.84436e+9 
           2415       1.8226e+9 
           2425      1.81477e+9 
           2435      1.78751e+9 
           2445      1.76857e+9 
           2455        1.755e+9 
           2465      1.72876e+9 
           2475      1.71254e+9 
           2485      1.69446e+9 
           2495      1.66033e+9 
           2505       1.6573e+9 
           2513      1.63018e+9 
           2518      1.63435e+9 
           2525      1.61526e+9 
           2535       1.5904e+9 
           2545       1.5777e+9 
           2555      1.57045e+9 
           2565      1.54832e+9 
           2575      1.53723e+9 
           2585      1.51995e+9 
           2595      1.50221e+9 
           2605      1.49048e+9 
           2615      1.47679e+9 
           2625       1.4631e+9 
           2635       1.4461e+9 
           2645      1.44009e+9 
           2655      1.42306e+9 
           2665        1.402e+9 
           2675       1.3878e+9 
           2685       1.3813e+9 
           2695      1.35535e+9 
           2705      1.35199e+9 
           2715      1.33638e+9 
           2725      1.31081e+9 
           2735      1.31015e+9 
           2745      1.28258e+9 
           2755      1.27234e+9 
           2765      1.25694e+9 
           2775      1.25817e+9 
           2785       1.2441e+9 
           2795      1.20884e+9 
           2805      1.21058e+9 
           2815      1.20846e+9 
           2825      1.18283e+9 
           2835      1.17019e+9 
           2845      1.17059e+9 
           2855      1.15995e+9 
           2865      1.14939e+9 
           2875       1.1374e+9 
           2885      1.12654e+9 
           2895      1.11562e+9 
           2910       1.0993e+9 
           2930      1.07653e+9 
           2950      1.04818e+9 
           2970      1.03675e+9 
           2990      1.01644e+9 
           3010      9.97781e+8 
           3030      9.79195e+8 
           3050      9.60726e+8 
           3070      9.42773e+8 
           3090      9.25203e+8 
           3110      9.08161e+8 
           3130      8.92324e+8 
           3150      8.75941e+8 
           3170      8.59974e+8 
           3190      8.37156e+8 
           3210      8.28914e+8 
           3230      8.13986e+8 
           3250      7.99469e+8 
           3270      7.85985e+8 
           3290      7.71376e+8 
           3310      7.58713e+8 
           3330      7.45482e+8 
           3350      7.31572e+8 
           3370      7.19896e+8 
           3390      7.07591e+8 
           3410      6.95492e+8 
           3430      6.82025e+8 
           3450      6.68855e+8 
           3470      6.58946e+8 
           3490      6.48013e+8 
           3510      6.37652e+8 
           3530      6.27877e+8 
           3550      6.17355e+8 
           3570      6.09925e+8 
           3590      5.96571e+8 
           3610       5.8865e+8 
           3630      5.77406e+8 
           3640      5.76086e+8 
           3650      5.69428e+8 
           3670      5.62651e+8 
           3690      5.53691e+8 
           3710      5.36187e+8 
           3730      5.12121e+8 
           3750      5.18058e+8 
           3770      5.12444e+8 
           3790      5.52816e+8 
           3810      5.90057e+8 
           3830      5.01727e+8 
           3850      6.23583e+8 
           3870      6.54558e+8 
           3890      4.64859e+8 
           3910      6.48528e+8 
           3930      6.60092e+8 
           3950      6.31717e+8 
           3970      4.35939e+8 
           3990      6.00468e+8 
           4010      6.20733e+8 
           4030      5.73808e+8 
           4050      6.12827e+8 
           4070      5.94811e+8 
           4090      5.05321e+8 
           4110      4.25524e+8 
           4130      5.52607e+8 
           4150      5.57925e+8 
           4170      5.56746e+8 
           4190      5.50349e+8 
           4210      5.42518e+8 
           4230      5.33568e+8 
           4250      5.24053e+8 
           4270      5.13473e+8 
           4290      5.04459e+8 
           4310      4.87438e+8 
           4330      4.06068e+8 
           4350      3.64635e+8 
           4370      4.60769e+8 
           4390      4.46299e+8 
           4410      4.59965e+8 
           4430      4.51521e+8 
           4450      4.46558e+8 
           4470      4.10349e+8 
           4490      4.31704e+8 
           4510      4.27736e+8 
           4530       4.2114e+8 
           4550      4.14753e+8 
           4570      4.08515e+8 
           4590      4.02388e+8 
           4610      3.96333e+8 
           4630      3.90369e+8 
           4650      3.84491e+8 
           4670      3.78925e+8 
           4690      3.73354e+8 
           4710      3.61869e+8 
           4730      3.62132e+8 
           4750      3.56634e+8 
           4770      3.51448e+8 
           4790      3.45564e+8 
           4810      3.38902e+8 
           4830      3.27995e+8 
           4850      2.81908e+8 
           4870      2.46749e+8 
           4890      3.10211e+8 
           4910      3.13799e+8 
           4930      3.01416e+8 
           4950      3.08441e+8 
           4970      3.04926e+8 
           4990      3.00671e+8 
           5010      2.91671e+8 
           5030       2.9226e+8 
           5050      2.85917e+8 
           5070      2.84398e+8 
           5090      2.80496e+8 
           5110      2.76645e+8 
           5130      2.72889e+8 
           5150      2.69154e+8 
           5170      2.65554e+8 
           5190      2.61987e+8 
           5210      2.58327e+8 
           5230      2.55006e+8 
           5250      2.51604e+8 
           5270      2.48246e+8 
           5290      2.44973e+8 
           5310      2.41741e+8 
           5330      2.38551e+8 
           5350      2.35389e+8 
           5370      2.32359e+8 
           5390      2.29341e+8 
           5410      2.26361e+8 
           5430      2.23381e+8 
           5450      2.20527e+8 
           5470      2.17708e+8 
           5490      2.14938e+8 
           5510      2.12176e+8 
           5530      2.09486e+8 
           5550      2.06842e+8 
           5570      2.04218e+8 
           5590       2.0165e+8 
           5610      1.99101e+8 
           5630      1.96632e+8 
           5650      1.94109e+8 
           5670      1.91711e+8 
           5690      1.89365e+8 
           5710      1.87047e+8 
           5730      1.84745e+8 
           5750      1.82482e+8 
           5770      1.80258e+8 
           5790      1.78059e+8 
           5810      1.75887e+8 
           5830      1.73762e+8 
           5850      1.71662e+8 
           5870      1.63246e+8 
           5890      1.66917e+8 
           5910      1.65552e+8 
           5930       1.6358e+8 
           5950       1.6161e+8 
           5970      1.59715e+8 
           5990       1.5781e+8 
           6010      1.55969e+8 
           6030      1.54138e+8 
           6050      1.52328e+8 
           6070      1.50549e+8 
           6090        1.488e+8 
           6110      1.47071e+8 
           6130      1.45371e+8 
           6150       1.4368e+8 
           6170      1.42037e+8 
           6190      1.40413e+8 
           6210      1.38807e+8 
           6230      1.37218e+8 
           6250      1.35656e+8 
           6270      1.34121e+8 
           6290      1.32613e+8 
           6310      1.31111e+8 
           6330      1.29645e+8 
           6350      1.28091e+8 
           6370      1.26713e+8 
           6390      1.25349e+8 
           6410      1.23944e+8 
           6430      1.22582e+8 
           6450      1.21225e+8 
           6470       1.1982e+8 
           6490      1.18224e+8 
           6510      1.16548e+8 
           6530      1.13962e+8 
           6550      1.04556e+8 
           6570      9.11693e+7 
           6590      1.08409e+8 
           6610      1.10021e+8 
           6630      1.09419e+8 
           6650      1.08472e+8 
           6670      1.06086e+8 
           6690      1.05083e+8 
           6710      1.05286e+8 
           6730      1.04162e+8 
           6750      1.03066e+8 
           6770      1.01973e+8 
           6790      1.00891e+8 
           6810       9.9836e+7 
           6830      9.87918e+7 
           6850      9.77582e+7 
           6870      9.67428e+7 
           6890      9.57376e+7 
           6910      9.47423e+7 
           6930       9.3757e+7 
           6950       9.2797e+7 
           6970      9.18465e+7 
           6990      9.08975e+7 
           7010      8.99733e+7 
           7030      8.90504e+7 
           7050      8.81442e+7 
           7070      8.58826e+7 
           7090      8.63655e+7 
           7110      8.54928e+7 
           7130      8.46359e+7 
           7150      8.37872e+7 
           7170      8.29467e+7 
           7190      8.21143e+7 
           7210       8.1297e+7 
           7230      8.04082e+7 
           7250      7.96928e+7 
           7270      7.89057e+7 
           7290      7.75518e+7 
           7310      7.73536e+7 
           7330      7.65955e+7 
           7350      7.58445e+7 
           7370      7.51074e+7 
           7390      7.43772e+7 
           7410      7.36538e+7 
           7430      7.29371e+7 
           7450      7.22406e+7 
           7470      7.15437e+7 
           7490      7.08532e+7 
           7510      7.01557e+7 
           7530      6.95045e+7 
           7550      6.88393e+7 
           7570      6.81802e+7 
           7590      6.75336e+7 
           7610      6.68929e+7 
           7630      6.62644e+7 
           7650      6.56352e+7 
           7670      6.50179e+7 
           7690      6.44062e+7 
           7710      6.38064e+7 
           7730      6.32118e+7 
           7750      6.26194e+7 
           7770      6.19979e+7 
           7790      6.14621e+7 
           7810      6.08735e+7 
           7830      6.03306e+7 
           7850      5.98078e+7 
           7870       5.9256e+7 
           7890         5.87e+7 
           7910      5.81844e+7 
           7930      5.76534e+7 
           7950      5.71217e+7 
           7970      5.65976e+7 
           7990      5.60821e+7 
           8010      5.55881e+7 
           8030       5.5086e+7 
           8050      5.45899e+7 
           8070      5.40993e+7 
           8090       5.3576e+7 
           8110      5.31042e+7 
           8130      5.26568e+7 
           8150      5.21429e+7 
           8170      5.17197e+7 
           8190      5.12158e+7 
           8210       5.0686e+7 
           8230      5.03193e+7 
           8250      4.99001e+7 
           8270      4.93385e+7 
           8290      4.90377e+7 
           8310      4.86366e+7 
           8330      4.81987e+7 
           8350      4.76482e+7 
           8370      4.73401e+7 
           8390      4.69846e+7 
           8410      4.65744e+7 
           8430      4.61501e+7 
           8450      4.55542e+7 
           8470      4.53377e+7 
           8490      4.48808e+7 
           8510      4.44839e+7 
           8530      4.40907e+7 
           8550      4.34518e+7 
           8570      4.35534e+7 
           8590      4.22868e+7 
