# Kurucz ODFNEW /NOVER (2003)
# teff = 8000 K (value for the effective temperature for the model. Temperatures are given in K)
# logg = 5 log(cm/s2) (value for Log(G) for the model.)
# meta = -1  (value for the Metallicity for the model.)
# lh = 1.25  (l/Hp where l is the  mixing length of the convective element and Hp is the pressure scale height)
# vtur = 2 km/s (Microturbulence velocity)
# alpha = 0.4  (Alpha)
#
# column 1: WAVELENGTH (ANGSTROM), Wavelength in Angstrom
# column 2: FLUX (ERG/CM2/S/A), Flux in erg/cm2/s/A
            318      4.5126e-23 
            328     5.87134e-22 
            338     5.98941e-21 
            348     5.30017e-20 
            357     3.56662e-20 
            366     1.89251e-19 
            375     9.21403e-19 
            385      4.8781e-18 
            395     2.35908e-17 
            405     1.05013e-16 
            414      3.7709e-16 
            422     1.11804e-15 
            430     3.17439e-15 
            441     1.24749e-14 
            451      4.0651e-14 
            460     1.12289e-13 
            470     3.30649e-13 
            480      9.2696e-13 
            490     2.48412e-12 
            500      6.3723e-12 
            506     1.45456e-11 
            512     2.79374e-11 
            520     5.54492e-11 
            530     1.27489e-10 
            540     2.78645e-10 
            550      5.9791e-10 
            560      1.23734e-9 
            570      2.48961e-9 
            580      4.81999e-9 
            590      9.31153e-9 
            600      1.73589e-8 
            610      3.16368e-8 
            620      5.64085e-8 
            630      9.85343e-8 
            640      1.68857e-7 
            650      2.84085e-7 
            658      4.25174e-7 
            665      5.99436e-7 
            675      9.66081e-7 
            685      1.53261e-6 
            695      2.39472e-6 
            705      3.68396e-6 
            716      5.83595e-6 
            726      8.73643e-6 
            735       1.2429e-5 
            745      1.81799e-5 
            755      2.62886e-5 
            765      3.75915e-5 
            775       5.3184e-5 
            785      7.44869e-5 
            795     0.000102887 
            805     0.000141704 
            815     0.000193037 
            825     0.000260502 
            835     0.000348597 
            845     0.000462749 
            855     0.000609446 
            865     0.000796684 
            875      0.00103297 
            885      0.00133236 
            895      0.00170553 
            905      0.00216776 
            915         1.15706 
            925          7.6101 
            935         12.3354 
            945         19.1161 
            955         26.4724 
            965         34.7996 
            975         33.9959 
            985         52.1552 
            995         61.4434 
           1005         78.3354 
           1015         91.2766 
           1025          81.049 
           1035         130.129 
           1045         162.249 
           1055         192.036 
           1065         225.279 
           1075         272.028 
           1085         324.815 
           1095         373.831 
           1105          725.12 
           1115         1481.07 
           1125         1827.53 
           1135         2402.31 
           1145         2800.36 
           1155         2930.47 
           1165          3481.6 
           1175         3781.42 
           1185         3856.03 
           1195          2333.2 
           1205         1737.73 
           1215         461.372 
           1225         1936.39 
           1235         4413.63 
           1245         6964.52 
           1255         9830.93 
           1265         11271.8 
           1275         14550.1 
           1285         19827.5 
           1295         23513.2 
           1305         25215.9 
           1315         31095.2 
           1325         35932.1 
           1335         40238.6 
           1345           46319 
           1355         49339.4 
           1365         56055.7 
           1375           60998 
           1385           65152 
           1395           72412 
           1405         78467.1 
           1415         87972.1 
           1425         93721.1 
           1435         97315.1 
           1442          110573 
           1447          111030 
           1455          122485 
           1465          125726 
           1475          136406 
           1485          146445 
           1495          160092 
           1505          174142 
           1512          181168 
           1517          185820 
           1525          196300 
           1535          239766 
           1545          278543 
           1555          281672 
           1565          259779 
           1575          306896 
           1585          326924 
           1595          349123 
           1605          363535 
           1615          423726 
           1625          542918 
           1635          983191 
           1645      2.62024e+6 
           1655      2.63075e+6 
           1665      6.28293e+6 
           1672        5.565e+6 
           1677      8.97133e+6 
           1685      1.19221e+7 
           1695      9.12928e+6 
           1705      1.24584e+7 
           1715      1.68305e+7 
           1725      1.75855e+7 
           1735      2.14907e+7 
           1745      2.05956e+7 
           1755      2.43025e+7 
           1765      1.79596e+7 
           1775      2.31505e+7 
           1785      2.45294e+7 
           1795      2.73261e+7 
           1805      2.34905e+7 
           1815      2.43542e+7 
           1825      2.25509e+7 
           1835      2.42156e+7 
           1845      2.04931e+7 
           1855      2.31707e+7 
           1865       2.5713e+7 
           1875      2.55991e+7 
           1885      2.61436e+7 
           1895      2.67653e+7 
           1905      2.50193e+7 
           1915      2.78631e+7 
           1925      2.85524e+7 
           1935      2.51923e+7 
           1945      2.96313e+7 
           1955      2.96128e+7 
           1967       3.1274e+7 
           1976      3.00017e+7 
           1984      2.93525e+7 
           1995      2.93554e+7 
           2005       2.7785e+7 
           2015      2.85046e+7 
           2025      2.58553e+7 
           2035      2.95218e+7 
           2045      3.10696e+7 
           2055      3.00454e+7 
           2065      2.99892e+7 
           2074      3.24174e+7 
           2078      3.29444e+7 
           2085      3.23466e+7 
           2095      3.13158e+7 
           2105      3.01849e+7 
           2115      3.08855e+7 
           2125      3.10636e+7 
           2135      2.75004e+7 
           2145      3.11142e+7 
           2155      3.04083e+7 
           2165       2.8523e+7 
           2175      2.84365e+7 
           2185      3.01819e+7 
           2195      3.21399e+7 
           2205      3.09216e+7 
           2215      2.82672e+7 
           2225      2.93698e+7 
           2235      3.29101e+7 
           2245      3.00911e+7 
           2255      2.87113e+7 
           2265      2.78033e+7 
           2275      2.99826e+7 
           2285      3.11263e+7 
           2295       2.8644e+7 
           2305      2.98099e+7 
           2315      3.01329e+7 
           2325      2.97655e+7 
           2335      2.87738e+7 
           2345      2.53214e+7 
           2355      3.01926e+7 
           2365      2.66327e+7 
           2375      2.87538e+7 
           2385      2.44845e+7 
           2395      2.68852e+7 
           2405      2.62693e+7 
           2415      2.62648e+7 
           2425      2.89276e+7 
           2435      2.75226e+7 
           2445      2.91879e+7 
           2455      2.87531e+7 
           2465      2.89989e+7 
           2475      2.71999e+7 
           2485      2.75988e+7 
           2495      2.66875e+7 
           2505      3.02331e+7 
           2513      2.68637e+7 
           2518      2.58183e+7 
           2525      2.46307e+7 
           2535      2.40293e+7 
           2545      2.28078e+7 
           2555      2.48601e+7 
           2565      2.57781e+7 
           2575      2.90446e+7 
           2585      2.97393e+7 
           2595      2.96661e+7 
           2605      2.83407e+7 
           2615      2.75007e+7 
           2625      3.01241e+7 
           2635       3.0132e+7 
           2645      3.36077e+7 
           2655      3.39494e+7 
           2665      3.11962e+7 
           2675      3.24206e+7 
           2685      3.33993e+7 
           2695      3.08079e+7 
           2705      3.14712e+7 
           2715      2.95676e+7 
           2725      2.97502e+7 
           2735      3.14544e+7 
           2745      2.71444e+7 
           2755      2.82253e+7 
           2765      2.96762e+7 
           2775      3.09103e+7 
           2785      2.87338e+7 
           2795      1.61908e+7 
           2805      1.98486e+7 
           2815      3.20026e+7 
           2825      3.24911e+7 
           2835      3.18188e+7 
           2845      3.04268e+7 
           2855       2.7104e+7 
           2865      3.12097e+7 
           2875      3.08785e+7 
           2885      3.12972e+7 
           2895      3.09851e+7 
           2910      3.33238e+7 
           2930      3.20134e+7 
           2950      3.17955e+7 
           2970      3.22348e+7 
           2990      3.21476e+7 
           3010      3.21576e+7 
           3030      3.22113e+7 
           3050      3.21389e+7 
           3070      3.20373e+7 
           3090      3.20607e+7 
           3110      3.16672e+7 
           3130      3.17591e+7 
           3150      3.20082e+7 
           3170      3.18973e+7 
           3190      3.04753e+7 
           3210      3.09227e+7 
           3230      2.99238e+7 
           3250      3.07604e+7 
           3270      3.12125e+7 
           3290      3.14481e+7 
           3310      3.15393e+7 
           3330      3.08127e+7 
           3350      3.04072e+7 
           3370       3.0266e+7 
           3390      3.01515e+7 
           3410      3.03497e+7 
           3430      3.04476e+7 
           3450      3.00763e+7 
           3470      2.98795e+7 
           3490      2.98931e+7 
           3510      3.00779e+7 
           3530      2.98233e+7 
           3550      3.01264e+7 
           3570      2.92894e+7 
           3590      2.90879e+7 
           3610      2.91015e+7 
           3630      2.91677e+7 
           3640       2.8891e+7 
           3650      2.95417e+7 
           3670      2.95255e+7 
           3690       2.8628e+7 
           3710      2.81806e+7 
           3730      2.66604e+7 
           3750      3.02643e+7 
           3770      3.12216e+7 
           3790      3.64479e+7 
           3810      4.14202e+7 
           3830      3.34819e+7 
           3850      4.51643e+7 
           3870      4.96767e+7 
           3890      3.12271e+7 
           3910      4.98064e+7 
           3930      4.70567e+7 
           3950       5.0039e+7 
           3970      2.97829e+7 
           3990      4.89911e+7 
           4010      5.49862e+7 
           4030      5.55483e+7 
           4050      5.47782e+7 
           4070      5.19715e+7 
           4090      4.18638e+7 
           4110      3.31454e+7 
           4130      4.99842e+7 
           4150      5.27323e+7 
           4170      5.31961e+7 
           4190      5.27131e+7 
           4210      5.25089e+7 
           4230      5.14366e+7 
           4250      5.14542e+7 
           4270      5.06221e+7 
           4290      4.95309e+7 
           4310      4.59877e+7 
           4330      3.64434e+7 
           4350      3.16315e+7 
           4370       4.5783e+7 
           4390      4.75581e+7 
           4410      4.77592e+7 
           4430      4.77244e+7 
           4450      4.74943e+7 
           4470      4.73662e+7 
           4490      4.69284e+7 
           4510      4.70057e+7 
           4530      4.62024e+7 
           4550      4.57316e+7 
           4570      4.58481e+7 
           4590      4.52921e+7 
           4610      4.53201e+7 
           4630      4.47167e+7 
           4650      4.45036e+7 
           4670      4.42183e+7 
           4690      4.34874e+7 
           4710      4.23088e+7 
           4730      4.29301e+7 
           4750      4.25443e+7 
           4770      4.20459e+7 
           4790      4.13918e+7 
           4810      4.04116e+7 
           4830      3.82835e+7 
           4850      3.07165e+7 
           4870       2.5423e+7 
           4890      3.62454e+7 
           4910      3.84401e+7 
           4930      3.85055e+7 
           4950      3.87161e+7 
           4970       3.8791e+7 
           4990      3.82704e+7 
           5010      3.76338e+7 
           5030      3.78458e+7 
           5050      3.74358e+7 
           5070      3.73448e+7 
           5090      3.70068e+7 
           5110      3.67653e+7 
           5130      3.63475e+7 
           5150      3.59336e+7 
           5170      3.49134e+7 
           5190      3.47567e+7 
           5210      3.49345e+7 
           5230      3.45494e+7 
           5250      3.46885e+7 
           5270      3.36376e+7 
           5290       3.4069e+7 
           5310      3.37594e+7 
           5330      3.29906e+7 
           5350      3.32209e+7 
           5370      3.28341e+7 
           5390      3.26013e+7 
           5410      3.21058e+7 
           5430      3.20563e+7 
           5450      3.18303e+7 
           5470      3.16156e+7 
           5490      3.13682e+7 
           5510      3.11707e+7 
           5530      3.08273e+7 
           5550      3.07169e+7 
           5570      3.03692e+7 
           5590      2.99859e+7 
           5610      2.98538e+7 
           5630      2.97384e+7 
           5650      2.94846e+7 
           5670      2.91855e+7 
           5690      2.90063e+7 
           5710      2.87492e+7 
           5730       2.8605e+7 
           5750      2.83175e+7 
           5770      2.81261e+7 
           5790      2.78961e+7 
           5810       2.7691e+7 
           5830      2.74814e+7 
           5850      2.72278e+7 
           5870      2.70218e+7 
           5890      2.65682e+7 
           5910      2.66098e+7 
           5930      2.63995e+7 
           5950      2.61883e+7 
           5970       2.5993e+7 
           5990      2.57778e+7 
           6010      2.55606e+7 
           6030      2.53499e+7 
           6050      2.51764e+7 
           6070      2.50015e+7 
           6090      2.47929e+7 
           6110      2.45824e+7 
           6130      2.42939e+7 
           6150      2.40963e+7 
           6170      2.38404e+7 
           6190      2.38518e+7 
           6210      2.36691e+7 
           6230      2.34436e+7 
           6250      2.31839e+7 
           6270      2.31301e+7 
           6290      2.29556e+7 
           6310      2.27432e+7 
           6330      2.25724e+7 
           6350      2.23324e+7 
           6370      2.21821e+7 
           6390      2.20509e+7 
           6410      2.18126e+7 
           6430      2.16589e+7 
           6450      2.13455e+7 
           6470      2.11795e+7 
           6490      2.08954e+7 
           6510      2.05467e+7 
           6530      1.97258e+7 
           6550       1.7181e+7 
           6570      1.40699e+7 
           6590      1.86135e+7 
           6610      1.96073e+7 
           6630      1.98294e+7 
           6650      1.98338e+7 
           6670      1.97523e+7 
           6690      1.96554e+7 
           6710      1.95251e+7 
           6730      1.94042e+7 
           6750      1.92505e+7 
           6770      1.91526e+7 
           6790      1.90105e+7 
           6810      1.88689e+7 
           6830      1.87295e+7 
           6850      1.85882e+7 
           6870       1.8461e+7 
           6890      1.83277e+7 
           6910      1.81942e+7 
           6930      1.80579e+7 
           6950      1.79292e+7 
           6970       1.7797e+7 
           6990      1.76722e+7 
           7010      1.75078e+7 
           7030      1.74061e+7 
           7050      1.72893e+7 
           7070      1.71637e+7 
           7090       1.7043e+7 
           7110       1.6866e+7 
           7130      1.67842e+7 
           7150      1.66506e+7 
           7170      1.65359e+7 
           7190      1.64127e+7 
           7210      1.63043e+7 
           7230      1.61933e+7 
           7250      1.60719e+7 
           7270      1.59722e+7 
           7290      1.58279e+7 
           7310       1.5745e+7 
           7330      1.56206e+7 
           7350      1.55301e+7 
           7370      1.54217e+7 
           7390      1.52983e+7 
           7410      1.51568e+7 
           7430      1.50644e+7 
           7450      1.49755e+7 
           7470      1.48677e+7 
           7490      1.47602e+7 
           7510      1.46724e+7 
           7530      1.45753e+7 
           7550       1.4481e+7 
           7570      1.43743e+7 
           7590      1.42777e+7 
           7610      1.41774e+7 
           7630      1.40818e+7 
           7650      1.39768e+7 
           7670       1.3863e+7 
           7690      1.37712e+7 
           7710      1.36897e+7 
           7730      1.36032e+7 
           7750       1.3498e+7 
           7770      1.32457e+7 
           7790      1.33299e+7 
           7810      1.32327e+7 
           7830      1.31369e+7 
           7850      1.30432e+7 
           7870      1.29478e+7 
           7890      1.28513e+7 
           7910      1.27834e+7 
           7930      1.26615e+7 
           7950       1.2586e+7 
           7970      1.25353e+7 
           7990      1.24237e+7 
           8010      1.23635e+7 
           8030      1.22763e+7 
           8050      1.21944e+7 
           8070      1.21173e+7 
           8090      1.20344e+7 
           8110      1.19574e+7 
           8130      1.18832e+7 
           8150      1.18034e+7 
           8170      1.17237e+7 
           8190      1.15918e+7 
           8210      1.15415e+7 
           8230      1.14605e+7 
           8250      1.13867e+7 
           8270      1.13614e+7 
           8290      1.12881e+7 
           8310      1.12021e+7 
           8330      1.10958e+7 
           8350      1.10686e+7 
           8370      1.10072e+7 
           8390      1.09232e+7 
           8410      1.08606e+7 
           8430      1.07811e+7 
           8450      1.06404e+7 
           8470      1.06117e+7 
           8490      1.05675e+7 
           8510      1.02953e+7 
           8530      1.04391e+7 
           8550      9.81679e+6 
           8570      1.03676e+7 
           8590       1.0085e+7 
           8610      9.96503e+6 
           8630      1.02285e+7 
           8650      9.99594e+6 
           8670      9.08985e+6 
           8690      9.93456e+6 
           8710      1.00742e+7 
           8730      9.81506e+6 
           8750      8.68575e+6 
           8770      9.51854e+6 
           8790      9.87509e+6 
           8810      9.83904e+6 
           8830      9.69692e+6 
           8850      9.01197e+6 
           8870      8.07788e+6 
           8890       9.3205e+6 
           8910      9.56486e+6 
           8930      9.59151e+6 
           8950      9.58819e+6 
           8970      9.42984e+6 
           8990      9.05138e+6 
           9010      7.67798e+6 
           9030      8.20766e+6 
           9050      9.01225e+6 
           9070      9.12276e+6 
           9090      9.09269e+6 
           9110      9.17537e+6 
           9130      9.17227e+6 
           9150      9.09532e+6 
           9170      8.96878e+6 
           9190      8.74467e+6 
           9210      8.18976e+6 
           9230      6.77418e+6 
           9250      7.93988e+6 
           9270      8.42955e+6 
           9290      8.63948e+6 
           9310      8.67064e+6 
           9330      8.65515e+6 
           9350      8.62506e+6 
