# Kurucz ODFNEW /NOVER (2003)
# teff = 26000 K (value for the effective temperature for the model. Temperatures are given in K)
# logg = 4 log(cm/s2) (value for Log(G) for the model.)
# meta = 0  (value for the Metallicity for the model.)
# lh = 1.25  (l/Hp where l is the  mixing length of the convective element and Hp is the pressure scale height)
# vtur = 2 km/s (Microturbulence velocity)
# alpha = 0  (Alpha)
#
# column 1: WAVELENGTH (ANGSTROM), Wavelength in Angstrom
# column 2: FLUX (ERG/CM2/S/A), Flux in erg/cm2/s/A
          147.2     3.25146e-13 
            151     1.29634e-12 
          155.2     5.56452e-12 
          158.8     1.83529e-11 
            162     5.09785e-11 
            166     1.73982e-10 
          170.3     6.12063e-10 
          173.4      1.46644e-9 
          176.8      3.69592e-9 
          180.2      9.02064e-9 
          181.7      1.32378e-8 
          186.1      3.95154e-8 
            191       1.2643e-7 
          193.9      2.45123e-7 
          198.4       6.6042e-7 
          201.8      1.35804e-6 
            205      2.62164e-6 
          210.5      7.76946e-6 
          216.2      2.26356e-5 
          219.8      4.32562e-5 
            223      7.56171e-5 
          226.8     0.000144215 
            230       0.0156197 
            234       0.0351108 
            240       0.0768502 
          246.5        0.174947 
          252.4        0.358836 
          256.8        0.562813 
            260        0.913402 
            264          1.3983 
          268.5         2.26731 
          273.5         3.76209 
          278.5         6.10006 
            284         11.1497 
            290         18.9417 
            296         31.6687 
            301         47.1655 
            308         84.7625 
            318         193.934 
            328         379.832 
            338         764.644 
            348          1427.2 
            357         5309.13 
            366         10026.3 
            375         14733.8 
            385         23910.2 
            395         42237.6 
            405         62150.9 
            414         90322.7 
            422          120408 
            430          167401 
            441          244152 
            451          326979 
            460          422432 
            470          582421 
            480          773178 
            490      1.02586e+6 
            500      1.32021e+6 
            506      6.54917e+6 
            512      4.22424e+7 
            520      4.59822e+7 
            530      5.12897e+7 
            540      5.32292e+7 
            550      7.52849e+7 
            560      8.86888e+7 
            570      1.02387e+8 
            580      9.78612e+7 
            590      1.24025e+8 
            600      1.33415e+8 
            610       1.5458e+8 
            620      1.70469e+8 
            630      1.77677e+8 
            640       1.6446e+8 
            650      1.32234e+8 
            658      1.85944e+8 
            665       2.2358e+8 
            675      2.36766e+8 
            685      2.37772e+8 
            695       3.0721e+8 
            705      3.05424e+8 
            716      3.46802e+8 
            726      3.55104e+8 
            735       3.6531e+8 
            745      4.11445e+8 
            755       4.3287e+8 
            765      4.60482e+8 
            775      4.88147e+8 
            785      5.19654e+8 
            795      5.34881e+8 
            805      5.49951e+8 
            815      5.60229e+8 
            825      6.07417e+8 
            835      5.33859e+8 
            845      6.18838e+8 
            855      6.27947e+8 
            865      6.65573e+8 
            875      7.04376e+8 
            885      7.54589e+8 
            895      7.83958e+8 
            905      7.76664e+8 
            915      1.05676e+9 
            925      6.73391e+9 
            935     1.50623e+10 
            945     2.71212e+10 
            955     3.24197e+10 
            965       3.725e+10 
            975      7.24866e+9 
            985      3.0096e+10 
            995     2.95173e+10 
           1005     3.41801e+10 
           1015     3.48234e+10 
           1025     1.98884e+10 
           1035     2.83968e+10 
           1045     4.06493e+10 
           1055     3.73235e+10 
           1065      3.0427e+10 
           1075     3.44448e+10 
           1085     3.08321e+10 
           1095     3.43511e+10 
           1105     3.13842e+10 
           1115     3.05026e+10 
           1125     2.42274e+10 
           1135     3.11596e+10 
           1145     2.84547e+10 
           1155     2.88218e+10 
           1165      2.8318e+10 
           1175     1.65438e+10 
           1185      2.6333e+10 
           1195     2.47479e+10 
           1205     1.81774e+10 
           1215     1.40364e+10 
           1225     2.27718e+10 
           1235     2.55595e+10 
           1245     2.46231e+10 
           1255     2.42993e+10 
           1265     2.47594e+10 
           1275     2.55035e+10 
           1285     2.52153e+10 
           1295     1.88582e+10 
           1305     2.02374e+10 
           1315     2.44069e+10 
           1325      2.2791e+10 
           1335     2.19794e+10 
           1345      2.2137e+10 
           1355     2.18299e+10 
           1365     2.01719e+10 
           1375     1.95059e+10 
           1385     1.89219e+10 
           1395     1.35412e+10 
           1405     1.47123e+10 
           1415     1.67419e+10 
           1425     1.61907e+10 
           1435     1.68582e+10 
           1442     1.71937e+10 
           1447     1.68743e+10 
           1455     1.62673e+10 
           1465     1.49958e+10 
           1475     1.53435e+10 
           1485      1.5145e+10 
           1495     1.47828e+10 
           1505     1.34144e+10 
           1512     1.19926e+10 
           1517     1.23603e+10 
           1525     1.26889e+10 
           1535     1.06437e+10 
           1545     1.02227e+10 
           1555      9.92542e+9 
           1565     1.08663e+10 
           1575     1.15961e+10 
           1585     1.16032e+10 
           1595      1.1458e+10 
           1605     1.15154e+10 
           1615     1.11563e+10 
           1625     1.10504e+10 
           1635       1.166e+10 
           1645     1.16125e+10 
           1655     1.15119e+10 
           1665     1.16041e+10 
           1672     1.10024e+10 
           1677       1.219e+10 
           1685     1.16717e+10 
           1695       1.101e+10 
           1705     1.07191e+10 
           1715     1.01233e+10 
           1725      9.92584e+9 
           1735     1.02982e+10 
           1745     1.00839e+10 
           1755     1.01037e+10 
           1765      9.98279e+9 
           1775      9.32501e+9 
           1785      9.50696e+9 
           1795      9.71222e+9 
           1805      9.77211e+9 
           1815      8.73818e+9 
           1825      9.05983e+9 
           1835       8.7923e+9 
           1845      7.98464e+9 
           1855      8.12771e+9 
           1865      8.23574e+9 
           1875      8.50668e+9 
           1885      7.56751e+9 
           1895      7.02783e+9 
           1905      7.61634e+9 
           1915      7.17786e+9 
           1925      6.76707e+9 
           1935      7.22394e+9 
           1945      7.39263e+9 
           1955        6.601e+9 
           1967      7.18165e+9 
           1976      7.50887e+9 
           1984      6.93669e+9 
           1995      6.81213e+9 
           2005      7.06195e+9 
           2015      6.98961e+9 
           2025      7.16605e+9 
           2035      6.50357e+9 
           2045      6.61921e+9 
           2055      6.27804e+9 
           2065      6.25723e+9 
           2074      6.60119e+9 
           2078      5.95976e+9 
           2085      6.29713e+9 
           2095      5.99682e+9 
           2105      6.23322e+9 
           2115      6.24187e+9 
           2125      6.29039e+9 
           2135      6.17672e+9 
           2145       5.8335e+9 
           2155      6.08093e+9 
           2165      6.04088e+9 
           2175      5.95918e+9 
           2185      5.76399e+9 
           2195      5.83521e+9 
           2205      5.80782e+9 
           2215      5.70812e+9 
           2225       5.5599e+9 
           2235      5.45671e+9 
           2245      5.49813e+9 
           2255      5.32723e+9 
           2265      5.37157e+9 
           2275      5.29046e+9 
           2285      5.26929e+9 
           2295      4.79246e+9 
           2305      5.08061e+9 
           2315       4.9422e+9 
           2325      4.88521e+9 
           2335      4.75646e+9 
           2345      4.78839e+9 
           2355      4.75339e+9 
           2365      4.70445e+9 
           2375      4.59693e+9 
           2385      4.55958e+9 
           2395      4.49965e+9 
           2405      4.42629e+9 
           2415      4.37841e+9 
           2425      4.36191e+9 
           2435      4.23936e+9 
           2445      4.23828e+9 
           2455      4.22902e+9 
           2465      4.15838e+9 
           2475      4.09114e+9 
           2485       4.0107e+9 
           2495      3.42868e+9 
           2505      3.87967e+9 
           2513       3.7206e+9 
           2518       3.8485e+9 
           2525      3.82194e+9 
           2535      3.78135e+9 
           2545      3.64961e+9 
           2555      3.67875e+9 
           2565      3.63083e+9 
           2575      3.62444e+9 
           2585      3.57283e+9 
           2595      3.53741e+9 
           2605       3.5078e+9 
           2615      3.45508e+9 
           2625       3.4294e+9 
           2635      3.39528e+9 
           2645      3.34742e+9 
           2655      3.32658e+9 
           2665      3.20555e+9 
           2675      3.20826e+9 
           2685      3.20108e+9 
           2695      3.08681e+9 
           2705      3.03442e+9 
           2715      3.03388e+9 
           2725      3.02079e+9 
           2735      2.99627e+9 
           2745      2.93128e+9 
           2755      2.91783e+9 
           2765      2.87789e+9 
           2775      2.89192e+9 
           2785      2.84385e+9 
           2795      2.74478e+9 
           2805      2.76374e+9 
           2815      2.76392e+9 
           2825      2.71937e+9 
           2835      2.62869e+9 
           2845      2.66121e+9 
           2855      2.61311e+9 
           2865      2.60564e+9 
           2875      2.57702e+9 
           2885      2.54886e+9 
           2895      2.50957e+9 
           2910      2.45832e+9 
           2930      2.42325e+9 
           2950      2.34934e+9 
           2970      2.31571e+9 
           2990      2.26187e+9 
           3010      2.18301e+9 
           3030      2.17013e+9 
           3050      2.13273e+9 
           3070      2.09648e+9 
           3090      2.01466e+9 
           3110      2.00457e+9 
           3130      1.95481e+9 
           3150      1.92156e+9 
           3170      1.87298e+9 
           3190      1.83254e+9 
           3210       1.8082e+9 
           3230      1.76429e+9 
           3250       1.7369e+9 
           3270      1.69768e+9 
           3290      1.66359e+9 
           3310      1.63375e+9 
           3330      1.59815e+9 
           3350      1.56912e+9 
           3370      1.53775e+9 
           3390        1.513e+9 
           3410      1.48465e+9 
           3430      1.45096e+9 
           3450      1.41867e+9 
           3470      1.39367e+9 
           3490      1.36593e+9 
           3510      1.34374e+9 
           3530      1.32508e+9 
           3550      1.29994e+9 
           3570      1.28139e+9 
           3590      1.24421e+9 
           3610      1.22347e+9 
           3630       1.2043e+9 
           3640      1.20273e+9 
           3650       1.1757e+9 
           3670      1.16217e+9 
           3690      1.13768e+9 
           3710      1.09564e+9 
           3730      1.05503e+9 
           3750      1.09615e+9 
           3770      1.08641e+9 
           3790      1.12913e+9 
           3810      1.16584e+9 
           3830      1.03317e+9 
           3850      1.17559e+9 
           3870      1.16096e+9 
           3890      9.79087e+8 
           3910      1.15347e+9 
           3930      1.11741e+9 
           3950      1.10506e+9 
           3970       9.0833e+8 
           3990      1.06695e+9 
           4010      1.05919e+9 
           4030      1.00556e+9 
           4050      1.02515e+9 
           4070       9.8089e+8 
           4090      9.23441e+8 
           4110      8.32315e+8 
           4130      9.34772e+8 
           4150      9.28497e+8 
           4170       9.2284e+8 
           4190      9.11261e+8 
           4210      9.02135e+8 
           4230      8.82697e+8 
           4250      8.59621e+8 
           4270       8.3669e+8 
           4290      8.26614e+8 
           4310      8.02817e+8 
           4330       7.4647e+8 
           4350      6.88436e+8 
           4370      7.63642e+8 
           4390       7.5498e+8 
           4410      7.51615e+8 
           4430      7.44229e+8 
           4450      7.32228e+8 
           4470      6.99708e+8 
           4490      7.09522e+8 
           4510      7.03058e+8 
           4530      6.91503e+8 
           4550      6.81252e+8 
           4570      6.69566e+8 
           4590      6.58379e+8 
           4610      6.43816e+8 
           4630      6.34347e+8 
           4650      6.14249e+8 
           4670      6.15753e+8 
           4690      6.10256e+8 
           4710      5.87864e+8 
           4730      5.89083e+8 
           4750      5.79458e+8 
           4770      5.78119e+8 
           4790      5.68113e+8 
           4810      5.56738e+8 
           4830      5.46017e+8 
           4850      5.14969e+8 
           4870      4.64413e+8 
           4890      5.23247e+8 
           4910       5.1779e+8 
           4930        5.005e+8 
           4950      5.01476e+8 
           4970      4.97966e+8 
           4990      4.89867e+8 
           5010       4.7058e+8 
           5030      4.75154e+8 
           5050      4.64573e+8 
           5070      4.62585e+8 
           5090      4.55249e+8 
           5110        4.481e+8 
           5130      4.38858e+8 
           5150      4.33795e+8 
           5170      4.29895e+8 
           5190      4.24476e+8 
           5210      4.17726e+8 
           5230      4.12485e+8 
           5250      4.06984e+8 
           5270      4.00577e+8 
           5290      3.95885e+8 
           5310      3.90183e+8 
           5330      3.85112e+8 
           5350      3.79421e+8 
           5370      3.75006e+8 
           5390      3.69609e+8 
           5410      3.65041e+8 
           5430      3.59827e+8 
           5450      3.54831e+8 
           5470      3.50139e+8 
           5490      3.45567e+8 
           5510      3.41537e+8 
           5530       3.3641e+8 
           5550       3.3273e+8 
           5570      3.28135e+8 
           5590      3.24128e+8 
           5610      3.19726e+8 
           5630      3.15818e+8 
           5650      3.10612e+8 
           5670      3.05413e+8 
           5690      3.00617e+8 
           5710      2.98827e+8 
           5730      2.95356e+8 
           5750      2.90787e+8 
           5770      2.88469e+8 
           5790       2.8458e+8 
           5810      2.81084e+8 
           5830      2.76953e+8 
           5850      2.73929e+8 
           5870      2.63428e+8 
           5890      2.65052e+8 
           5910      2.63186e+8 
           5930      2.59506e+8 
           5950      2.56169e+8 
           5970      2.54518e+8 
           5990      2.50323e+8 
           6010      2.48023e+8 
           6030      2.44557e+8 
           6050      2.41831e+8 
           6070        2.393e+8 
           6090       2.3643e+8 
           6110      2.33593e+8 
           6130      2.30939e+8 
           6150      2.27198e+8 
           6170      2.24876e+8 
           6190       2.2259e+8 
           6210      2.20152e+8 
           6230      2.17615e+8 
           6250      2.14662e+8 
           6270      2.12318e+8 
           6290      2.09989e+8 
           6310      2.07401e+8 
           6330        2.052e+8 
           6350      2.02311e+8 
           6370      2.00374e+8 
           6390      1.98043e+8 
           6410      1.95809e+8 
           6430      1.93691e+8 
           6450      1.91423e+8 
           6470      1.88658e+8 
           6490      1.86638e+8 
           6510      1.84835e+8 
           6530      1.82061e+8 
           6550      1.75718e+8 
           6570      1.56636e+8 
           6590      1.74381e+8 
           6610      1.74396e+8 
           6630       1.7278e+8 
           6650      1.70814e+8 
           6670      1.67572e+8 
           6690       1.6578e+8 
           6710      1.65413e+8 
           6730      1.63233e+8 
           6750      1.61862e+8 
           6770      1.60102e+8 
           6790      1.57248e+8 
           6810      1.56423e+8 
           6830      1.54725e+8 
           6850      1.53221e+8 
           6870      1.51564e+8 
           6890      1.49796e+8 
           6910      1.48055e+8 
           6930      1.46738e+8 
           6950      1.45217e+8 
           6970      1.43679e+8 
           6990      1.42125e+8 
           7010      1.40625e+8 
           7030      1.39125e+8 
           7050       1.3767e+8 
           7070      1.34096e+8 
           7090      1.34809e+8 
           7110      1.32688e+8 
           7130      1.31389e+8 
           7150      1.30633e+8 
           7170       1.2929e+8 
           7190      1.27988e+8 
           7210      1.26663e+8 
           7230      1.23686e+8 
           7250      1.23872e+8 
           7270      1.22792e+8 
           7290      1.20588e+8 
           7310      1.20282e+8 
           7330      1.19044e+8 
           7350      1.17888e+8 
           7370      1.16708e+8 
           7390      1.15532e+8 
           7410      1.14374e+8 
           7430      1.13193e+8 
           7450      1.12091e+8 
           7470       1.1056e+8 
           7490      1.09822e+8 
           7510      1.08724e+8 
           7530      1.07622e+8 
           7550      1.06649e+8 
           7570      1.05607e+8 
           7590       1.0456e+8 
           7610       1.0342e+8 
           7630      1.02503e+8 
           7650      1.01517e+8 
           7670      1.00533e+8 
           7690      9.95589e+7 
           7710      9.85741e+7 
           7730      9.76044e+7 
           7750      9.67062e+7 
           7770      9.54726e+7 
           7790      9.48651e+7 
           7810      9.39043e+7 
           7830      9.30626e+7 
           7850        9.221e+7 
           7870      9.12371e+7 
           7890      9.02063e+7 
           7910       8.9558e+7 
           7930      8.86755e+7 
           7950      8.78067e+7 
           7970      8.69217e+7 
           7990      8.60563e+7 
           8010      8.52866e+7 
           8030      8.44883e+7 
           8050      8.37667e+7 
           8070      8.30455e+7 
           8090      8.21346e+7 
           8110      8.11515e+7 
           8130      8.07983e+7 
           8150      7.99485e+7 
           8170        7.936e+7 
           8190       7.8327e+7 
           8210      7.74708e+7 
           8230      7.67443e+7 
           8250       7.6356e+7 
           8270      7.50177e+7 
           8290      7.48919e+7 
           8310        7.427e+7 
           8330      7.36043e+7 
           8350      7.25929e+7 
           8370      7.21174e+7 
           8390      7.16187e+7 
           8410      7.09376e+7 
           8430      7.02727e+7 
           8450       6.9091e+7 
           8470      6.89227e+7 
           8490      6.82638e+7 
           8510      6.74543e+7 
           8530      6.71591e+7 
           8550      6.56342e+7 
           8570      6.66773e+7 
           8590      6.40901e+7 
