# Kurucz ODFNEW /NOVER (2003)
# teff = 26000 K (value for the effective temperature for the model. Temperatures are given in K)
# logg = 5 log(cm/s2) (value for Log(G) for the model.)
# meta = 0.2  (value for the Metallicity for the model.)
# lh = 1.25  (l/Hp where l is the  mixing length of the convective element and Hp is the pressure scale height)
# vtur = 2 km/s (Microturbulence velocity)
# alpha = 0.4  (Alpha)
#
# column 1: WAVELENGTH (ANGSTROM), Wavelength in Angstrom
# column 2: FLUX (ERG/CM2/S/A), Flux in erg/cm2/s/A
          147.2     1.93234e-12 
            151     7.22942e-12 
          155.2     2.88971e-11 
          158.8     8.96056e-11 
            162     2.35477e-10 
            166     7.49494e-10 
          170.3      2.44298e-9 
          173.4      5.57748e-9 
          176.8      1.32947e-8 
          180.2      3.07223e-8 
          181.7      4.39981e-8 
          186.1      1.22711e-7 
            191      3.65628e-7 
          193.9      6.81129e-7 
          198.4      1.72704e-6 
          201.8      3.39853e-6 
            205      6.30449e-6 
          210.5      1.75219e-5 
          216.2      4.79946e-5 
          219.8      8.84587e-5 
            223      0.00014999 
          226.8     0.000276082 
            230      0.00782728 
            234       0.0172052 
            240       0.0386612 
          246.5        0.088853 
          252.4        0.184729 
          256.8        0.300104 
            260        0.460145 
            264        0.700638 
          268.5          1.1452 
          273.5          1.9126 
          278.5         3.15567 
            284         5.76472 
            290          9.9177 
            296         16.8113 
            301         25.5799 
            308         47.6035 
            318         106.823 
            328         213.031 
            338         436.304 
            348         827.222 
            357         3250.63 
            366         6258.57 
            375         9400.76 
            385         15455.2 
            395         27388.2 
            405         40887.3 
            414         60319.9 
            422         80408.6 
            430          110798 
            441          162517 
            451          224444 
            460          291324 
            470          399207 
            480          530217 
            490          708286 
            500          922776 
            506      3.86549e+6 
            512      2.86559e+7 
            520      3.20025e+7 
            530      3.82094e+7 
            540      3.92982e+7 
            550      5.55119e+7 
            560      6.39083e+7 
            570      7.52705e+7 
            580       7.2554e+7 
            590      9.32332e+7 
            600      1.00556e+8 
            610      1.15985e+8 
            620      1.23192e+8 
            630      1.28528e+8 
            640      1.18335e+8 
            650      1.06608e+8 
            658      1.37618e+8 
            665      1.62295e+8 
            675      1.74406e+8 
            685      1.79314e+8 
            695      2.31454e+8 
            705      2.35175e+8 
            716      2.65445e+8 
            726      2.73593e+8 
            735      2.86802e+8 
            745      3.21794e+8 
            755      3.41051e+8 
            765      3.64862e+8 
            775      3.88267e+8 
            785      4.13352e+8 
            795      4.23095e+8 
            805      4.39832e+8 
            815      4.53777e+8 
            825      4.89204e+8 
            835      4.36022e+8 
            845      5.04758e+8 
            855      5.17663e+8 
            865      5.48661e+8 
            875      5.76639e+8 
            885      6.19188e+8 
            895      6.45029e+8 
            905      6.36143e+8 
            915      7.52356e+8 
            925      3.00041e+9 
            935      7.13749e+9 
            945     1.78728e+10 
            955     2.69441e+10 
            965     3.56265e+10 
            975      6.00429e+9 
            985     3.49963e+10 
            995     3.17598e+10 
           1005      3.7437e+10 
           1015     3.60023e+10 
           1025     1.19822e+10 
           1035     2.75742e+10 
           1045     4.62483e+10 
           1055     4.28034e+10 
           1065     3.10458e+10 
           1075      3.7646e+10 
           1085     3.44592e+10 
           1095     3.89289e+10 
           1105     3.33157e+10 
           1115     3.04844e+10 
           1125     2.34005e+10 
           1135     3.38646e+10 
           1145     2.83188e+10 
           1155     3.03863e+10 
           1165     3.06247e+10 
           1175     1.83155e+10 
           1185     2.91221e+10 
           1195     2.47273e+10 
           1205     1.40213e+10 
           1215       9.4117e+9 
           1225     2.01426e+10 
           1235     2.69575e+10 
           1245     2.67717e+10 
           1255     2.61195e+10 
           1265     2.64733e+10 
           1275     2.71581e+10 
           1285     2.69743e+10 
           1295     1.63584e+10 
           1305     1.72722e+10 
           1315     2.57881e+10 
           1325     2.36343e+10 
           1335     2.30321e+10 
           1345     2.26264e+10 
           1355     2.29071e+10 
           1365     2.00041e+10 
           1375     1.93714e+10 
           1385     1.88714e+10 
           1395     1.23429e+10 
           1405     1.40499e+10 
           1415      1.6759e+10 
           1425     1.66537e+10 
           1435     1.71738e+10 
           1442     1.79405e+10 
           1447     1.76203e+10 
           1455     1.69952e+10 
           1465     1.55689e+10 
           1475     1.57705e+10 
           1485     1.53092e+10 
           1495     1.51002e+10 
           1505     1.31927e+10 
           1512     1.21034e+10 
           1517     1.25178e+10 
           1525     1.29926e+10 
           1535     1.09631e+10 
           1545     1.06654e+10 
           1555     1.03333e+10 
           1565     1.10927e+10 
           1575     1.17871e+10 
           1585     1.16767e+10 
           1595     1.17032e+10 
           1605     1.18746e+10 
           1615      1.1558e+10 
           1625     1.13175e+10 
           1635     1.19471e+10 
           1645     1.19226e+10 
           1655     1.16444e+10 
           1665     1.19031e+10 
           1672     1.13603e+10 
           1677      1.2292e+10 
           1685     1.19559e+10 
           1695     1.12794e+10 
           1705     1.08183e+10 
           1715     1.02652e+10 
           1725      9.96838e+9 
           1735     1.04191e+10 
           1745     1.02076e+10 
           1755     1.02134e+10 
           1765        9.958e+9 
           1775      9.35024e+9 
           1785      9.43909e+9 
           1795       9.8399e+9 
           1805      9.87537e+9 
           1815      8.82349e+9 
           1825      9.18651e+9 
           1835      8.77619e+9 
           1845       7.9677e+9 
           1855      8.04833e+9 
           1865      8.13284e+9 
           1875      8.48332e+9 
           1885      7.56147e+9 
           1895      7.05154e+9 
           1905       7.6316e+9 
           1915       7.1417e+9 
           1925      6.77622e+9 
           1935      7.17956e+9 
           1945       7.3045e+9 
           1955      6.60337e+9 
           1967      7.17035e+9 
           1976      7.51862e+9 
           1984      6.87678e+9 
           1995      6.78856e+9 
           2005      7.00188e+9 
           2015      6.84895e+9 
           2025      7.07445e+9 
           2035      6.46928e+9 
           2045      6.58029e+9 
           2055      6.31319e+9 
           2065      6.35415e+9 
           2074      6.50397e+9 
           2078      6.00513e+9 
           2085       6.2889e+9 
           2095      5.92163e+9 
           2105      6.15398e+9 
           2115      6.16591e+9 
           2125      6.21463e+9 
           2135      6.06498e+9 
           2145        5.777e+9 
           2155      6.00492e+9 
           2165      5.95432e+9 
           2175      5.85359e+9 
           2185      5.67671e+9 
           2195      5.72637e+9 
           2205      5.68694e+9 
           2215      5.58649e+9 
           2225      5.41493e+9 
           2235      5.35708e+9 
           2245       5.3896e+9 
           2255      5.19521e+9 
           2265      5.26965e+9 
           2275      5.18077e+9 
           2285      5.15233e+9 
           2295      4.74554e+9 
           2305       4.9644e+9 
           2315      4.82452e+9 
           2325      4.77049e+9 
           2335      4.60279e+9 
           2345      4.63048e+9 
           2355      4.60564e+9 
           2365      4.54603e+9 
           2375      4.45807e+9 
           2385      4.42799e+9 
           2395      4.38767e+9 
           2405      4.28873e+9 
           2415      4.24728e+9 
           2425      4.24736e+9 
           2435      4.10771e+9 
           2445       4.1108e+9 
           2455      4.10206e+9 
           2465      4.03481e+9 
           2475      3.97288e+9 
           2485       3.9007e+9 
           2495      3.41524e+9 
           2505      3.77676e+9 
           2513      3.61758e+9 
           2518      3.73799e+9 
           2525      3.69519e+9 
           2535      3.65607e+9 
           2545      3.49397e+9 
           2555      3.56316e+9 
           2565      3.49999e+9 
           2575      3.52507e+9 
           2585      3.48928e+9 
           2595      3.45584e+9 
           2605      3.41881e+9 
           2615      3.37492e+9 
           2625      3.34668e+9 
           2635      3.31319e+9 
           2645      3.27984e+9 
           2655      3.25571e+9 
           2665      3.12259e+9 
           2675      3.14419e+9 
           2685      3.13163e+9 
           2695      3.01844e+9 
           2705      2.97269e+9 
           2715      2.96775e+9 
           2725      2.94164e+9 
           2735      2.93054e+9 
           2745      2.84269e+9 
           2755      2.83807e+9 
           2765      2.80368e+9 
           2775      2.83214e+9 
           2785      2.78075e+9 
           2795      2.65311e+9 
           2805      2.69494e+9 
           2815      2.70754e+9 
           2825      2.65611e+9 
           2835      2.55449e+9 
           2845      2.59926e+9 
           2855        2.557e+9 
           2865      2.55277e+9 
           2875      2.52041e+9 
           2885      2.49152e+9 
           2895      2.45653e+9 
           2910      2.39777e+9 
           2930      2.36695e+9 
           2950       2.2944e+9 
           2970      2.26728e+9 
           2990      2.20768e+9 
           3010      2.13245e+9 
           3030      2.11875e+9 
           3050        2.083e+9 
           3070      2.05263e+9 
           3090      1.96554e+9 
           3110      1.95791e+9 
           3130      1.90828e+9 
           3150      1.87835e+9 
           3170      1.82916e+9 
           3190      1.78438e+9 
           3210      1.76747e+9 
           3230      1.72417e+9 
           3250      1.69845e+9 
           3270      1.66128e+9 
           3290      1.62729e+9 
           3310      1.59847e+9 
           3330      1.56367e+9 
           3350      1.53512e+9 
           3370      1.50295e+9 
           3390      1.48038e+9 
           3410      1.45238e+9 
           3430      1.42047e+9 
           3450      1.38781e+9 
           3470      1.36269e+9 
           3490      1.33521e+9 
           3510      1.31356e+9 
           3530      1.29364e+9 
           3550      1.26942e+9 
           3570      1.25384e+9 
           3590      1.21249e+9 
           3610      1.19716e+9 
           3630      1.17531e+9 
           3640      1.17694e+9 
           3650      1.15902e+9 
           3670      1.14622e+9 
           3690      1.12755e+9 
           3710      1.08472e+9 
           3730      1.04934e+9 
           3750      1.03855e+9 
           3770      1.00623e+9 
           3790      1.04528e+9 
           3810      1.08591e+9 
           3830      9.46157e+8 
           3850      1.10888e+9 
           3870      1.12275e+9 
           3890      8.85204e+8 
           3910      1.12594e+9 
           3930      1.10034e+9 
           3950       1.0802e+9 
           3970      8.22973e+8 
           3990      1.03588e+9 
           4010      1.05132e+9 
           4030      9.75151e+8 
           4050      1.02044e+9 
           4070      9.62127e+8 
           4090      8.74391e+8 
           4110      7.70292e+8 
           4130      9.17898e+8 
           4150      9.19375e+8 
           4170      9.21193e+8 
           4190      9.10489e+8 
           4210      9.05217e+8 
           4230      8.83328e+8 
           4250      8.53677e+8 
           4270      8.26648e+8 
           4290      8.18692e+8 
           4310      7.89392e+8 
           4330      7.04495e+8 
           4350      6.42287e+8 
           4370      7.49103e+8 
           4390      7.39771e+8 
           4410      7.45707e+8 
           4430      7.41465e+8 
           4450      7.28632e+8 
           4470       6.8042e+8 
           4490      7.02309e+8 
           4510      7.03669e+8 
           4530      6.90806e+8 
           4550       6.8107e+8 
           4570      6.69097e+8 
           4590      6.57557e+8 
           4610       6.4121e+8 
           4630      6.31939e+8 
           4650      6.12733e+8 
           4670       6.1387e+8 
           4690      6.09451e+8 
           4710      5.79407e+8 
           4730      5.87332e+8 
           4750      5.77872e+8 
           4770       5.7845e+8 
           4790      5.66881e+8 
           4810      5.51381e+8 
           4830      5.36941e+8 
           4850      4.86781e+8 
           4870      4.32692e+8 
           4890      5.14346e+8 
           4910      5.13258e+8 
           4930      4.91556e+8 
           4950      4.99139e+8 
           4970      4.97509e+8 
           4990       4.8899e+8 
           5010      4.65732e+8 
           5030      4.73173e+8 
           5050      4.59535e+8 
           5070      4.61984e+8 
           5090      4.53344e+8 
           5110      4.45864e+8 
           5130      4.36196e+8 
           5150      4.31053e+8 
           5170      4.28429e+8 
           5190       4.2291e+8 
           5210      4.13854e+8 
           5230      4.11576e+8 
           5250      4.06068e+8 
           5270      3.99207e+8 
           5290      3.95104e+8 
           5310      3.89261e+8 
           5330      3.83374e+8 
           5350      3.76947e+8 
           5370      3.73948e+8 
           5390      3.68455e+8 
           5410      3.63586e+8 
           5430      3.57795e+8 
           5450      3.52802e+8 
           5470      3.47872e+8 
           5490       3.4428e+8 
           5510      3.40234e+8 
           5530      3.34994e+8 
           5550      3.31336e+8 
           5570      3.26666e+8 
           5590      3.22946e+8 
           5610      3.18002e+8 
           5630      3.14653e+8 
           5650      3.07674e+8 
           5670      3.02718e+8 
           5690      2.99058e+8 
           5710       2.9707e+8 
           5730      2.94174e+8 
           5750      2.89317e+8 
           5770      2.87247e+8 
           5790      2.83434e+8 
           5810      2.79678e+8 
           5830      2.75701e+8 
           5850      2.72597e+8 
           5870      2.58978e+8 
           5890      2.62522e+8 
           5910      2.61481e+8 
           5930      2.58285e+8 
           5950      2.54391e+8 
           5970      2.53208e+8 
           5990      2.48842e+8 
           6010      2.46876e+8 
           6030      2.43407e+8 
           6050      2.40689e+8 
           6070      2.38022e+8 
           6090      2.35029e+8 
           6110      2.32312e+8 
           6130      2.29716e+8 
           6150      2.25096e+8 
           6170      2.23442e+8 
           6190       2.2141e+8 
           6210      2.18902e+8 
           6230      2.16392e+8 
           6250      2.13023e+8 
           6270      2.10909e+8 
           6290      2.08637e+8 
           6310      2.05831e+8 
           6330      2.03883e+8 
           6350       2.0019e+8 
           6370      1.98657e+8 
           6390      1.96631e+8 
           6410      1.94324e+8 
           6430      1.92488e+8 
           6450      1.90056e+8 
           6470      1.86993e+8 
           6490       1.8518e+8 
           6510      1.82888e+8 
           6530      1.79305e+8 
           6550      1.68711e+8 
           6570       1.4762e+8 
           6590      1.70772e+8 
           6610      1.72413e+8 
           6630      1.71271e+8 
           6650      1.69416e+8 
           6670      1.65447e+8 
           6690      1.63828e+8 
           6710      1.64166e+8 
           6730      1.61944e+8 
           6750       1.6073e+8 
           6770      1.58976e+8 
           6790      1.55736e+8 
           6810      1.55197e+8 
           6830      1.53352e+8 
           6850      1.52089e+8 
           6870      1.50414e+8 
           6890      1.48606e+8 
           6910        1.468e+8 
           6930      1.45546e+8 
           6950      1.44132e+8 
           6970      1.42609e+8 
           6990      1.41046e+8 
           7010      1.39475e+8 
           7030      1.38012e+8 
           7050      1.36556e+8 
           7070      1.32521e+8 
           7090      1.33633e+8 
           7110      1.31727e+8 
           7130      1.30396e+8 
           7150      1.29351e+8 
           7170      1.28212e+8 
           7190      1.26968e+8 
           7210      1.25656e+8 
           7230      1.22317e+8 
           7250      1.22761e+8 
           7270      1.21801e+8 
           7290       1.1944e+8 
           7310      1.19302e+8 
           7330       1.1807e+8 
           7350      1.16912e+8 
           7370      1.15744e+8 
           7390      1.14573e+8 
           7410      1.13421e+8 
           7430      1.12094e+8 
           7450      1.11093e+8 
           7470       1.0927e+8 
           7490      1.08788e+8 
           7510      1.07782e+8 
           7530      1.06619e+8 
           7550      1.05718e+8 
           7570      1.04693e+8 
           7590      1.03625e+8 
           7610      1.02444e+8 
           7630      1.01603e+8 
           7650      1.00616e+8 
           7670      9.96562e+7 
           7690      9.86798e+7 
           7710      9.77122e+7 
           7730      9.67029e+7 
           7750      9.58469e+7 
           7770      9.40624e+7 
           7790      9.40146e+7 
           7810      9.30643e+7 
           7830      9.22269e+7 
           7850      9.11401e+7 
           7870      9.02091e+7 
           7890      8.90504e+7 
           7910      8.87211e+7 
           7930      8.79027e+7 
           7950      8.67636e+7 
           7970      8.61389e+7 
           7990      8.50059e+7 
           8010      8.45291e+7 
           8030       8.3723e+7 
           8050      8.29238e+7 
           8070      8.21778e+7 
           8090      8.13633e+7 
           8110      8.01319e+7 
           8130      7.99262e+7 
           8150      7.91998e+7 
           8170      7.85473e+7 
           8190      7.74003e+7 
           8210      7.67386e+7 
           8230      7.58544e+7 
           8250      7.56697e+7 
           8270       7.4197e+7 
           8290       7.4245e+7 
           8310      7.36481e+7 
           8330      7.30125e+7 
           8350       7.2004e+7 
           8370      7.14936e+7 
           8390      7.10675e+7 
           8410      7.03996e+7 
           8430      6.97691e+7 
           8450      6.83471e+7 
           8470      6.85656e+7 
           8490      6.77255e+7 
           8510      6.72567e+7 
           8530      6.65637e+7 
           8550      6.58352e+7 
           8570      6.56873e+7 
