# Kurucz ODFNEW /NOVER (2003)
# teff = 21000 K (value for the effective temperature for the model. Temperatures are given in K)
# logg = 5 log(cm/s2) (value for Log(G) for the model.)
# meta = 0  (value for the Metallicity for the model.)
# lh = 1.25  (l/Hp where l is the  mixing length of the convective element and Hp is the pressure scale height)
# vtur = 2 km/s (Microturbulence velocity)
# alpha = 0.4  (Alpha)
#
# column 1: WAVELENGTH (ANGSTROM), Wavelength in Angstrom
# column 2: FLUX (ERG/CM2/S/A), Flux in erg/cm2/s/A
          147.2     8.49125e-18 
            151     4.53014e-17 
          155.2     2.62132e-16 
          158.8     1.09518e-15 
            162     3.70456e-15 
            166     1.59176e-14 
          170.3     7.05213e-14 
          173.4     1.97915e-13 
          176.8     5.86796e-13 
          180.2     1.67041e-12 
          181.7     2.61583e-12 
          186.1     9.37581e-12 
            191     3.63026e-11 
          193.9     7.81641e-11 
          198.4     2.46093e-10 
          201.8     5.67066e-10 
            205      1.21486e-9 
          210.5      4.25504e-9 
          216.2      1.46082e-8 
          219.8      3.08303e-8 
            223       5.8634e-8 
          226.8      1.23034e-7 
            230      6.34686e-7 
            234      1.53943e-6 
            240      4.42363e-6 
          246.5      1.29575e-5 
          252.4      3.28925e-5 
          256.8      6.28337e-5 
            260     0.000102363 
            264     0.000180949 
          268.5     0.000335911 
          273.5     0.000650493 
          278.5       0.0012373 
            284      0.00245965 
            290      0.00499334 
            296      0.00982671 
            301       0.0169518 
            308       0.0351019 
            318        0.095829 
            328          0.2388 
            338        0.577869 
            348         1.31023 
            357         2.77298 
            366         5.43512 
            375         10.0416 
            385         19.4214 
            395         36.0709 
            405         64.9438 
            414         108.131 
            422         164.659 
            430         248.205 
            441         427.266 
            451         684.629 
            460         1019.02 
            470         1563.28 
            480         2346.06 
            490         3467.76 
            500            5042 
            506         43996.1 
            512          202661 
            520          254836 
            530          351677 
            540          405708 
            550          586614 
            560          714849 
            570          916395 
            580          972699 
            590      1.32564e+6 
            600      1.62088e+6 
            610      2.00555e+6 
            620       2.3183e+6 
            630      2.72415e+6 
            640      2.97484e+6 
            650      3.13769e+6 
            658       3.9968e+6 
            665      4.44698e+6 
            675       5.0047e+6 
            685      5.64109e+6 
            695      6.77969e+6 
            705       7.5123e+6 
            716      8.65369e+6 
            726      9.55768e+6 
            735      1.05385e+7 
            745      1.20093e+7 
            755       1.3409e+7 
            765      1.48773e+7 
            775      1.65513e+7 
            785      1.82855e+7 
            795      1.97042e+7 
            805      2.15105e+7 
            815      2.32898e+7 
            825      2.56788e+7 
            835      2.65619e+7 
            845      2.93464e+7 
            855      3.16746e+7 
            865       3.4405e+7 
            875       3.7252e+7 
            885       4.0689e+7 
            895      4.35995e+7 
            905      4.48819e+7 
            915      6.27264e+7 
            925      2.15759e+8 
            935      5.17891e+8 
            945      1.91059e+9 
            955      4.70775e+9 
            965      6.94212e+9 
            975      1.27659e+9 
            985     1.06644e+10 
            995      1.0216e+10 
           1005     1.22497e+10 
           1015      9.44946e+9 
           1025      1.30898e+9 
           1035       6.1516e+9 
           1045     1.47987e+10 
           1055     1.45716e+10 
           1065     1.11515e+10 
           1075     1.38379e+10 
           1085     1.25094e+10 
           1095     1.40565e+10 
           1105      1.1687e+10 
           1115      1.0618e+10 
           1125     1.00387e+10 
           1135     1.28849e+10 
           1145     1.04442e+10 
           1155     1.16688e+10 
           1165       1.208e+10 
           1175      8.84831e+9 
           1185     1.18608e+10 
           1195      7.43632e+9 
           1205      3.73635e+9 
           1215      1.31414e+9 
           1225      4.33284e+9 
           1235      9.78734e+9 
           1245     1.07157e+10 
           1255     1.04289e+10 
           1265      9.58594e+9 
           1275     1.03717e+10 
           1285     1.08062e+10 
           1295      6.42205e+9 
           1305      5.61878e+9 
           1315      9.98693e+9 
           1325      9.42368e+9 
           1335      8.63641e+9 
           1345      9.22006e+9 
           1355      9.08755e+9 
           1365      8.03714e+9 
           1375      8.08844e+9 
           1385      8.24092e+9 
           1395      6.75278e+9 
           1405      7.16597e+9 
           1415       7.3787e+9 
           1425      7.56344e+9 
           1435      7.50413e+9 
           1442      7.93149e+9 
           1447      7.80588e+9 
           1455      7.60016e+9 
           1465      7.12411e+9 
           1475      6.96844e+9 
           1485       6.6998e+9 
           1495      6.80128e+9 
           1505      6.11592e+9 
           1512      5.68667e+9 
           1517      5.98828e+9 
           1525      6.07578e+9 
           1535      5.43168e+9 
           1545      5.58617e+9 
           1555      5.26886e+9 
           1565      5.34356e+9 
           1575      5.66592e+9 
           1585       5.6092e+9 
           1595      5.67695e+9 
           1605      5.57001e+9 
           1615      5.53071e+9 
           1625      5.33773e+9 
           1635      5.52448e+9 
           1645        5.477e+9 
           1655      5.15835e+9 
           1665      5.47368e+9 
           1672      5.26273e+9 
           1677      5.39081e+9 
           1685      5.41219e+9 
           1695      5.15091e+9 
           1705      4.88383e+9 
           1715      4.61698e+9 
           1725      4.55411e+9 
           1735      4.72153e+9 
           1745      4.57194e+9 
           1755      4.66248e+9 
           1765      4.35717e+9 
           1775      4.35114e+9 
           1785      4.33149e+9 
           1795      4.50669e+9 
           1805      4.47227e+9 
           1815      4.11229e+9 
           1825      4.24561e+9 
           1835      4.04283e+9 
           1845      3.73805e+9 
           1855       3.6637e+9 
           1865      3.69708e+9 
           1875      3.92254e+9 
           1885      3.57515e+9 
           1895      3.36568e+9 
           1905      3.59141e+9 
           1915      3.40001e+9 
           1925      3.29829e+9 
           1935      3.40565e+9 
           1945      3.42878e+9 
           1955      3.19705e+9 
           1967      3.41785e+9 
           1976      3.53942e+9 
           1984      3.28267e+9 
           1995      3.20616e+9 
           2005      3.27799e+9 
           2015      3.13058e+9 
           2025      3.32905e+9 
           2035        3.092e+9 
           2045      3.11228e+9 
           2055      2.98161e+9 
           2065      3.04672e+9 
           2074      3.09705e+9 
           2078      2.94075e+9 
           2085      3.02139e+9 
           2095      2.86198e+9 
           2105      2.92183e+9 
           2115      2.90369e+9 
           2125      2.94442e+9 
           2135      2.84665e+9 
           2145      2.76712e+9 
           2155       2.8373e+9 
           2165      2.78374e+9 
           2175      2.74371e+9 
           2185      2.68133e+9 
           2195      2.70121e+9 
           2205      2.64275e+9 
           2215       2.5923e+9 
           2225      2.50216e+9 
           2235      2.53842e+9 
           2245      2.51451e+9 
           2255      2.42743e+9 
           2265      2.46655e+9 
           2275      2.44448e+9 
           2285       2.4429e+9 
           2295      2.34226e+9 
           2305      2.33219e+9 
           2315      2.27413e+9 
           2325      2.24764e+9 
           2335      2.15311e+9 
           2345      2.12561e+9 
           2355      2.13443e+9 
           2365      2.07533e+9 
           2375      2.08107e+9 
           2385      2.03173e+9 
           2395      2.06635e+9 
           2405       1.9969e+9 
           2415       1.9939e+9 
           2425      2.00414e+9 
           2435      1.93218e+9 
           2445      1.94748e+9 
           2455      1.93621e+9 
           2465      1.89871e+9 
           2475      1.86956e+9 
           2485      1.88394e+9 
           2495      1.80745e+9 
           2505      1.84354e+9 
           2513      1.76691e+9 
           2518      1.81326e+9 
           2525      1.75967e+9 
           2535      1.73872e+9 
           2545      1.68815e+9 
           2555      1.72621e+9 
           2565      1.70155e+9 
           2575      1.72046e+9 
           2585      1.71422e+9 
           2595      1.69908e+9 
           2605      1.67268e+9 
           2615      1.65903e+9 
           2625      1.64182e+9 
           2635      1.63031e+9 
           2645      1.64331e+9 
           2655      1.62722e+9 
           2665      1.57164e+9 
           2675      1.58418e+9 
           2685      1.57183e+9 
           2695      1.53451e+9 
           2705      1.53049e+9 
           2715      1.50682e+9 
           2725       1.4796e+9 
           2735      1.49186e+9 
           2745      1.42987e+9 
           2755      1.42601e+9 
           2765       1.4202e+9 
           2775      1.43488e+9 
           2785      1.41498e+9 
           2795      1.33678e+9 
           2805       1.3716e+9 
           2815      1.38165e+9 
           2825      1.35357e+9 
           2835      1.30715e+9 
           2845      1.31473e+9 
           2855      1.31192e+9 
           2865      1.31475e+9 
           2875      1.29432e+9 
           2885      1.28437e+9 
           2895       1.2734e+9 
           2910      1.25399e+9 
           2930      1.22455e+9 
           2950      1.19359e+9 
           2970      1.18329e+9 
           2990      1.15466e+9 
           3010       1.1372e+9 
           3030      1.12146e+9 
           3050      1.09809e+9 
           3070      1.07764e+9 
           3090      1.05249e+9 
           3110      1.03416e+9 
           3130      1.01861e+9 
           3150      9.98879e+8 
           3170      9.78966e+8 
           3190      9.49293e+8 
           3210      9.42253e+8 
           3230      9.26287e+8 
           3250      9.10927e+8 
           3270      8.95626e+8 
           3290      8.78749e+8 
           3310      8.64895e+8 
           3330      8.48694e+8 
           3350      8.31809e+8 
           3370      8.18615e+8 
           3390      8.04919e+8 
           3410      7.91391e+8 
           3430      7.74984e+8 
           3450      7.59283e+8 
           3470      7.47708e+8 
           3490      7.34987e+8 
           3510      7.23364e+8 
           3530      7.12106e+8 
           3550      7.00428e+8 
           3570      6.92484e+8 
           3590      6.74881e+8 
           3610       6.6592e+8 
           3630      6.54114e+8 
           3640      6.53596e+8 
           3650      6.47078e+8 
           3670      6.39429e+8 
           3690      6.29473e+8 
           3710      6.08609e+8 
           3730      5.82848e+8 
           3750      5.86265e+8 
           3770       5.7688e+8 
           3790      6.17702e+8 
           3810      6.54419e+8 
           3830      5.59486e+8 
           3850      6.84251e+8 
           3870      7.14274e+8 
           3890      5.20551e+8 
           3910      7.13238e+8 
           3930      7.09607e+8 
           3950      6.92226e+8 
           3970      4.86852e+8 
           3990      6.56409e+8 
           4010      6.77757e+8 
           4030      6.23541e+8 
           4050       6.6811e+8 
           4070      6.40705e+8 
           4090       5.5606e+8 
           4110      4.72872e+8 
           4130      5.95919e+8 
           4150      6.02505e+8 
           4170      6.02567e+8 
           4190        5.973e+8 
           4210      5.91235e+8 
           4230      5.80204e+8 
           4250      5.67769e+8 
           4270       5.4928e+8 
           4290      5.46382e+8 
           4310      5.28424e+8 
           4330      4.46496e+8 
           4350      4.02462e+8 
           4370      4.98646e+8 
           4390      4.83518e+8 
           4410       4.9739e+8 
           4430      4.88973e+8 
           4450      4.85044e+8 
           4470      4.45041e+8 
           4490      4.64257e+8 
           4510      4.65427e+8 
           4530      4.56149e+8 
           4550       4.4971e+8 
           4570      4.43311e+8 
           4590      4.36613e+8 
           4610      4.29252e+8 
           4630      4.21668e+8 
           4650      4.14006e+8 
           4670      4.10139e+8 
           4690      4.05758e+8 
           4710      3.88513e+8 
           4730      3.90354e+8 
           4750      3.84352e+8 
           4770      3.82543e+8 
           4790      3.75266e+8 
           4810      3.65948e+8 
           4830      3.55011e+8 
           4850        3.096e+8 
           4870      2.72211e+8 
           4890      3.37719e+8 
           4910      3.40083e+8 
           4930       3.2541e+8 
           4950      3.34086e+8 
           4970      3.31052e+8 
           4990      3.25862e+8 
           5010      3.12519e+8 
           5030      3.15533e+8 
           5050      3.05313e+8 
           5070      3.08214e+8 
           5090      3.03514e+8 
           5110      2.98589e+8 
           5130      2.93889e+8 
           5150      2.89694e+8 
           5170      2.87259e+8 
           5190      2.83091e+8 
           5210      2.76245e+8 
           5230      2.75872e+8 
           5250      2.72257e+8 
           5270      2.68064e+8 
           5290      2.65328e+8 
           5310      2.61609e+8 
           5330      2.57409e+8 
           5350      2.53342e+8 
           5370      2.51485e+8 
           5390      2.48157e+8 
           5410      2.44433e+8 
           5430       2.4054e+8 
           5450      2.37763e+8 
           5470      2.34227e+8 
           5490      2.32387e+8 
           5510      2.29151e+8 
           5530      2.26142e+8 
           5550      2.23488e+8 
           5570      2.20416e+8 
           5590      2.17926e+8 
           5610      2.14723e+8 
           5630      2.12689e+8 
           5650      2.07775e+8 
           5670      2.05421e+8 
           5690       2.0384e+8 
           5710      2.01941e+8 
           5730      1.99627e+8 
           5750      1.96976e+8 
           5770      1.94821e+8 
           5790      1.92398e+8 
           5810      1.89826e+8 
           5830       1.8754e+8 
           5850      1.85302e+8 
           5870      1.75721e+8 
           5890      1.79253e+8 
           5910      1.78484e+8 
           5930      1.76532e+8 
           5950      1.73624e+8 
           5970      1.72357e+8 
           5990      1.69853e+8 
           6010      1.68412e+8 
           6030      1.66343e+8 
           6050      1.64412e+8 
           6070      1.62461e+8 
           6090        1.604e+8 
           6110      1.58726e+8 
           6130        1.569e+8 
           6150      1.54098e+8 
           6170      1.53101e+8 
           6190      1.51504e+8 
           6210      1.49728e+8 
           6230      1.47992e+8 
           6250      1.45821e+8 
           6270      1.44509e+8 
           6290      1.42868e+8 
           6310      1.41027e+8 
           6330      1.39714e+8 
           6350      1.37042e+8 
           6370      1.35978e+8 
           6390      1.34907e+8 
           6410      1.33315e+8 
           6430      1.32149e+8 
           6450      1.30498e+8 
           6470      1.28928e+8 
           6490      1.27356e+8 
           6510      1.25472e+8 
           6530       1.2285e+8 
           6550      1.13276e+8 
           6570      9.89282e+7 
           6590      1.16606e+8 
           6610      1.18532e+8 
           6630      1.17886e+8 
           6650      1.16795e+8 
           6670      1.14038e+8 
           6690      1.13003e+8 
           6710      1.13268e+8 
           6730      1.12072e+8 
           6750      1.10954e+8 
           6770      1.09806e+8 
           6790      1.08237e+8 
           6810      1.07407e+8 
           6830      1.06181e+8 
           6850      1.05217e+8 
           6870      1.04118e+8 
           6890      1.03023e+8 
           6910      1.01938e+8 
           6930      1.00739e+8 
           6950      9.98554e+7 
           6970      9.88334e+7 
           6990      9.77752e+7 
           7010      9.67198e+7 
           7030      9.57433e+7 
           7050      9.47158e+7 
           7070      9.21909e+7 
           7090      9.29081e+7 
           7110      9.19018e+7 
           7130      9.09793e+7 
           7150      9.00142e+7 
           7170      8.91683e+7 
           7190      8.83013e+7 
           7210       8.7428e+7 
           7230      8.56765e+7 
           7250      8.55772e+7 
           7270       8.4829e+7 
           7290      8.33079e+7 
           7310      8.31488e+7 
           7330      8.23311e+7 
           7350      8.15349e+7 
           7370      8.07323e+7 
           7390      7.99372e+7 
           7410      7.91633e+7 
           7430      7.82395e+7 
           7450      7.75824e+7 
           7470      7.67219e+7 
           7490      7.60374e+7 
           7510      7.53524e+7 
           7530      7.46338e+7 
           7550      7.39415e+7 
           7570      7.32489e+7 
           7590      7.25168e+7 
           7610      7.18499e+7 
           7630      7.11695e+7 
           7650      7.04953e+7 
           7670      6.98272e+7 
           7690       6.9165e+7 
           7710      6.85215e+7 
           7730      6.78584e+7 
           7750      6.72327e+7 
           7770      6.59572e+7 
           7790      6.59853e+7 
           7810      6.53513e+7 
           7830      6.47721e+7 
           7850       6.3935e+7 
           7870      6.34037e+7 
           7890       6.2653e+7 
           7910      6.24148e+7 
           7930      6.18787e+7 
           7950      6.10373e+7 
           7970      6.07017e+7 
           7990      5.98317e+7 
           8010      5.96389e+7 
           8030      5.90793e+7 
           8050      5.84955e+7 
           8070      5.80034e+7 
           8090      5.74171e+7 
           8110      5.69108e+7 
           8130      5.64214e+7 
           8150      5.59101e+7 
           8170      5.54606e+7 
           8190      5.48637e+7 
           8210      5.42642e+7 
           8230      5.37015e+7 
           8250      5.35118e+7 
           8270      5.28523e+7 
           8290      5.25751e+7 
           8310      5.21112e+7 
           8330      5.16788e+7 
           8350      5.10506e+7 
           8370      5.06865e+7 
           8390      5.03707e+7 
           8410      4.99344e+7 
           8430      4.94597e+7 
           8450      4.85183e+7 
           8470      4.86166e+7 
           8490       4.8057e+7 
           8510      4.76805e+7 
           8530      4.72563e+7 
           8550      4.65706e+7 
           8570      4.66808e+7 
           8590      4.53006e+7 
