# Kurucz ODFNEW /NOVER (2003)
# teff = 28000 K (value for the effective temperature for the model. Temperatures are given in K)
# logg = 3.5 log(cm/s2) (value for Log(G) for the model.)
# meta = -4  (value for the Metallicity for the model.)
# lh = 1.25  (l/Hp where l is the  mixing length of the convective element and Hp is the pressure scale height)
# vtur = 2 km/s (Microturbulence velocity)
# alpha = 0.4  (Alpha)
#
# column 1: WAVELENGTH (ANGSTROM), Wavelength in Angstrom
# column 2: FLUX (ERG/CM2/S/A), Flux in erg/cm2/s/A
          147.2      1.09553e-8 
            151      4.03364e-8 
          155.2      1.57592e-7 
          158.8      4.77204e-7 
            162      1.22328e-6 
            166      3.76032e-6 
          170.3      1.18192e-5 
          173.4      2.60023e-5 
          176.8      5.96992e-5 
          180.2     0.000132595 
          181.7     0.000186659 
          186.1     0.000492118 
            191      0.00137005 
          193.9      0.00244702 
          198.4      0.00580782 
          201.8       0.0108588 
            205       0.0191776 
          210.5       0.0488207 
          216.2        0.121854 
          219.8        0.211524 
            223        0.339844 
          226.8         0.58573 
            230         3.73774 
            234         9.85375 
            240         19.7044 
          246.5         41.1157 
          252.4         76.8234 
          256.8         98.2294 
            260         159.012 
            264         229.159 
          268.5         341.779 
          273.5          522.47 
          278.5         787.291 
            284         1215.02 
            290         1906.22 
            296         2914.78 
            301         3866.88 
            308         5769.84 
            318         12418.3 
            328         22344.8 
            338         38720.3 
            348         64813.4 
            357          100176 
            366          151599 
            375          223763 
            385          337754 
            395          497227 
            405          716641 
            414          979497 
            422      1.27564e+6 
            430      1.64227e+6 
            441       2.2883e+6 
            451      3.04308e+6 
            460      3.88266e+6 
            470      5.02948e+6 
            480      6.42974e+6 
            490      8.12612e+6 
            500      1.01545e+7 
            506      9.92704e+7 
            512      2.72806e+8 
            520        2.799e+8 
            530      3.13454e+8 
            540      3.01164e+8 
            550      3.43241e+8 
            560      3.58614e+8 
            570      3.77564e+8 
            580        3.631e+8 
            590      4.11123e+8 
            600      4.36054e+8 
            610       4.6141e+8 
            620      4.84926e+8 
            630      5.11598e+8 
            640      5.36076e+8 
            650      5.66432e+8 
            658      5.88913e+8 
            665       6.0988e+8 
            675      6.37941e+8 
            685      6.62373e+8 
            695      7.05313e+8 
            705      7.28802e+8 
            716      7.72189e+8 
            726      8.06313e+8 
            735      8.42616e+8 
            745      8.78521e+8 
            755      9.14421e+8 
            765      9.50924e+8 
            775      9.90018e+8 
            785      1.02823e+9 
            795      1.06577e+9 
            805      1.10445e+9 
            815      1.14262e+9 
            825      1.18184e+9 
            835      1.19731e+9 
            845      1.25936e+9 
            855       1.2981e+9 
            865      1.33704e+9 
            875      1.37588e+9 
            885      1.41447e+9 
            895      1.45279e+9 
            905      1.48976e+9 
            915      2.67442e+9 
            925     1.99102e+10 
            935     3.12277e+10 
            945     4.44891e+10 
            955     4.74947e+10 
            965     5.28103e+10 
            975     3.87051e+10 
            985     5.10253e+10 
            995     4.88518e+10 
           1005     4.98688e+10 
           1015     4.85948e+10 
           1025     3.52194e+10 
           1035     4.66188e+10 
           1045     4.63967e+10 
           1055     4.55382e+10 
           1065     4.42254e+10 
           1075     4.34488e+10 
           1085     4.17427e+10 
           1095     4.22469e+10 
           1105     4.11586e+10 
           1115     4.05327e+10 
           1125     3.93093e+10 
           1135     3.91812e+10 
           1145     3.84308e+10 
           1155     3.77174e+10 
           1165     3.70449e+10 
           1175     3.45643e+10 
           1185     3.56816e+10 
           1195     3.49181e+10 
           1205     3.35808e+10 
           1215      2.4044e+10 
           1225     3.27543e+10 
           1235      3.2515e+10 
           1245     3.18538e+10 
           1255     3.13769e+10 
           1265     3.08027e+10 
           1275     3.02357e+10 
           1285     2.96802e+10 
           1295     2.87766e+10 
           1305     2.84766e+10 
           1315     2.80844e+10 
           1325     2.75719e+10 
           1335     2.69131e+10 
           1345     2.65894e+10 
           1355     2.61163e+10 
           1365     2.56481e+10 
           1375     2.51947e+10 
           1385     2.47497e+10 
           1395      2.3978e+10 
           1405      2.3594e+10 
           1415      2.3463e+10 
           1425     2.30513e+10 
           1435     2.26507e+10 
           1442     2.23715e+10 
           1447     2.21722e+10 
           1455     2.18597e+10 
           1465      2.1478e+10 
           1475     2.11029e+10 
           1485     2.07377e+10 
           1495     2.03786e+10 
           1505     2.00255e+10 
           1512     1.97878e+10 
           1517      1.9615e+10 
           1525     1.93433e+10 
           1535      1.9001e+10 
           1545     1.85159e+10 
           1555     1.82162e+10 
           1565     1.80472e+10 
           1575     1.77474e+10 
           1585     1.74492e+10 
           1595      1.7157e+10 
           1605     1.68605e+10 
           1615     1.65802e+10 
           1625     1.63025e+10 
           1635     1.58937e+10 
           1645     1.51651e+10 
           1655     1.55174e+10 
           1665     1.52636e+10 
           1672     1.50903e+10 
           1677      1.4971e+10 
           1685     1.47761e+10 
           1695      1.4538e+10 
           1705     1.43019e+10 
           1715     1.40587e+10 
           1725     1.38341e+10 
           1735     1.36188e+10 
           1745     1.33988e+10 
           1755     1.31842e+10 
           1765     1.29723e+10 
           1775     1.27656e+10 
           1785     1.25639e+10 
           1795     1.23658e+10 
           1805     1.21725e+10 
           1815     1.19816e+10 
           1825     1.17952e+10 
           1835     1.16122e+10 
           1845     1.14313e+10 
           1855     1.12482e+10 
           1865      1.1078e+10 
           1875     1.09141e+10 
           1885     1.07456e+10 
           1895     1.05769e+10 
           1905     1.04236e+10 
           1915     1.02594e+10 
           1925     1.01051e+10 
           1935      9.95587e+9 
           1945      9.80914e+9 
           1955      9.65838e+9 
           1967      9.48929e+9 
           1976      9.36262e+9 
           1984      9.24937e+9 
           1995      9.09588e+9 
           2005      8.96648e+9 
           2015      8.83539e+9 
           2025      8.70664e+9 
           2035      8.57943e+9 
           2045      8.45483e+9 
           2055      7.76283e+9 
           2065      7.61794e+9 
           2074      7.62466e+9 
           2078       7.6585e+9 
           2085      7.79574e+9 
           2095      7.86226e+9 
           2105      7.75798e+9 
           2115      7.65633e+9 
           2125      7.55198e+9 
           2135       7.4433e+9 
           2145      7.33926e+9 
           2155      7.26044e+9 
           2165       7.1293e+9 
           2175      7.06294e+9 
           2185      6.93121e+9 
           2195      6.86781e+9 
           2205       6.7728e+9 
           2215       6.6469e+9 
           2225      6.58668e+9 
           2235       6.4959e+9 
           2245      6.40669e+9 
           2255      6.28924e+9 
           2265      6.23295e+9 
           2275      6.14821e+9 
           2285      6.06515e+9 
           2295      5.95526e+9 
           2305      5.87619e+9 
           2315      5.82454e+9 
           2325      5.74667e+9 
           2335      5.67019e+9 
           2345      5.59515e+9 
           2355      5.52138e+9 
           2365      5.44885e+9 
           2375      5.37755e+9 
           2385      5.28427e+9 
           2395      5.23839e+9 
           2405      5.17063e+9 
           2415      5.10393e+9 
           2425      5.03822e+9 
           2435      4.97322e+9 
           2445      4.90937e+9 
           2455      4.84658e+9 
           2465      4.78452e+9 
           2475      4.72349e+9 
           2485      4.66347e+9 
           2495      4.54833e+9 
           2505      4.54559e+9 
           2513      4.45239e+9 
           2518      4.47144e+9 
           2525      4.43233e+9 
           2535      4.37697e+9 
           2545      4.32216e+9 
           2555      4.26872e+9 
           2565      4.21597e+9 
           2575      4.16403e+9 
           2585      4.11293e+9 
           2595      4.06261e+9 
           2605      4.03009e+9 
           2615      3.98098e+9 
           2625      3.93103e+9 
           2635      3.87835e+9 
           2645      3.83217e+9 
           2655       3.7831e+9 
           2665      3.73503e+9 
           2675      3.68826e+9 
           2685      3.65791e+9 
           2695      3.59777e+9 
           2705      3.57143e+9 
           2715      3.52912e+9 
           2725      3.46861e+9 
           2735      3.43277e+9 
           2745      3.40605e+9 
           2755      3.36623e+9 
           2765       3.3063e+9 
           2775      3.28809e+9 
           2785       3.2498e+9 
           2795      3.21183e+9 
           2805      3.17495e+9 
           2815       3.1384e+9 
           2825      3.07992e+9 
           2835      3.06076e+9 
           2845      3.03184e+9 
           2855      2.99733e+9 
           2865      2.96331e+9 
           2875      2.92979e+9 
           2885       2.8968e+9 
           2895       2.8641e+9 
           2910      2.81601e+9 
           2930      2.75347e+9 
           2950       2.6789e+9 
           2970      2.63372e+9 
           2990      2.57631e+9 
           3010      2.52052e+9 
           3030      2.46623e+9 
           3050      2.41346e+9 
           3070      2.36189e+9 
           3090      2.31165e+9 
           3110      2.26285e+9 
           3130      2.21699e+9 
           3150      2.17043e+9 
           3170      2.12472e+9 
           3190      2.06651e+9 
           3210      2.03386e+9 
           3230      1.99553e+9 
           3250      1.95461e+9 
           3270      1.91675e+9 
           3290      1.87611e+9 
           3310      1.84068e+9 
           3330      1.80389e+9 
           3350      1.76537e+9 
           3370      1.73306e+9 
           3390        1.699e+9 
           3410      1.66579e+9 
           3430      1.62743e+9 
           3450      1.59111e+9 
           3470      1.56456e+9 
           3490      1.53443e+9 
           3510      1.51057e+9 
           3530      1.48262e+9 
           3550      1.45493e+9 
           3570      1.43327e+9 
           3590      1.39978e+9 
           3610      1.37564e+9 
           3630      1.34794e+9 
           3640      1.34208e+9 
           3650      1.32263e+9 
           3670      1.30241e+9 
           3690       1.2688e+9 
           3710       1.2343e+9 
           3730      1.19924e+9 
           3750      1.26019e+9 
           3770      1.25292e+9 
           3790       1.2753e+9 
           3810      1.30858e+9 
           3830      1.18182e+9 
           3850      1.30349e+9 
           3870      1.28648e+9 
           3890      1.12682e+9 
           3910      1.25401e+9 
           3930      1.22779e+9 
           3950      1.21097e+9 
           3970      1.04372e+9 
           3990       1.1666e+9 
           4010      1.14604e+9 
           4030       1.1021e+9 
           4050      1.11279e+9 
           4070       1.0931e+9 
           4090      1.04944e+9 
           4110      9.48129e+8 
           4130      1.03052e+9 
           4150      1.01405e+9 
           4170      1.00181e+9 
           4190      9.86452e+8 
           4210      9.68812e+8 
           4230      9.53777e+8 
           4250      9.37897e+8 
           4270      9.22355e+8 
           4290      9.07142e+8 
           4310      8.91645e+8 
           4330      8.47179e+8 
           4350      7.85074e+8 
           4370      8.48213e+8 
           4390      8.23788e+8 
           4410      8.22145e+8 
           4430      8.06791e+8 
           4450      7.96073e+8 
           4470      7.64662e+8 
           4490      7.71002e+8 
           4510      7.58845e+8 
           4530       7.4689e+8 
           4550       7.3417e+8 
           4570      7.23645e+8 
           4590      7.12364e+8 
           4610      7.01321e+8 
           4630      6.90478e+8 
           4650      6.79812e+8 
           4670      6.69406e+8 
           4690      6.55745e+8 
           4710      6.43378e+8 
           4730      6.39296e+8 
           4750      6.29649e+8 
           4770      6.20175e+8 
           4790      6.10886e+8 
           4810      6.01761e+8 
           4830      5.92299e+8 
           4850      5.68093e+8 
           4870      5.18976e+8 
           4890      5.65864e+8 
           4910      5.58654e+8 
           4930      5.42551e+8 
           4950      5.42481e+8 
           4970      5.34601e+8 
           4990      5.26874e+8 
           5010      5.14706e+8 
           5030      5.11798e+8 
           5050      5.02419e+8 
           5070      4.97276e+8 
           5090       4.9022e+8 
           5110      4.83274e+8 
           5130      4.76464e+8 
           5150      4.69759e+8 
           5170      4.63172e+8 
           5190      4.56714e+8 
           5210      4.50355e+8 
           5230      4.44108e+8 
           5250       4.3797e+8 
           5270      4.31939e+8 
           5290      4.26013e+8 
           5310      4.20178e+8 
           5330      4.14458e+8 
           5350      4.08825e+8 
           5370      4.03303e+8 
           5390      3.97852e+8 
           5410      3.92058e+8 
           5430      3.87233e+8 
           5450      3.82063e+8 
           5470       3.7697e+8 
           5490      3.71966e+8 
           5510      3.67037e+8 
           5530      3.62194e+8 
           5550      3.57436e+8 
           5570      3.52749e+8 
           5590      3.48131e+8 
           5610      3.43606e+8 
           5630      3.39137e+8 
           5650      3.34758e+8 
           5670      3.30443e+8 
           5690      3.26181e+8 
           5710      3.22017e+8 
           5730      3.17914e+8 
           5750       3.1386e+8 
           5770      3.09889e+8 
           5790      3.05965e+8 
           5810       3.0211e+8 
           5830      2.98323e+8 
           5850       2.9458e+8 
           5870      2.84311e+8 
           5890       2.8714e+8 
           5910      2.83711e+8 
           5930      2.80194e+8 
           5950      2.76728e+8 
           5970      2.73323e+8 
           5990      2.69968e+8 
           6010      2.66662e+8 
           6030      2.63414e+8 
           6050      2.60203e+8 
           6070       2.5705e+8 
           6090      2.53942e+8 
           6110       2.5089e+8 
           6130      2.47872e+8 
           6150      2.44908e+8 
           6170      2.41987e+8 
           6190      2.39098e+8 
           6210      2.36261e+8 
           6230      2.33465e+8 
           6250       2.3072e+8 
           6270      2.28005e+8 
           6290      2.25329e+8 
           6310      2.22691e+8 
           6330      2.20092e+8 
           6350      2.17531e+8 
           6370      2.15007e+8 
           6390      2.12519e+8 
           6410      2.10067e+8 
           6430       2.0765e+8 
           6450      2.05269e+8 
           6470      2.02922e+8 
           6490        2.006e+8 
           6510       1.9832e+8 
           6530      1.95941e+8 
           6550      1.90988e+8 
           6570      1.73899e+8 
           6590      1.89041e+8 
           6610       1.8739e+8 
           6630      1.85301e+8 
           6650      1.83319e+8 
           6670      1.79969e+8 
           6690      1.77969e+8 
           6710      1.77294e+8 
           6730      1.75344e+8 
           6750      1.73413e+8 
           6770      1.71511e+8 
           6790      1.69636e+8 
           6810      1.67788e+8 
           6830      1.65959e+8 
           6850      1.64156e+8 
           6870      1.62379e+8 
           6890      1.60629e+8 
           6910      1.58903e+8 
           6930      1.57195e+8 
           6950      1.55512e+8 
           6970      1.53853e+8 
           6990      1.52203e+8 
           7010      1.50599e+8 
           7030      1.49004e+8 
           7050      1.47433e+8 
           7070      1.43818e+8 
           7090      1.44342e+8 
           7110      1.42831e+8 
           7130      1.41341e+8 
           7150      1.39866e+8 
           7170      1.38376e+8 
           7190      1.36974e+8 
           7210      1.35555e+8 
           7230      1.34158e+8 
           7250      1.32781e+8 
           7270      1.31417e+8 
           7290      1.29116e+8 
           7310      1.28721e+8 
           7330       1.2743e+8 
           7350      1.26131e+8 
           7370      1.24851e+8 
           7390       1.2359e+8 
           7410       1.2234e+8 
           7430      1.21109e+8 
           7450       1.1991e+8 
           7470      1.18708e+8 
           7490      1.17525e+8 
           7510      1.16318e+8 
           7530      1.15196e+8 
           7550      1.14058e+8 
           7570       1.1293e+8 
           7590      1.11806e+8 
           7610      1.10712e+8 
           7630      1.09627e+8 
           7650      1.08553e+8 
           7670      1.07494e+8 
           7690      1.06439e+8 
           7710      1.05406e+8 
           7730      1.04388e+8 
           7750      1.03367e+8 
           7770      1.02374e+8 
           7790       1.0139e+8 
           7810      1.00358e+8 
           7830      9.94532e+7 
           7850      9.85864e+7 
           7870       9.7648e+7 
           7890      9.66755e+7 
           7910      9.58019e+7 
           7930      9.48939e+7 
           7950      9.39581e+7 
           7970      9.29533e+7 
           7990      9.21286e+7 
           8010      9.11994e+7 
           8030      9.03659e+7 
           8050      8.95628e+7 
           8070      8.87608e+7 
           8090      8.77871e+7 
           8110      8.70454e+7 
           8130      8.63383e+7 
           8150      8.53877e+7 
           8170      8.47613e+7 
           8190       8.3921e+7 
           8210      8.29593e+7 
           8230      8.24064e+7 
           8250      8.16918e+7 
           8270      8.05921e+7 
           8290      8.01215e+7 
           8310      7.94199e+7 
           8330      7.86806e+7 
           8350       7.7645e+7 
           8370       7.7113e+7 
           8390      7.64996e+7 
           8410        7.579e+7 
           8430      7.50173e+7 
           8450      7.39873e+7 
           8470       7.3444e+7 
           8490      7.30827e+7 
           8510      7.18552e+7 
           8530      7.19898e+7 
           8550      6.97106e+7 
           8570      7.15759e+7 
