# Kurucz ODFNEW /NOVER (2003)
# teff = 20000 K (value for the effective temperature for the model. Temperatures are given in K)
# logg = 3 log(cm/s2) (value for Log(G) for the model.)
# meta = -1.5  (value for the Metallicity for the model.)
# lh = 1.25  (l/Hp where l is the  mixing length of the convective element and Hp is the pressure scale height)
# vtur = 2 km/s (Microturbulence velocity)
# alpha = 0.4  (Alpha)
#
# column 1: WAVELENGTH (ANGSTROM), Wavelength in Angstrom
# column 2: FLUX (ERG/CM2/S/A), Flux in erg/cm2/s/A
          147.2     4.11905e-20 
            151     2.76934e-19 
          155.2     2.05233e-18 
          158.8     1.05426e-17 
            162     4.25852e-17 
            166     2.26535e-16 
          170.3     1.25334e-15 
          173.4     4.08585e-15 
          176.8     1.42408e-14 
          180.2     4.73452e-14 
          181.7     7.92943e-14 
          186.1     3.43082e-13 
            191     1.61841e-12 
          193.9     3.90395e-12 
          198.4     1.45351e-11 
          201.8     3.77255e-11 
            205     8.98682e-11 
          210.5     3.74891e-10 
          216.2      1.52223e-9 
          219.8      3.54872e-9 
            223      7.35323e-9 
          226.8        1.699e-8 
            230      1.19806e-7 
            234      3.03291e-7 
            240       9.1939e-7 
          246.5      2.87335e-6 
          252.4      7.74975e-6 
          256.8       1.5286e-5 
            260      2.56917e-5 
            264      4.69139e-5 
          268.5      9.02419e-5 
          273.5     0.000181802 
          278.5     0.000357853 
            284     0.000732898 
            290      0.00154862 
            296      0.00316726 
            301       0.0056251 
            308       0.0119678 
            318       0.0346125 
            328       0.0915351 
            338        0.229482 
            348         0.54274 
            357         1.13259 
            366         2.27456 
            375          4.3793 
            385         8.76193 
            395         16.8456 
            405         31.3304 
            414         53.3434 
            422          83.622 
            430         128.677 
            441          227.59 
            451         372.042 
            460         566.661 
            470         886.789 
            480         1358.61 
            490         2043.85 
            500         3019.11 
            506         26980.9 
            512         84195.9 
            520          108856 
            530          161569 
            540          180109 
            550          275293 
            560          342072 
            570          435227 
            580          439297 
            590          607356 
            600          794051 
            610          978859 
            620      1.15812e+6 
            630       1.3895e+6 
            640      1.59043e+6 
            650      1.86412e+6 
            658      2.19183e+6 
            665      2.41103e+6 
            675      2.71807e+6 
            685      3.11925e+6 
            695      3.70821e+6 
            705      4.18376e+6 
            716      4.84962e+6 
            726      5.42226e+6 
            735      6.06728e+6 
            745      6.91726e+6 
            755      7.75962e+6 
            765       8.6402e+6 
            775      9.67752e+6 
            785      1.07537e+7 
            795      1.17878e+7 
            805      1.29949e+7 
            815      1.41611e+7 
            825       1.5636e+7 
            835      1.66459e+7 
            845      1.83821e+7 
            855      1.99139e+7 
            865      2.17249e+7 
            875      2.36442e+7 
            885      2.57031e+7 
            895      2.76669e+7 
            905      2.91517e+7 
            915      5.90006e+7 
            925      9.22599e+8 
            935      2.86728e+9 
            945        6.122e+9 
            955       7.3737e+9 
            965      8.79619e+9 
            975      3.14465e+9 
            985      8.93496e+9 
            995      8.45565e+9 
           1005      8.97414e+9 
           1015      8.71481e+9 
           1025      4.21543e+9 
           1035      7.31848e+9 
           1045      9.70505e+9 
           1055      9.30227e+9 
           1065      8.31231e+9 
           1075      9.11355e+9 
           1085      8.44903e+9 
           1095      9.18899e+9 
           1105      8.44616e+9 
           1115      8.41927e+9 
           1125      7.86633e+9 
           1135      8.67204e+9 
           1145      8.10025e+9 
           1155      8.42401e+9 
           1165      8.48569e+9 
           1175      7.07494e+9 
           1185      8.31221e+9 
           1195       7.4656e+9 
           1205      5.35663e+9 
           1215      2.97178e+9 
           1225      6.82927e+9 
           1235      7.61276e+9 
           1245      7.69075e+9 
           1255      7.46199e+9 
           1265      7.34189e+9 
           1275      7.51107e+9 
           1285      7.34967e+9 
           1295      6.08015e+9 
           1305      6.23397e+9 
           1315      7.09266e+9 
           1325       6.8315e+9 
           1335      6.54078e+9 
           1345      6.66046e+9 
           1355      6.70594e+9 
           1365      6.42668e+9 
           1375      6.34808e+9 
           1385      6.34473e+9 
           1395      5.67565e+9 
           1405      5.84286e+9 
           1415       6.0317e+9 
           1425      5.93231e+9 
           1435      5.95713e+9 
           1442      5.98694e+9 
           1447      5.90911e+9 
           1455      5.80676e+9 
           1465      5.67211e+9 
           1475      5.60222e+9 
           1485      5.50123e+9 
           1495      5.41321e+9 
           1505      5.20846e+9 
           1512      5.03148e+9 
           1517      5.10379e+9 
           1525      5.07095e+9 
           1535       4.7803e+9 
           1545      4.84614e+9 
           1555      4.65641e+9 
           1565      4.75475e+9 
           1575       4.7951e+9 
           1585      4.72339e+9 
           1595      4.70907e+9 
           1605      4.56049e+9 
           1615      4.49884e+9 
           1625       4.4726e+9 
           1635       4.4998e+9 
           1645      4.41713e+9 
           1655      4.35635e+9 
           1665      4.35758e+9 
           1672      4.25177e+9 
           1677       4.3359e+9 
           1685      4.27559e+9 
           1695      4.16326e+9 
           1705      4.05483e+9 
           1715      3.92852e+9 
           1725       3.9007e+9 
           1735      3.90055e+9 
           1745      3.83605e+9 
           1755      3.84701e+9 
           1765      3.68938e+9 
           1775      3.65821e+9 
           1785      3.64075e+9 
           1795      3.65701e+9 
           1805      3.62955e+9 
           1815       3.4848e+9 
           1825      3.50338e+9 
           1835      3.44393e+9 
           1845      3.25187e+9 
           1855      3.19479e+9 
           1865      3.21976e+9 
           1875      3.26598e+9 
           1885      3.05934e+9 
           1895      2.91373e+9 
           1905       3.0488e+9 
           1915      2.93547e+9 
           1925      2.86266e+9 
           1935      2.92733e+9 
           1945      2.94441e+9 
           1955      2.77104e+9 
           1967      2.86615e+9 
           1976      2.92385e+9 
           1984      2.78825e+9 
           1995      2.71546e+9 
           2005      2.74926e+9 
           2015       2.7496e+9 
           2025      2.76799e+9 
           2035       2.6477e+9 
           2045      2.63024e+9 
           2055      2.55243e+9 
           2065      2.56841e+9 
           2074      2.62271e+9 
           2078      2.51788e+9 
           2085      2.53514e+9 
           2095      2.45135e+9 
           2105      2.47929e+9 
           2115       2.4602e+9 
           2125      2.47589e+9 
           2135      2.43341e+9 
           2145      2.36149e+9 
           2155      2.38318e+9 
           2165      2.35816e+9 
           2175       2.3249e+9 
           2185       2.2983e+9 
           2195      2.28578e+9 
           2205      2.25626e+9 
           2215      2.23063e+9 
           2225      2.19168e+9 
           2235      2.16909e+9 
           2245      2.15878e+9 
           2255      2.12064e+9 
           2265      2.11135e+9 
           2275      2.08621e+9 
           2285      2.07073e+9 
           2295      2.01489e+9 
           2305      2.01999e+9 
           2315      1.98585e+9 
           2325      1.96713e+9 
           2335      1.92475e+9 
           2345      1.90426e+9 
           2355      1.90517e+9 
           2365      1.87502e+9 
           2375      1.85606e+9 
           2385      1.82913e+9 
           2395      1.81468e+9 
           2405      1.79441e+9 
           2415      1.76756e+9 
           2425      1.76704e+9 
           2435      1.73884e+9 
           2445       1.7242e+9 
           2455      1.71206e+9 
           2465      1.68883e+9 
           2475      1.67183e+9 
           2485      1.65303e+9 
           2495      1.59533e+9 
           2505      1.61708e+9 
           2513      1.57989e+9 
           2518      1.58931e+9 
           2525      1.57738e+9 
           2535      1.55857e+9 
           2545      1.52721e+9 
           2555      1.53207e+9 
           2565      1.50778e+9 
           2575      1.50501e+9 
           2585      1.48854e+9 
           2595      1.47284e+9 
           2605      1.46639e+9 
           2615      1.45238e+9 
           2625      1.43767e+9 
           2635      1.41816e+9 
           2645      1.41311e+9 
           2655      1.39815e+9 
           2665      1.37882e+9 
           2675      1.36732e+9 
           2685      1.36149e+9 
           2695      1.33548e+9 
           2705      1.33227e+9 
           2715      1.31833e+9 
           2725      1.29477e+9 
           2735      1.29283e+9 
           2745      1.26678e+9 
           2755      1.25775e+9 
           2765      1.24246e+9 
           2775      1.24306e+9 
           2785      1.22914e+9 
           2795      1.19018e+9 
           2805      1.19616e+9 
           2815      1.19457e+9 
           2825      1.17306e+9 
           2835      1.15664e+9 
           2845      1.15853e+9 
           2855      1.14742e+9 
           2865      1.13755e+9 
           2875      1.12614e+9 
           2885      1.11581e+9 
           2895      1.10465e+9 
           2910      1.08827e+9 
           2930      1.06574e+9 
           2950      1.04069e+9 
           2970      1.02787e+9 
           2990      1.00721e+9 
           3010      9.88634e+8 
           3030      9.71686e+8 
           3050       9.5376e+8 
           3070      9.36297e+8 
           3090       9.1672e+8 
           3110      9.02046e+8 
           3130      8.86633e+8 
           3150      8.70474e+8 
           3170      8.54351e+8 
           3190      8.32899e+8 
           3210       8.2438e+8 
           3230      8.09508e+8 
           3250      7.95332e+8 
           3270       7.8225e+8 
           3290      7.67478e+8 
           3310      7.55378e+8 
           3330      7.42288e+8 
           3350      7.28148e+8 
           3370      7.16976e+8 
           3390      7.04837e+8 
           3410      6.92933e+8 
           3430      6.77863e+8 
           3450      6.64107e+8 
           3470      6.55066e+8 
           3490       6.4492e+8 
           3510      6.37774e+8 
           3530      6.27726e+8 
           3550      6.17564e+8 
           3570      6.09748e+8 
           3590      5.96893e+8 
           3610      5.87493e+8 
           3630       5.7775e+8 
           3640      5.76229e+8 
           3650       5.6595e+8 
           3670      5.58511e+8 
           3690      5.38639e+8 
           3710      5.42044e+8 
           3730      5.48026e+8 
           3750       6.1351e+8 
           3770      6.16056e+8 
           3790      6.32651e+8 
           3810       6.5608e+8 
           3830      5.84193e+8 
           3850      6.63689e+8 
           3870      6.54307e+8 
           3890      5.60684e+8 
           3910      6.43353e+8 
           3930      6.27138e+8 
           3950      6.22784e+8 
           3970      5.20985e+8 
           3990      6.01201e+8 
           4010      5.91799e+8 
           4030      5.67452e+8 
           4050      5.77112e+8 
           4070      5.65336e+8 
           4090      5.40746e+8 
           4110      4.81279e+8 
           4130      5.33503e+8 
           4150      5.27673e+8 
           4170      5.22472e+8 
           4190      5.15908e+8 
           4210      5.08361e+8 
           4230       5.0028e+8 
           4250      4.92058e+8 
           4270      4.82294e+8 
           4290      4.76825e+8 
           4310       4.6876e+8 
           4330      4.41774e+8 
           4350      4.04931e+8 
           4370      4.47335e+8 
           4390      4.34609e+8 
           4410      4.34821e+8 
           4430      4.27122e+8 
           4450       4.2255e+8 
           4470      4.04692e+8 
           4490      4.09018e+8 
           4510      4.04269e+8 
           4530      3.98137e+8 
           4550      3.92006e+8 
           4570      3.86129e+8 
           4590      3.80787e+8 
           4610      3.75327e+8 
           4630       3.6993e+8 
           4650      3.63427e+8 
           4670      3.59181e+8 
           4690      3.54428e+8 
           4710      3.44819e+8 
           4730      3.43711e+8 
           4750      3.38468e+8 
           4770      3.34874e+8 
           4790      3.30113e+8 
           4810      3.25192e+8 
           4830      3.20146e+8 
           4850      3.05387e+8 
           4870      2.75388e+8 
           4890      3.06855e+8 
           4910      3.03439e+8 
           4930      2.94286e+8 
           4950      2.95126e+8 
           4970      2.91291e+8 
           4990      2.87297e+8 
           5010      2.79994e+8 
           5030      2.79514e+8 
           5050      2.73626e+8 
           5070      2.72117e+8 
           5090       2.6847e+8 
           5110      2.64858e+8 
           5130      2.61251e+8 
           5150      2.57805e+8 
           5170      2.54518e+8 
           5190      2.51175e+8 
           5210      2.47571e+8 
           5230      2.44662e+8 
           5250      2.41476e+8 
           5270      2.38317e+8 
           5290      2.35267e+8 
           5310      2.32215e+8 
           5330      2.29203e+8 
           5350      2.26176e+8 
           5370      2.23423e+8 
           5390      2.20562e+8 
           5410      2.17763e+8 
           5430      2.14871e+8 
           5450      2.12232e+8 
           5470      2.09575e+8 
           5490      2.07001e+8 
           5510      2.04409e+8 
           5530      2.01849e+8 
           5550      1.99357e+8 
           5570      1.96871e+8 
           5590      1.94464e+8 
           5610      1.92015e+8 
           5630      1.89726e+8 
           5650      1.87193e+8 
           5670      1.84949e+8 
           5690      1.82721e+8 
           5710      1.80634e+8 
           5730      1.78457e+8 
           5750       1.7625e+8 
           5770      1.74204e+8 
           5790      1.72126e+8 
           5810      1.70061e+8 
           5830      1.68032e+8 
           5850      1.66048e+8 
           5870      1.60185e+8 
           5890      1.61987e+8 
           5910      1.60224e+8 
           5930      1.58341e+8 
           5950      1.56449e+8 
           5970      1.54683e+8 
           5990      1.52854e+8 
           6010      1.51109e+8 
           6030      1.49362e+8 
           6050      1.47645e+8 
           6070      1.45948e+8 
           6090       1.4427e+8 
           6110       1.4263e+8 
           6130      1.41009e+8 
           6150      1.39357e+8 
           6170      1.37821e+8 
           6190      1.36274e+8 
           6210      1.34733e+8 
           6230      1.33219e+8 
           6250      1.31712e+8 
           6270       1.3026e+8 
           6290      1.28804e+8 
           6310      1.27355e+8 
           6330      1.25969e+8 
           6350      1.24429e+8 
           6370      1.23129e+8 
           6390      1.21843e+8 
           6410      1.20506e+8 
           6430      1.19202e+8 
           6450      1.17902e+8 
           6470      1.16607e+8 
           6490      1.15344e+8 
           6510      1.14103e+8 
           6530      1.12743e+8 
           6550      1.09465e+8 
           6570      9.83522e+7 
           6590      1.08608e+8 
           6610      1.08116e+8 
           6630      1.06985e+8 
           6650      1.05916e+8 
           6670      1.04029e+8 
           6690      1.02945e+8 
           6710      1.02608e+8 
           6730      1.01525e+8 
           6750      1.00469e+8 
           6770      9.94246e+7 
           6790      9.83495e+7 
           6810      9.73665e+7 
           6830      9.63529e+7 
           6850      9.53656e+7 
           6870      9.43801e+7 
           6890      9.34044e+7 
           6910      9.24543e+7 
           6930      9.14978e+7 
           6950       9.0582e+7 
           6970      8.96596e+7 
           6990      8.87386e+7 
           7010      8.78497e+7 
           7030      8.69618e+7 
           7050      8.60901e+7 
           7070      8.39607e+7 
           7090       8.4372e+7 
           7110      8.35328e+7 
           7130      8.26943e+7 
           7150      8.18713e+7 
           7170      8.10414e+7 
           7190      8.02633e+7 
           7210      7.94707e+7 
           7230      7.84263e+7 
           7250      7.79082e+7 
           7270      7.71522e+7 
           7290       7.5815e+7 
           7310      7.56404e+7 
           7330      7.49197e+7 
           7350      7.41918e+7 
           7370      7.34775e+7 
           7390      7.27699e+7 
           7410      7.20689e+7 
           7430      7.13743e+7 
           7450      7.06998e+7 
           7470      7.00179e+7 
           7490      6.93557e+7 
           7510      6.86728e+7 
           7530      6.80494e+7 
           7550      6.74052e+7 
           7570      6.67668e+7 
           7590      6.61407e+7 
           7610      6.55138e+7 
           7630      6.49055e+7 
           7650      6.42962e+7 
           7670      6.36975e+7 
           7690      6.30997e+7 
           7710      6.25116e+7 
           7730      6.19382e+7 
           7750      6.13587e+7 
           7770      6.07262e+7 
           7790      6.02416e+7 
           7810      5.96376e+7 
           7830      5.91422e+7 
           7850       5.8653e+7 
           7870      5.81211e+7 
           7890      5.75321e+7 
           7910      5.70386e+7 
           7930      5.64319e+7 
           7950      5.58932e+7 
           7970      5.53604e+7 
           7990       5.4883e+7 
           8010      5.43849e+7 
           8030      5.39338e+7 
           8050      5.34883e+7 
           8070      5.30407e+7 
           8090      5.24576e+7 
           8110      5.20348e+7 
           8130      5.16685e+7 
           8150      5.10965e+7 
           8170      5.07738e+7 
           8190      5.02672e+7 
           8210      4.96325e+7 
           8230      4.93521e+7 
           8250      4.89354e+7 
           8270      4.82534e+7 
           8290      4.80159e+7 
           8310      4.76154e+7 
           8330       4.7197e+7 
           8350      4.65697e+7 
           8370      4.62017e+7 
           8390      4.58591e+7 
           8410      4.54154e+7 
           8430      4.49987e+7 
           8450      4.44235e+7 
           8470      4.38264e+7 
           8490       4.4192e+7 
           8510      4.28494e+7 
           8530      4.37521e+7 
           8550      4.14347e+7 
           8570      4.37908e+7 
