# Kurucz ODFNEW /NOVER (2003)
# teff = 26000 K (value for the effective temperature for the model. Temperatures are given in K)
# logg = 5 log(cm/s2) (value for Log(G) for the model.)
# meta = -1.5  (value for the Metallicity for the model.)
# lh = 1.25  (l/Hp where l is the  mixing length of the convective element and Hp is the pressure scale height)
# vtur = 2 km/s (Microturbulence velocity)
# alpha = 0  (Alpha)
#
# column 1: WAVELENGTH (ANGSTROM), Wavelength in Angstrom
# column 2: FLUX (ERG/CM2/S/A), Flux in erg/cm2/s/A
          147.2     6.40191e-13 
            151     2.78685e-12 
          155.2     1.30897e-11 
          158.8     4.63385e-11 
            162     1.36354e-10 
            166     4.96846e-10 
          170.3      1.86844e-9 
          173.4      4.66634e-9 
          176.8      1.22812e-8 
          180.2      3.11969e-8 
          181.7       4.6553e-8 
          186.1       1.4513e-7 
            191      4.83973e-7 
          193.9      9.58968e-7 
          198.4      2.66258e-6 
          201.8      5.58592e-6 
            205      1.09689e-5 
          210.5      3.33248e-5 
          216.2      9.91664e-5 
          219.8     0.000191554 
            223     0.000337594 
          226.8     0.000647566 
            230      0.00695347 
            234       0.0155409 
            240       0.0362327 
          246.5       0.0863544 
          252.4        0.184593 
          256.8        0.304663 
            260        0.458584 
            264        0.723557 
          268.5         1.18753 
          273.5         2.01736 
          278.5         3.36565 
            284         5.78154 
            290         10.1609 
            296         17.4102 
            301         26.7812 
            308         46.5114 
            318         104.837 
            328         217.075 
            338         431.423 
            348         819.818 
            357         1415.41 
            366         2379.74 
            375          3863.6 
            385         6468.89 
            395         10493.9 
            405         16591.7 
            414         24589.1 
            422         34209.1 
            430         46906.8 
            441         71415.1 
            451          102476 
            460          139333 
            470          193515 
            480          264217 
            490          355955 
            500          472946 
            506      2.42324e+6 
            512      8.70011e+6 
            520       1.0358e+7 
            530      1.33989e+7 
            540      1.41674e+7 
            550      1.86198e+7 
            560      2.10517e+7 
            570      2.46213e+7 
            580      2.46834e+7 
            590      3.06806e+7 
            600      3.52933e+7 
            610      4.01089e+7 
            620      4.43755e+7 
            630       4.9738e+7 
            640      5.35303e+7 
            650       5.9986e+7 
            658      6.55042e+7 
            665      6.99662e+7 
            675      7.50027e+7 
            685      8.10423e+7 
            695      9.16583e+7 
            705      9.83464e+7 
            716      1.07855e+8 
            726      1.15869e+8 
            735      1.24625e+8 
            745      1.34978e+8 
            755      1.45054e+8 
            765      1.54915e+8 
            775      1.66285e+8 
            785      1.77701e+8 
            795      1.87982e+8 
            805      1.99682e+8 
            815      2.10976e+8 
            825       2.2438e+8 
            835      2.32254e+8 
            845      2.48005e+8 
            855       2.5995e+8 
            865        2.749e+8 
            875      2.89948e+8 
            885      3.04712e+8 
            895      3.18733e+8 
            905      3.28872e+8 
            915       4.1214e+8 
            925      1.72218e+9 
            935      4.42866e+9 
            945     1.46368e+10 
            955     2.45049e+10 
            965     3.42887e+10 
            975     1.13186e+10 
            985     4.36827e+10 
            995     4.28662e+10 
           1005      4.5046e+10 
           1015     3.72844e+10 
           1025      8.75249e+9 
           1035     3.16879e+10 
           1045     4.39508e+10 
           1055     4.31012e+10 
           1065     3.90505e+10 
           1075     4.06322e+10 
           1085     3.68657e+10 
           1095     3.93751e+10 
           1105     3.73914e+10 
           1115      3.6754e+10 
           1125     3.39901e+10 
           1135     3.51514e+10 
           1145     3.27527e+10 
           1155     3.33572e+10 
           1165     3.26815e+10 
           1175     2.73878e+10 
           1185     3.06245e+10 
           1195     2.80959e+10 
           1205     2.22342e+10 
           1215      6.55552e+9 
           1225     2.11887e+10 
           1235     2.64339e+10 
           1245     2.63828e+10 
           1255     2.60453e+10 
           1265     2.54563e+10 
           1275     2.53621e+10 
           1285     2.47887e+10 
           1295     2.25877e+10 
           1305     2.25304e+10 
           1315     2.30997e+10 
           1325     2.21966e+10 
           1335      2.1246e+10 
           1345     2.13186e+10 
           1355     2.11446e+10 
           1365     2.03547e+10 
           1375     2.00079e+10 
           1385     1.96251e+10 
           1395     1.82804e+10 
           1405     1.82326e+10 
           1415     1.82543e+10 
           1425     1.78749e+10 
           1435     1.76057e+10 
           1442     1.74988e+10 
           1447      1.7266e+10 
           1455     1.69583e+10 
           1465     1.65026e+10 
           1475     1.61987e+10 
           1485     1.58381e+10 
           1495     1.55287e+10 
           1505     1.49368e+10 
           1512     1.46029e+10 
           1517     1.45765e+10 
           1525     1.43461e+10 
           1535     1.36198e+10 
           1545     1.35062e+10 
           1555     1.30564e+10 
           1565     1.31716e+10 
           1575     1.30729e+10 
           1585     1.28414e+10 
           1595     1.26483e+10 
           1605     1.22222e+10 
           1615      1.1978e+10 
           1625     1.19024e+10 
           1635     1.17833e+10 
           1645     1.14008e+10 
           1655     1.13587e+10 
           1665     1.12264e+10 
           1672     1.09628e+10 
           1677     1.10606e+10 
           1685     1.08694e+10 
           1695     1.06096e+10 
           1705      1.0358e+10 
           1715     1.00905e+10 
           1725      9.93065e+9 
           1735      9.83628e+9 
           1745      9.64221e+9 
           1755      9.54806e+9 
           1765      9.18851e+9 
           1775       9.1062e+9 
           1785      9.01805e+9 
           1795      8.92557e+9 
           1805      8.81515e+9 
           1815      8.57304e+9 
           1825      8.47607e+9 
           1835      8.32128e+9 
           1845      7.95575e+9 
           1855      7.77496e+9 
           1865      7.76015e+9 
           1875      7.76332e+9 
           1885      7.38515e+9 
           1895      7.12623e+9 
           1905      7.25882e+9 
           1915      7.00651e+9 
           1925      6.85471e+9 
           1935      6.88727e+9 
           1945      6.88565e+9 
           1955      6.55073e+9 
           1967      6.62918e+9 
           1976      6.65991e+9 
           1984      6.43279e+9 
           1995       6.2408e+9 
           2005      6.28178e+9 
           2015      6.24965e+9 
           2025      6.20866e+9 
           2035      6.02252e+9 
           2045      5.93629e+9 
           2055      5.76331e+9 
           2065      5.70957e+9 
           2074      5.76435e+9 
           2078      5.60756e+9 
           2085      5.59354e+9 
           2095      5.44928e+9 
           2105      5.47109e+9 
           2115      5.42167e+9 
           2125      5.38302e+9 
           2135       5.2918e+9 
           2145      5.18723e+9 
           2155      5.14406e+9 
           2165      5.07905e+9 
           2175      4.99885e+9 
           2185      4.93607e+9 
           2195      4.87674e+9 
           2205      4.80641e+9 
           2215       4.7423e+9 
           2225      4.66949e+9 
           2235      4.60193e+9 
           2245      4.55078e+9 
           2255      4.48139e+9 
           2265      4.42913e+9 
           2275      4.36902e+9 
           2285      4.31406e+9 
           2295      4.20494e+9 
           2305      4.19626e+9 
           2315      4.13436e+9 
           2325      4.08187e+9 
           2335      4.01906e+9 
           2345      3.97027e+9 
           2355      3.92589e+9 
           2365      3.87228e+9 
           2375      3.82084e+9 
           2385      3.76854e+9 
           2395       3.7213e+9 
           2405      3.67401e+9 
           2415      3.62491e+9 
           2425      3.58649e+9 
           2435      3.53568e+9 
           2445      3.49296e+9 
           2455      3.45256e+9 
           2465      3.40718e+9 
           2475      3.36482e+9 
           2485      3.32248e+9 
           2495      3.22933e+9 
           2505      3.23704e+9 
           2513      3.17536e+9 
           2518      3.18688e+9 
           2525      3.15914e+9 
           2535      3.11914e+9 
           2545      3.07036e+9 
           2555      3.04354e+9 
           2565      3.00783e+9 
           2575      2.97412e+9 
           2585      2.93881e+9 
           2595      2.90317e+9 
           2605      2.88669e+9 
           2615      2.85369e+9 
           2625      2.82084e+9 
           2635      2.78569e+9 
           2645      2.75336e+9 
           2655      2.71769e+9 
           2665      2.67707e+9 
           2675      2.64135e+9 
           2685      2.62981e+9 
           2695      2.57267e+9 
           2705      2.56708e+9 
           2715      2.53777e+9 
           2725      2.48392e+9 
           2735      2.47999e+9 
           2745      2.44516e+9 
           2755      2.41994e+9 
           2765      2.37044e+9 
           2775      2.36983e+9 
           2785       2.3422e+9 
           2795      2.28979e+9 
           2805      2.28048e+9 
           2815      2.26497e+9 
           2825      2.20955e+9 
           2835      2.18358e+9 
           2845      2.18962e+9 
           2855      2.16502e+9 
           2865       2.1419e+9 
           2875      2.11814e+9 
           2885      2.09515e+9 
           2895      2.07212e+9 
           2910      2.03786e+9 
           2930      1.99351e+9 
           2950      1.93202e+9 
           2970      1.90989e+9 
           2990       1.8685e+9 
           3010      1.82907e+9 
           3030      1.79204e+9 
           3050      1.75476e+9 
           3070      1.71854e+9 
           3090      1.68118e+9 
           3110      1.64856e+9 
           3130      1.61633e+9 
           3150      1.58392e+9 
           3170      1.55155e+9 
           3190      1.50424e+9 
           3210       1.4899e+9 
           3230      1.45988e+9 
           3250      1.43088e+9 
           3270      1.40465e+9 
           3290      1.37496e+9 
           3310      1.35076e+9 
           3330       1.3247e+9 
           3350      1.29661e+9 
           3370      1.27453e+9 
           3390      1.25042e+9 
           3410      1.22685e+9 
           3430      1.19808e+9 
           3450      1.17103e+9 
           3470      1.15294e+9 
           3490      1.13169e+9 
           3510      1.11241e+9 
           3530      1.09346e+9 
           3550      1.07448e+9 
           3570      1.06292e+9 
           3590      1.03424e+9 
           3610      1.02068e+9 
           3630       9.9811e+8 
           3640      9.98463e+8 
           3650      9.80755e+8 
           3670      9.68053e+8 
           3690      9.51694e+8 
           3710      9.20276e+8 
           3730      8.86876e+8 
           3750      8.80201e+8 
           3770      8.58243e+8 
           3790      8.98804e+8 
           3810      9.40597e+8 
           3830      8.13355e+8 
           3850      9.76841e+8 
           3870       1.0043e+9 
           3890      7.61744e+8 
           3910      9.90855e+8 
           3930      9.93406e+8 
           3950      9.61472e+8 
           3970      7.08861e+8 
           3990      9.16474e+8 
           4010      9.29471e+8 
           4030      8.59285e+8 
           4050      9.13659e+8 
           4070      8.88782e+8 
           4090      7.83947e+8 
           4110      6.75107e+8 
           4130      8.28403e+8 
           4150      8.28619e+8 
           4170      8.25174e+8 
           4190      8.15148e+8 
           4210      8.02023e+8 
           4230      7.88309e+8 
           4250      7.74504e+8 
           4270      7.57554e+8 
           4290      7.45431e+8 
           4310      7.24008e+8 
           4330      6.27678e+8 
           4350      5.69121e+8 
           4370      6.84832e+8 
           4390      6.58237e+8 
           4410      6.75971e+8 
           4430      6.63796e+8 
           4450      6.55712e+8 
           4470      6.02985e+8 
           4490      6.33728e+8 
           4510      6.26453e+8 
           4530      6.16436e+8 
           4550      6.06589e+8 
           4570      5.96998e+8 
           4590      5.87783e+8 
           4610      5.78617e+8 
           4630      5.69622e+8 
           4650      5.59872e+8 
           4670      5.52236e+8 
           4690       5.4382e+8 
           4710      5.26593e+8 
           4730      5.27067e+8 
           4750       5.1873e+8 
           4770      5.11873e+8 
           4790      5.03043e+8 
           4810      4.93804e+8 
           4830       4.8055e+8 
           4850      4.27139e+8 
           4870      3.78589e+8 
           4890      4.55738e+8 
           4910      4.56502e+8 
           4930      4.36763e+8 
           4950      4.47186e+8 
           4970       4.4123e+8 
           4990      4.34826e+8 
           5010      4.21275e+8 
           5030      4.22279e+8 
           5050      4.13017e+8 
           5070      4.10484e+8 
           5090      4.04661e+8 
           5110      3.98932e+8 
           5130      3.93222e+8 
           5150      3.87674e+8 
           5170      3.82369e+8 
           5190      3.77064e+8 
           5210      3.71732e+8 
           5230      3.66677e+8 
           5250      3.61619e+8 
           5270      3.56642e+8 
           5290      3.51769e+8 
           5310      3.46973e+8 
           5330      3.42252e+8 
           5350      3.37579e+8 
           5370       3.3307e+8 
           5390      3.28593e+8 
           5410      3.24186e+8 
           5430      3.19822e+8 
           5450      3.15576e+8 
           5470      3.11397e+8 
           5490      3.07295e+8 
           5510      3.03244e+8 
           5530      2.99268e+8 
           5550      2.95354e+8 
           5570      2.91488e+8 
           5590      2.87706e+8 
           5610      2.83971e+8 
           5630      2.80316e+8 
           5650      2.76648e+8 
           5670      2.73059e+8 
           5690      2.69514e+8 
           5710      2.66208e+8 
           5730      2.62827e+8 
           5750      2.59475e+8 
           5770      2.56242e+8 
           5790      2.53014e+8 
           5810      2.49835e+8 
           5830      2.46705e+8 
           5850      2.43634e+8 
           5870      2.30901e+8 
           5890      2.36612e+8 
           5910        2.347e+8 
           5930      2.31791e+8 
           5950      2.28937e+8 
           5970      2.26169e+8 
           5990      2.23391e+8 
           6010      2.20697e+8 
           6030      2.18013e+8 
           6050       2.1539e+8 
           6070      2.12797e+8 
           6090      2.10244e+8 
           6110      2.07729e+8 
           6130      2.05253e+8 
           6150      2.02775e+8 
           6170      2.00404e+8 
           6190      1.98029e+8 
           6210      1.95701e+8 
           6230      1.93398e+8 
           6250       1.9113e+8 
           6270      1.88907e+8 
           6290      1.86707e+8 
           6310      1.84532e+8 
           6330        1.824e+8 
           6350      1.80253e+8 
           6370      1.78203e+8 
           6390      1.76176e+8 
           6410      1.74153e+8 
           6430      1.72178e+8 
           6450      1.70215e+8 
           6470      1.68256e+8 
           6490      1.66192e+8 
           6510      1.63865e+8 
           6530      1.60813e+8 
           6550      1.50341e+8 
           6570      1.32181e+8 
           6590      1.53535e+8 
           6610       1.5459e+8 
           6630      1.53394e+8 
           6650      1.52166e+8 
           6670      1.48282e+8 
           6690      1.46732e+8 
           6710      1.47231e+8 
           6730      1.45608e+8 
           6750      1.44036e+8 
           6770      1.42471e+8 
           6790      1.40873e+8 
           6810      1.39389e+8 
           6830      1.37895e+8 
           6850      1.36409e+8 
           6870      1.34953e+8 
           6890      1.33504e+8 
           6910      1.32078e+8 
           6930      1.30673e+8 
           6950       1.2929e+8 
           6970      1.27921e+8 
           6990      1.26573e+8 
           7010      1.25239e+8 
           7030      1.23925e+8 
           7050      1.22624e+8 
           7070       1.1906e+8 
           7090      1.20083e+8 
           7110      1.18834e+8 
           7130      1.17605e+8 
           7150      1.16388e+8 
           7170      1.15176e+8 
           7190      1.14004e+8 
           7210      1.12836e+8 
           7230       1.1142e+8 
           7250      1.10541e+8 
           7270       1.0942e+8 
           7290      1.07282e+8 
           7310      1.07204e+8 
           7330      1.06136e+8 
           7350      1.05064e+8 
           7370      1.04009e+8 
           7390      1.02971e+8 
           7410      1.01942e+8 
           7430      1.00923e+8 
           7450       9.9934e+7 
           7470      9.89405e+7 
           7490      9.79629e+7 
           7510      9.69609e+7 
           7530      9.60412e+7 
           7550      9.51035e+7 
           7570      9.41677e+7 
           7590      9.32536e+7 
           7610      9.23412e+7 
           7630      9.14436e+7 
           7650      9.05605e+7 
           7670      8.96854e+7 
           7690      8.88182e+7 
           7710      8.79587e+7 
           7730      8.71196e+7 
           7750      8.62816e+7 
           7770      8.54324e+7 
           7790      8.46466e+7 
           7810      8.37937e+7 
           7830      8.30466e+7 
           7850      8.23428e+7 
           7870      8.15659e+7 
           7890      8.07414e+7 
           7910      8.00446e+7 
           7930      7.92939e+7 
           7950      7.85378e+7 
           7970      7.76815e+7 
           7990      7.69391e+7 
           8010      7.61972e+7 
           8030      7.54792e+7 
           8050      7.47733e+7 
           8070      7.40907e+7 
           8090      7.33392e+7 
           8110      7.27087e+7 
           8130      7.21006e+7 
           8150      7.14069e+7 
           8170      7.08094e+7 
           8190      7.00989e+7 
           8210      6.93162e+7 
           8230      6.88518e+7 
           8250      6.82527e+7 
           8270      6.73391e+7 
           8290      6.70091e+7 
           8310      6.64469e+7 
           8330      6.58079e+7 
           8350      6.49149e+7 
           8370       6.4562e+7 
           8390      6.40887e+7 
           8410      6.35232e+7 
           8430        6.292e+7 
           8450      6.19208e+7 
           8470       6.1823e+7 
           8490      6.11296e+7 
           8510      6.07021e+7 
           8530      6.00243e+7 
           8550      5.94037e+7 
           8570      5.92858e+7 
           8590      5.75447e+7 
