# Kurucz ODFNEW /NOVER (2003)
# teff = 26000 K (value for the effective temperature for the model. Temperatures are given in K)
# logg = 4.5 log(cm/s2) (value for Log(G) for the model.)
# meta = 0  (value for the Metallicity for the model.)
# lh = 1.25  (l/Hp where l is the  mixing length of the convective element and Hp is the pressure scale height)
# vtur = 2 km/s (Microturbulence velocity)
# alpha = 0.4  (Alpha)
#
# column 1: WAVELENGTH (ANGSTROM), Wavelength in Angstrom
# column 2: FLUX (ERG/CM2/S/A), Flux in erg/cm2/s/A
          147.2        6.05e-13 
            151     2.33248e-12 
          155.2     9.64039e-12 
          158.8     3.07793e-11 
            162     8.30487e-11 
            166     2.73209e-10 
          170.3     9.24479e-10 
          173.4      2.16245e-9 
          176.8      5.30392e-9 
          180.2      1.26296e-8 
          181.7      1.83168e-8 
          186.1      5.29613e-8 
            191       1.6405e-7 
          193.9      3.12318e-7 
          198.4      8.19448e-7 
          201.8      1.65417e-6 
            205       3.1414e-6 
          210.5      9.07342e-6 
          216.2      2.58184e-5 
          219.8      4.86803e-5 
            223       8.4173e-5 
          226.8     0.000158621 
            230      0.00715501 
            234       0.0158746 
            240       0.0357193 
          246.5       0.0824918 
          252.4        0.172062 
          256.8        0.278173 
            260        0.430815 
            264        0.653395 
          268.5         1.07398 
          273.5         1.80115 
          278.5         2.97086 
            284         5.47046 
            290         9.42899 
            296         16.0171 
            301         24.3628 
            308         45.2128 
            318         102.822 
            328         205.607 
            338         422.652 
            348         803.673 
            357         3330.14 
            366         6518.72 
            375         9780.36 
            385         16159.8 
            395         29102.5 
            405         43420.6 
            414         64232.3 
            422         85183.2 
            430          117442 
            441          172317 
            451          237483 
            460          307900 
            470          422588 
            480          560663 
            490          748438 
            500          974885 
            506      4.57927e+6 
            512      2.89232e+7 
            520      3.20053e+7 
            530      3.76984e+7 
            540      3.86471e+7 
            550      5.47098e+7 
            560      6.36668e+7 
            570      7.46652e+7 
            580      7.15741e+7 
            590      9.23425e+7 
            600      9.98574e+7 
            610      1.15793e+8 
            620      1.24809e+8 
            630      1.31509e+8 
            640      1.22823e+8 
            650      1.07856e+8 
            658       1.4263e+8 
            665      1.67943e+8 
            675      1.77738e+8 
            685      1.82911e+8 
            695       2.3257e+8 
            705      2.34425e+8 
            716      2.65335e+8 
            726      2.72571e+8 
            735      2.85867e+8 
            745      3.20918e+8 
            755      3.39511e+8 
            765      3.63079e+8 
            775       3.8658e+8 
            785      4.11787e+8 
            795      4.22707e+8 
            805      4.39623e+8 
            815      4.52041e+8 
            825      4.88192e+8 
            835      4.32667e+8 
            845      5.04678e+8 
            855       5.1756e+8 
            865      5.48359e+8 
            875      5.77574e+8 
            885      6.19381e+8 
            895      6.45452e+8 
            905       6.4065e+8 
            915      8.10718e+8 
            925      4.13496e+9 
            935     1.03091e+10 
            945     2.31853e+10 
            955     3.10256e+10 
            965       3.878e+10 
            975       7.0299e+9 
            985     3.51469e+10 
            995     3.23351e+10 
           1005     3.71062e+10 
           1015     3.68237e+10 
           1025     1.55916e+10 
           1035     2.92525e+10 
           1045     4.44406e+10 
           1055     4.09756e+10 
           1065     3.14005e+10 
           1075     3.67398e+10 
           1085     3.35248e+10 
           1095     3.74648e+10 
           1105     3.26523e+10 
           1115     3.05602e+10 
           1125     2.38157e+10 
           1135     3.31189e+10 
           1145     2.88274e+10 
           1155     3.00644e+10 
           1165     3.02028e+10 
           1175     1.85226e+10 
           1185     2.84192e+10 
           1195     2.50959e+10 
           1205     1.52521e+10 
           1215     1.12928e+10 
           1225     2.20511e+10 
           1235     2.66068e+10 
           1245     2.61397e+10 
           1255      2.5567e+10 
           1265       2.584e+10 
           1275     2.65208e+10 
           1285     2.61165e+10 
           1295     1.68966e+10 
           1305     1.81642e+10 
           1315     2.50452e+10 
           1325      2.3233e+10 
           1335     2.25819e+10 
           1345     2.22911e+10 
           1355     2.23613e+10 
           1365     2.01232e+10 
           1375     1.94671e+10 
           1385     1.88602e+10 
           1395     1.24149e+10 
           1405     1.40547e+10 
           1415     1.68386e+10 
           1425     1.65441e+10 
           1435      1.7116e+10 
           1442     1.76767e+10 
           1447     1.73351e+10 
           1455     1.67234e+10 
           1465     1.54448e+10 
           1475      1.5651e+10 
           1485     1.52802e+10 
           1495      1.4983e+10 
           1505     1.33893e+10 
           1512     1.21803e+10 
           1517     1.25598e+10 
           1525     1.29453e+10 
           1535      1.0979e+10 
           1545     1.06937e+10 
           1555     1.03238e+10 
           1565     1.11157e+10 
           1575      1.1795e+10 
           1585     1.16635e+10 
           1595     1.16578e+10 
           1605     1.17225e+10 
           1615     1.13906e+10 
           1625     1.11989e+10 
           1635      1.1775e+10 
           1645     1.17169e+10 
           1655      1.1507e+10 
           1665     1.16437e+10 
           1672     1.11281e+10 
           1677     1.20829e+10 
           1685     1.16944e+10 
           1695     1.10596e+10 
           1705     1.06584e+10 
           1715     1.01137e+10 
           1725       9.8695e+9 
           1735     1.02346e+10 
           1745     1.00437e+10 
           1755     1.00361e+10 
           1765      9.84082e+9 
           1775      9.23605e+9 
           1785      9.32925e+9 
           1795        9.625e+9 
           1805      9.65544e+9 
           1815      8.67425e+9 
           1825      8.99999e+9 
           1835      8.65435e+9 
           1845      7.87308e+9 
           1855      7.97246e+9 
           1865      8.06472e+9 
           1875      8.32847e+9 
           1885      7.45343e+9 
           1895       6.9354e+9 
           1905      7.48907e+9 
           1915      7.05181e+9 
           1925      6.68351e+9 
           1935      7.07653e+9 
           1945      7.20372e+9 
           1955        6.505e+9 
           1967      7.03647e+9 
           1976      7.37283e+9 
           1984      6.77964e+9 
           1995      6.67422e+9 
           2005      6.87236e+9 
           2015        6.775e+9 
           2025      6.95033e+9 
           2035      6.35738e+9 
           2045       6.4558e+9 
           2055      6.18205e+9 
           2065      6.20502e+9 
           2074      6.40422e+9 
           2078      5.89503e+9 
           2085      6.16324e+9 
           2095       5.8358e+9 
           2105       6.0511e+9 
           2115       6.0571e+9 
           2125      6.10317e+9 
           2135      5.97415e+9 
           2145      5.67466e+9 
           2155      5.89452e+9 
           2165      5.84919e+9 
           2175      5.75261e+9 
           2185      5.58558e+9 
           2195      5.62824e+9 
           2205      5.59388e+9 
           2215      5.49949e+9 
           2225      5.34607e+9 
           2235      5.26854e+9 
           2245      5.30139e+9 
           2255      5.12876e+9 
           2265      5.17866e+9 
           2275      5.09641e+9 
           2285      5.06366e+9 
           2295      4.66979e+9 
           2305      4.88867e+9 
           2315      4.75858e+9 
           2325      4.70422e+9 
           2335       4.5565e+9 
           2345      4.58499e+9 
           2355      4.56013e+9 
           2365      4.50703e+9 
           2375      4.41259e+9 
           2385       4.3799e+9 
           2395      4.32843e+9 
           2405        4.249e+9 
           2415      4.19489e+9 
           2425      4.19009e+9 
           2435      4.06667e+9 
           2445      4.06158e+9 
           2455      4.04956e+9 
           2465      3.98732e+9 
           2475      3.92355e+9 
           2485      3.84811e+9 
           2495      3.31648e+9 
           2505      3.72201e+9 
           2513      3.58095e+9 
           2518      3.68564e+9 
           2525       3.6582e+9 
           2535      3.62295e+9 
           2545       3.4671e+9 
           2555      3.52363e+9 
           2565      3.46254e+9 
           2575      3.47933e+9 
           2585      3.43634e+9 
           2595      3.40336e+9 
           2605      3.37318e+9 
           2615      3.32682e+9 
           2625      3.29945e+9 
           2635      3.26425e+9 
           2645      3.22782e+9 
           2655      3.20045e+9 
           2665      3.08588e+9 
           2675      3.09439e+9 
           2685      3.08408e+9 
           2695      2.97778e+9 
           2705      2.93793e+9 
           2715       2.9311e+9 
           2725      2.90303e+9 
           2735      2.88648e+9 
           2745      2.81454e+9 
           2755      2.80466e+9 
           2765      2.76845e+9 
           2775       2.7862e+9 
           2785      2.73747e+9 
           2795      2.62721e+9 
           2805      2.65931e+9 
           2815       2.6627e+9 
           2825      2.61575e+9 
           2835      2.52815e+9 
           2845      2.56365e+9 
           2855      2.51956e+9 
           2865      2.51119e+9 
           2875      2.48076e+9 
           2885      2.45503e+9 
           2895      2.41873e+9 
           2910      2.36365e+9 
           2930      2.33022e+9 
           2950      2.26189e+9 
           2970      2.23196e+9 
           2990      2.17654e+9 
           3010      2.10197e+9 
           3030      2.08638e+9 
           3050      2.05198e+9 
           3070      2.01969e+9 
           3090      1.93642e+9 
           3110      1.92897e+9 
           3130      1.87967e+9 
           3150       1.8495e+9 
           3170      1.80393e+9 
           3190      1.76113e+9 
           3210      1.74133e+9 
           3230      1.69842e+9 
           3250       1.6727e+9 
           3270      1.63609e+9 
           3290      1.60272e+9 
           3310      1.57426e+9 
           3330      1.54046e+9 
           3350      1.51239e+9 
           3370      1.48116e+9 
           3390      1.45836e+9 
           3410      1.43106e+9 
           3430      1.39966e+9 
           3450      1.36787e+9 
           3470       1.3433e+9 
           3490      1.31644e+9 
           3510      1.29564e+9 
           3530      1.27725e+9 
           3550       1.2528e+9 
           3570      1.23605e+9 
           3590       1.1987e+9 
           3610      1.18155e+9 
           3630      1.16062e+9 
           3640      1.16056e+9 
           3650      1.14293e+9 
           3670      1.13025e+9 
           3690      1.10998e+9 
           3710      1.06715e+9 
           3730      1.02527e+9 
           3750      1.03944e+9 
           3770      1.02141e+9 
           3790      1.06894e+9 
           3810      1.10885e+9 
           3830      9.71377e+8 
           3850      1.12613e+9 
           3870      1.12705e+9 
           3890      9.14979e+8 
           3910      1.12594e+9 
           3930      1.09336e+9 
           3950       1.0787e+9 
           3970      8.50509e+8 
           3990      1.03877e+9 
           4010      1.04153e+9 
           4030      9.77471e+8 
           4050      1.00918e+9 
           4070      9.58329e+8 
           4090      8.86057e+8 
           4110      7.87933e+8 
           4130      9.13348e+8 
           4150      9.10757e+8 
           4170      9.09321e+8 
           4190      8.97914e+8 
           4210      8.90933e+8 
           4230      8.70443e+8 
           4250       8.4452e+8 
           4270      8.19664e+8 
           4290      8.09808e+8 
           4310      7.84849e+8 
           4330      7.15908e+8 
           4350       6.5473e+8 
           4370      7.46992e+8 
           4390      7.36624e+8 
           4410      7.37668e+8 
           4430      7.32135e+8 
           4450      7.19538e+8 
           4470      6.79987e+8 
           4490      6.95264e+8 
           4510      6.92982e+8 
           4530      6.81039e+8 
           4550      6.70861e+8 
           4570      6.59068e+8 
           4590       6.4765e+8 
           4610       6.3302e+8 
           4630      6.24628e+8 
           4650      6.04753e+8 
           4670      6.05354e+8 
           4690       6.0063e+8 
           4710      5.74296e+8 
           4730       5.7999e+8 
           4750      5.70191e+8 
           4770      5.69658e+8 
           4790      5.59476e+8 
           4810      5.45812e+8 
           4830       5.3376e+8 
           4850       4.9394e+8 
           4870      4.41746e+8 
           4890      5.11762e+8 
           4910      5.07976e+8 
           4930      4.88766e+8 
           4950       4.9265e+8 
           4970      4.90356e+8 
           4990      4.82242e+8 
           5010      4.61919e+8 
           5030      4.67232e+8 
           5050      4.55251e+8 
           5070      4.55507e+8 
           5090      4.47514e+8 
           5110      4.40483e+8 
           5130      4.31973e+8 
           5150      4.26721e+8 
           5170      4.22792e+8 
           5190      4.17441e+8 
           5210      4.09385e+8 
           5230      4.06136e+8 
           5250      4.00683e+8 
           5270       3.9427e+8 
           5290       3.8976e+8 
           5310       3.8413e+8 
           5330      3.78667e+8 
           5350      3.72695e+8 
           5370      3.69049e+8 
           5390      3.63618e+8 
           5410      3.59017e+8 
           5430      3.53477e+8 
           5450      3.48566e+8 
           5470      3.43881e+8 
           5490       3.3998e+8 
           5510      3.35916e+8 
           5530      3.30879e+8 
           5550      3.27153e+8 
           5570       3.2261e+8 
           5590      3.18775e+8 
           5610      3.14136e+8 
           5630      3.10589e+8 
           5650      3.04582e+8 
           5670      2.99788e+8 
           5690      2.95753e+8 
           5710       2.9365e+8 
           5730      2.90537e+8 
           5750      2.85841e+8 
           5770       2.8366e+8 
           5790      2.79905e+8 
           5810      2.76319e+8 
           5830      2.72431e+8 
           5850      2.69328e+8 
           5870      2.57601e+8 
           5890      2.60307e+8 
           5910      2.58634e+8 
           5930      2.55328e+8 
           5950       2.5171e+8 
           5970      2.50185e+8 
           5990      2.46081e+8 
           6010      2.43914e+8 
           6030      2.40568e+8 
           6050      2.37859e+8 
           6070       2.3521e+8 
           6090      2.32327e+8 
           6110      2.29587e+8 
           6130      2.26969e+8 
           6150      2.23005e+8 
           6170      2.20987e+8 
           6190      2.18814e+8 
           6210      2.16342e+8 
           6230      2.13859e+8 
           6250      2.10824e+8 
           6270      2.08571e+8 
           6290      2.06294e+8 
           6310      2.03607e+8 
           6330       2.0158e+8 
           6350      1.98285e+8 
           6370      1.96577e+8 
           6390      1.94472e+8 
           6410      1.92224e+8 
           6430      1.90292e+8 
           6450      1.87991e+8 
           6470      1.85175e+8 
           6490      1.83302e+8 
           6510      1.81253e+8 
           6530      1.78156e+8 
           6550      1.69975e+8 
           6570      1.50029e+8 
           6590       1.7039e+8 
           6610      1.70938e+8 
           6630      1.69652e+8 
           6650      1.67662e+8 
           6670      1.64176e+8 
           6690      1.62481e+8 
           6710      1.62426e+8 
           6730      1.60256e+8 
           6750      1.58985e+8 
           6770       1.5725e+8 
           6790      1.54404e+8 
           6810      1.53613e+8 
           6830       1.5181e+8 
           6850      1.50459e+8 
           6870      1.48826e+8 
           6890      1.47043e+8 
           6910      1.45285e+8 
           6930      1.44048e+8 
           6950      1.42604e+8 
           6970      1.41096e+8 
           6990      1.39558e+8 
           7010      1.38057e+8 
           7030      1.36587e+8 
           7050      1.35176e+8 
           7070      1.31466e+8 
           7090      1.32366e+8 
           7110      1.30415e+8 
           7130      1.29114e+8 
           7150      1.28186e+8 
           7170      1.26923e+8 
           7190      1.25656e+8 
           7210      1.24366e+8 
           7230       1.2138e+8 
           7250       1.2155e+8 
           7270      1.20561e+8 
           7290      1.18313e+8 
           7310      1.18096e+8 
           7330      1.16885e+8 
           7350      1.15733e+8 
           7370      1.14579e+8 
           7390      1.13428e+8 
           7410      1.12289e+8 
           7430      1.11057e+8 
           7450      1.10014e+8 
           7470      1.08318e+8 
           7490      1.07761e+8 
           7510      1.06726e+8 
           7530      1.05622e+8 
           7550      1.04693e+8 
           7570      1.03674e+8 
           7590      1.02618e+8 
           7610      1.01468e+8 
           7630      1.00626e+8 
           7650      9.96436e+7 
           7670      9.86892e+7 
           7690      9.77306e+7 
           7710      9.67743e+7 
           7730       9.5795e+7 
           7750      9.49311e+7 
           7770       9.3376e+7 
           7790      9.31206e+7 
           7810      9.21811e+7 
           7830      9.13482e+7 
           7850      9.04004e+7 
           7870      8.94549e+7 
           7890      8.83726e+7 
           7910      8.79202e+7 
           7930      8.70879e+7 
           7950      8.60721e+7 
           7970      8.53204e+7 
           7990      8.42978e+7 
           8010      8.37306e+7 
           8030      8.29401e+7 
           8050       8.2168e+7 
           8070      8.14778e+7 
           8090      8.06034e+7 
           8110      7.95019e+7 
           8130       7.9248e+7 
           8150      7.84852e+7 
           8170        7.787e+7 
           8190        7.676e+7 
           8210      7.60902e+7 
           8230      7.53371e+7 
           8250      7.50332e+7 
           8270      7.35966e+7 
           8290      7.35982e+7 
           8310      7.30043e+7 
           8330      7.23556e+7 
           8350      7.13394e+7 
           8370      7.08644e+7 
           8390      7.04199e+7 
           8410      6.97551e+7 
           8430      6.91224e+7 
           8450      6.77931e+7 
           8470      6.78829e+7 
           8490      6.70826e+7 
           8510      6.65284e+7 
           8530      6.59372e+7 
           8550      6.49179e+7 
           8570      6.52923e+7 
