# Kurucz ODFNEW /NOVER (2003)
# teff = 23000 K (value for the effective temperature for the model. Temperatures are given in K)
# logg = 4 log(cm/s2) (value for Log(G) for the model.)
# meta = 0.2  (value for the Metallicity for the model.)
# lh = 1.25  (l/Hp where l is the  mixing length of the convective element and Hp is the pressure scale height)
# vtur = 2 km/s (Microturbulence velocity)
# alpha = 0  (Alpha)
#
# column 1: WAVELENGTH (ANGSTROM), Wavelength in Angstrom
# column 2: FLUX (ERG/CM2/S/A), Flux in erg/cm2/s/A
          147.2       2.246e-16 
            151     1.05785e-15 
          155.2     5.39811e-15 
          158.8     2.04742e-14 
            162      6.3994e-14 
            166     2.51103e-13 
          170.3     1.01921e-12 
          173.4     2.69809e-12 
          176.8     7.55839e-12 
          180.2     2.04259e-11 
          181.7     3.13001e-11 
          186.1     1.05738e-10 
            191     3.86147e-10 
          193.9     8.07303e-10 
          198.4      2.43652e-9 
          201.8      5.44549e-9 
            205      1.13454e-8 
          210.5      3.81676e-8 
          216.2      1.26158e-7 
          219.8      2.60417e-7 
            223      4.86758e-7 
          226.8      1.00089e-6 
            230      4.31829e-5 
            234     0.000102432 
            240     0.000260695 
          246.5     0.000682006 
          252.4      0.00158449 
          256.8      0.00277402 
            260      0.00454015 
            264      0.00750367 
          268.5       0.0130479 
          273.5       0.0235096 
          278.5       0.0418888 
            284       0.0800251 
            290        0.150033 
            296         0.27528 
            301        0.445293 
            308        0.870261 
            318         2.18876 
            328         4.89611 
            338         10.9787 
            348         22.8223 
            357         59.8604 
            366          111.81 
            375         186.346 
            385         330.739 
            395         584.851 
            405         965.176 
            414         1509.74 
            422         2178.71 
            430         3183.15 
            441         5100.58 
            451         7578.63 
            460         10623.6 
            470         15585.1 
            480         22172.1 
            490         31432.8 
            500         43524.3 
            506          246576 
            512      2.48792e+6 
            520      2.95797e+6 
            530      3.71056e+6 
            540      4.15772e+6 
            550      6.09206e+6 
            560      7.22729e+6 
            570      8.99849e+6 
            580      8.82257e+6 
            590      1.18592e+7 
            600      1.38438e+7 
            610      1.66901e+7 
            620      1.84709e+7 
            630      2.01349e+7 
            640      1.90213e+7 
            650      1.38806e+7 
            658      2.25691e+7 
            665      2.83213e+7 
            675      3.12802e+7 
            685      3.31796e+7 
            695      4.25667e+7 
            705      4.45299e+7 
            716      5.06905e+7 
            726      5.37323e+7 
            735      5.66023e+7 
            745      6.50728e+7 
            755      7.07427e+7 
            765      7.71709e+7 
            775      8.38354e+7 
            785      9.06327e+7 
            795        9.518e+7 
            805      1.00335e+8 
            815      1.05171e+8 
            825      1.15522e+8 
            835      1.07336e+8 
            845       1.2286e+8 
            855      1.27743e+8 
            865      1.37737e+8 
            875      1.48266e+8 
            885      1.61784e+8 
            895      1.70854e+8 
            905      1.69109e+8 
            915      2.57453e+8 
            925      1.80861e+9 
            935      4.87381e+9 
            945     1.08957e+10 
            955      1.5272e+10 
            965     1.75228e+10 
            975      2.38139e+9 
            985     1.41338e+10 
            995     1.49988e+10 
           1005     1.89912e+10 
           1015     1.89673e+10 
           1025      8.40467e+9 
           1035     1.34609e+10 
           1045     2.37579e+10 
           1055     2.17317e+10 
           1065     1.66163e+10 
           1075     2.00885e+10 
           1085     1.74338e+10 
           1095     2.03257e+10 
           1105     1.77473e+10 
           1115     1.64634e+10 
           1125      1.3249e+10 
           1135     1.85378e+10 
           1145     1.63729e+10 
           1155     1.71211e+10 
           1165     1.69836e+10 
           1175      9.52694e+9 
           1185     1.63532e+10 
           1195     1.40775e+10 
           1205      7.81985e+9 
           1215      6.42358e+9 
           1225     1.30053e+10 
           1235      1.6109e+10 
           1245     1.57038e+10 
           1255     1.53794e+10 
           1265     1.54468e+10 
           1275     1.60532e+10 
           1285     1.60304e+10 
           1295      9.90265e+9 
           1305     1.06051e+10 
           1315     1.53343e+10 
           1325     1.40909e+10 
           1335     1.31352e+10 
           1345     1.40623e+10 
           1355     1.36946e+10 
           1365     1.21156e+10 
           1375     1.18483e+10 
           1385     1.15818e+10 
           1395      8.34021e+9 
           1405      9.12842e+9 
           1415      9.96019e+9 
           1425     1.00495e+10 
           1435     1.03868e+10 
           1442     1.07162e+10 
           1447     1.04925e+10 
           1455     1.01413e+10 
           1465      9.14553e+9 
           1475      9.44289e+9 
           1485      9.29598e+9 
           1495      9.10866e+9 
           1505        8.104e+9 
           1512      7.09759e+9 
           1517      7.40022e+9 
           1525      7.76016e+9 
           1535      6.47814e+9 
           1545      6.33189e+9 
           1555      6.17951e+9 
           1565      6.68345e+9 
           1575      7.15727e+9 
           1585      7.24764e+9 
           1595      7.13602e+9 
           1605      7.34849e+9 
           1615      7.23755e+9 
           1625      7.00893e+9 
           1635       7.5372e+9 
           1645      7.50654e+9 
           1655      7.31638e+9 
           1665      7.62176e+9 
           1672      7.23264e+9 
           1677      7.81059e+9 
           1685      7.66801e+9 
           1695      7.15242e+9 
           1705      6.91352e+9 
           1715      6.46578e+9 
           1725      6.38457e+9 
           1735      6.75021e+9 
           1745      6.51458e+9 
           1755      6.62121e+9 
           1765      6.42353e+9 
           1775      6.04345e+9 
           1785      6.19088e+9 
           1795      6.48631e+9 
           1805      6.56554e+9 
           1815      5.67446e+9 
           1825      6.01003e+9 
           1835      5.74846e+9 
           1845      5.19471e+9 
           1855      5.15933e+9 
           1865      5.25178e+9 
           1875      5.68401e+9 
           1885      4.96121e+9 
           1895      4.58671e+9 
           1905      5.08285e+9 
           1915      4.66399e+9 
           1925      4.44029e+9 
           1935      4.77021e+9 
           1945      4.85055e+9 
           1955       4.3433e+9 
           1967      4.82064e+9 
           1976      5.01765e+9 
           1984      4.61932e+9 
           1995      4.52479e+9 
           2005      4.76813e+9 
           2015      4.63825e+9 
           2025      4.84685e+9 
           2035      4.34657e+9 
           2045      4.48658e+9 
           2055      4.32099e+9 
           2065      4.30592e+9 
           2074       4.5862e+9 
           2078      4.03454e+9 
           2085      4.33853e+9 
           2095      4.06958e+9 
           2105      4.21848e+9 
           2115       4.2453e+9 
           2125      4.28019e+9 
           2135      4.19299e+9 
           2145      3.95044e+9 
           2155      4.15804e+9 
           2165      4.14897e+9 
           2175      4.10039e+9 
           2185      3.91846e+9 
           2195      4.01295e+9 
           2205      3.98276e+9 
           2215      3.89405e+9 
           2225      3.77694e+9 
           2235      3.75951e+9 
           2245      3.79351e+9 
           2255      3.63407e+9 
           2265      3.72123e+9 
           2275      3.66472e+9 
           2285      3.68199e+9 
           2295      3.36959e+9 
           2305      3.53598e+9 
           2315      3.40469e+9 
           2325      3.36174e+9 
           2335      3.22204e+9 
           2345       3.2425e+9 
           2355      3.25367e+9 
           2365      3.20163e+9 
           2375      3.15356e+9 
           2385      3.11776e+9 
           2395       3.1191e+9 
           2405      3.02216e+9 
           2415      3.02567e+9 
           2425      3.03017e+9 
           2435      2.91784e+9 
           2445      2.94917e+9 
           2455       2.9585e+9 
           2465      2.88625e+9 
           2475      2.83967e+9 
           2485       2.8143e+9 
           2495      2.53288e+9 
           2505        2.743e+9 
           2513      2.59611e+9 
           2518      2.71742e+9 
           2525      2.65132e+9 
           2535      2.61392e+9 
           2545      2.51896e+9 
           2555      2.58314e+9 
           2565      2.54294e+9 
           2575      2.56646e+9 
           2585      2.53486e+9 
           2595        2.512e+9 
           2605      2.48998e+9 
           2615       2.4567e+9 
           2625      2.43775e+9 
           2635      2.42031e+9 
           2645      2.40878e+9 
           2655      2.40397e+9 
           2665      2.29664e+9 
           2675      2.32157e+9 
           2685      2.30901e+9 
           2695      2.22473e+9 
           2705      2.18721e+9 
           2715      2.18533e+9 
           2725      2.17541e+9 
           2735      2.17394e+9 
           2745      2.09248e+9 
           2755      2.09206e+9 
           2765       2.0774e+9 
           2775      2.10139e+9 
           2785      2.06515e+9 
           2795      1.98578e+9 
           2805      2.01163e+9 
           2815      2.01509e+9 
           2825      1.98452e+9 
           2835      1.89719e+9 
           2845      1.92395e+9 
           2855      1.89843e+9 
           2865      1.90824e+9 
           2875      1.88469e+9 
           2885       1.8645e+9 
           2895      1.83541e+9 
           2910       1.8047e+9 
           2930      1.77594e+9 
           2950      1.72176e+9 
           2970      1.70211e+9 
           2990      1.66328e+9 
           3010      1.61011e+9 
           3030      1.60763e+9 
           3050      1.57759e+9 
           3070      1.55102e+9 
           3090      1.49487e+9 
           3110      1.48416e+9 
           3130       1.4521e+9 
           3150      1.42795e+9 
           3170       1.3894e+9 
           3190      1.35919e+9 
           3210      1.34457e+9 
           3230      1.31537e+9 
           3250      1.29491e+9 
           3270      1.26778e+9 
           3290       1.2427e+9 
           3310      1.22195e+9 
           3330      1.19651e+9 
           3350      1.17452e+9 
           3370      1.15242e+9 
           3390      1.13434e+9 
           3410      1.11395e+9 
           3430      1.08755e+9 
           3450      1.06408e+9 
           3470      1.04679e+9 
           3490      1.02659e+9 
           3510      1.01068e+9 
           3530      9.97868e+8 
           3550      9.80079e+8 
           3570      9.67503e+8 
           3590      9.38016e+8 
           3610      9.22332e+8 
           3630      9.10567e+8 
           3640      9.10319e+8 
           3650      8.89729e+8 
           3670      8.80282e+8 
           3690      8.60999e+8 
           3710      8.29105e+8 
           3730      7.98278e+8 
           3750      8.46526e+8 
           3770       8.4605e+8 
           3790      8.89809e+8 
           3810      9.26609e+8 
           3830      8.08295e+8 
           3850       9.4197e+8 
           3870      9.37088e+8 
           3890      7.65454e+8 
           3910      9.35632e+8 
           3930        9.034e+8 
           3950      8.98018e+8 
           3970      7.11012e+8 
           3990      8.63775e+8 
           4010      8.61341e+8 
           4030      8.10132e+8 
           4050      8.34466e+8 
           4070      7.97539e+8 
           4090      7.45955e+8 
           4110       6.6099e+8 
           4130       7.5819e+8 
           4150      7.54334e+8 
           4170      7.50993e+8 
           4190      7.44463e+8 
           4210      7.37641e+8 
           4230      7.20934e+8 
           4250      7.02693e+8 
           4270      6.81311e+8 
           4290      6.76611e+8 
           4310      6.56332e+8 
           4330      6.01034e+8 
           4350      5.50207e+8 
           4370      6.22355e+8 
           4390      6.14958e+8 
           4410      6.15243e+8 
           4430      6.07627e+8 
           4450      6.00731e+8 
           4470      5.69763e+8 
           4490      5.80321e+8 
           4510      5.77464e+8 
           4530       5.6641e+8 
           4550       5.5933e+8 
           4570      5.49972e+8 
           4590      5.41255e+8 
           4610      5.28326e+8 
           4630      5.20152e+8 
           4650      5.07184e+8 
           4670      5.06563e+8 
           4690       5.0268e+8 
           4710      4.82254e+8 
           4730      4.82175e+8 
           4750      4.75101e+8 
           4770      4.75662e+8 
           4790      4.66706e+8 
           4810      4.56059e+8 
           4830      4.48221e+8 
           4850       4.1769e+8 
           4870      3.72252e+8 
           4890      4.29743e+8 
           4910      4.25827e+8 
           4930      4.10103e+8 
           4950      4.13438e+8 
           4970      4.10285e+8 
           4990      4.03205e+8 
           5010      3.84833e+8 
           5030      3.90698e+8 
           5050      3.80194e+8 
           5070      3.80908e+8 
           5090      3.74969e+8 
           5110       3.6849e+8 
           5130      3.59352e+8 
           5150      3.55856e+8 
           5170      3.54504e+8 
           5190      3.49917e+8 
           5210      3.42766e+8 
           5230      3.40012e+8 
           5250      3.35718e+8 
           5270      3.30272e+8 
           5290      3.26877e+8 
           5310      3.22001e+8 
           5330      3.17534e+8 
           5350      3.12453e+8 
           5370       3.0979e+8 
           5390      3.05446e+8 
           5410      3.01622e+8 
           5430      2.96759e+8 
           5450      2.92911e+8 
           5470      2.88947e+8 
           5490      2.85571e+8 
           5510      2.82372e+8 
           5530      2.78104e+8 
           5550      2.75259e+8 
           5570      2.71367e+8 
           5590       2.6832e+8 
           5610      2.64411e+8 
           5630      2.61573e+8 
           5650      2.55925e+8 
           5670      2.51849e+8 
           5690      2.48732e+8 
           5710      2.47385e+8 
           5730      2.44629e+8 
           5750      2.40993e+8 
           5770      2.39087e+8 
           5790      2.35922e+8 
           5810      2.33005e+8 
           5830      2.29625e+8 
           5850      2.27144e+8 
           5870      2.17585e+8 
           5890      2.19074e+8 
           5910      2.18144e+8 
           5930      2.15186e+8 
           5950      2.12124e+8 
           5970      2.11213e+8 
           5990      2.07621e+8 
           6010      2.05959e+8 
           6030      2.03083e+8 
           6050      2.00847e+8 
           6070      1.98748e+8 
           6090      1.96308e+8 
           6110      1.94036e+8 
           6130      1.91909e+8 
           6150      1.88292e+8 
           6170      1.86807e+8 
           6190      1.85041e+8 
           6210      1.83021e+8 
           6230      1.80916e+8 
           6250      1.78188e+8 
           6270      1.76459e+8 
           6290      1.74557e+8 
           6310      1.72364e+8 
           6330      1.70675e+8 
           6350      1.67808e+8 
           6370      1.66385e+8 
           6390       1.6468e+8 
           6410      1.62857e+8 
           6430      1.61253e+8 
           6450      1.59285e+8 
           6470      1.56943e+8 
           6490      1.55342e+8 
           6510      1.53767e+8 
           6530      1.51404e+8 
           6550      1.44984e+8 
           6570      1.27634e+8 
           6590      1.44479e+8 
           6610      1.45106e+8 
           6630      1.43949e+8 
           6650      1.42411e+8 
           6670      1.39492e+8 
           6690      1.38062e+8 
           6710      1.37918e+8 
           6730      1.36143e+8 
           6750      1.35007e+8 
           6770      1.33561e+8 
           6790       1.3074e+8 
           6810      1.30388e+8 
           6830       1.2906e+8 
           6850       1.2785e+8 
           6870      1.26508e+8 
           6890       1.2506e+8 
           6910      1.23675e+8 
           6930      1.22428e+8 
           6950      1.21241e+8 
           6970       1.1998e+8 
           6990      1.18693e+8 
           7010      1.17427e+8 
           7030      1.16211e+8 
           7050      1.14931e+8 
           7070      1.11794e+8 
           7090      1.12536e+8 
           7110      1.10473e+8 
           7130      1.09424e+8 
           7150      1.09034e+8 
           7170      1.08045e+8 
           7190      1.07001e+8 
           7210      1.05908e+8 
           7230      1.03009e+8 
           7250      1.03596e+8 
           7270      1.02699e+8 
           7290      1.00789e+8 
           7310      1.00619e+8 
           7330      9.96008e+7 
           7350      9.86481e+7 
           7370      9.76695e+7 
           7390      9.66863e+7 
           7410      9.57328e+7 
           7430      9.46926e+7 
           7450      9.38184e+7 
           7470       9.2574e+7 
           7490      9.19393e+7 
           7510      9.10094e+7 
           7530      9.00947e+7 
           7550      8.93206e+7 
           7570      8.84614e+7 
           7590      8.75773e+7 
           7610      8.66817e+7 
           7630      8.58849e+7 
           7650      8.50695e+7 
           7670       8.4255e+7 
           7690      8.34351e+7 
           7710      8.26352e+7 
           7730      8.18236e+7 
           7750      8.10756e+7 
           7770       7.9729e+7 
           7790      7.95498e+7 
           7810      7.87353e+7 
           7830      7.80571e+7 
           7850      7.72258e+7 
           7870      7.64871e+7 
           7890      7.55552e+7 
           7910      7.51133e+7 
           7930      7.43875e+7 
           7950      7.34891e+7 
           7970      7.29013e+7 
           7990      7.20529e+7 
           8010      7.15644e+7 
           8030      7.09045e+7 
           8050       7.0262e+7 
           8070      6.96828e+7 
           8090      6.89184e+7 
           8110      6.81952e+7 
           8130      6.78145e+7 
           8150      6.71247e+7 
           8170      6.66498e+7 
           8190      6.58192e+7 
           8210      6.50238e+7 
           8230      6.44189e+7 
           8250      6.41346e+7 
           8270      6.30261e+7 
           8290      6.29197e+7 
           8310      6.23935e+7 
           8330        6.185e+7 
           8350      6.09651e+7 
           8370      6.05827e+7 
           8390      6.01978e+7 
           8410      5.96349e+7 
           8430      5.90501e+7 
           8450      5.78898e+7 
           8470      5.79055e+7 
           8490       5.7356e+7 
           8510      5.66446e+7 
           8530      5.64828e+7 
           8550      5.49718e+7 
           8570      5.62287e+7 
           8590      5.37003e+7 
