# Kurucz ODFNEW /NOVER (2003)
# teff = 26000 K (value for the effective temperature for the model. Temperatures are given in K)
# logg = 5 log(cm/s2) (value for Log(G) for the model.)
# meta = -1  (value for the Metallicity for the model.)
# lh = 1.25  (l/Hp where l is the  mixing length of the convective element and Hp is the pressure scale height)
# vtur = 2 km/s (Microturbulence velocity)
# alpha = 0.4  (Alpha)
#
# column 1: WAVELENGTH (ANGSTROM), Wavelength in Angstrom
# column 2: FLUX (ERG/CM2/S/A), Flux in erg/cm2/s/A
          147.2     6.58621e-13 
            151     2.67433e-12 
          155.2     1.16664e-11 
          158.8     3.89122e-11 
            162     1.08946e-10 
            166     3.74556e-10 
          170.3       1.3295e-9 
          173.4      3.19726e-9 
          176.8      8.09592e-9 
          180.2      1.98388e-8 
          181.7      2.91651e-8 
          186.1      8.74033e-8 
            191      2.80577e-7 
          193.9      5.44905e-7 
          198.4      1.47141e-6 
          201.8      3.02988e-6 
            205      5.85511e-6 
          210.5      1.73706e-5 
          216.2      5.06455e-5 
          219.8      9.67946e-5 
            223     0.000169179 
          226.8     0.000321732 
            230      0.00991033 
            234       0.0224747 
            240       0.0514674 
          246.5        0.120405 
          252.4        0.253858 
          256.8        0.412324 
            260        0.620823 
            264        0.966742 
          268.5         1.57397 
          273.5         2.64131 
          278.5         4.36855 
            284         7.48452 
            290         12.9902 
            296         22.0149 
            301         33.5452 
            308         57.4601 
            318         128.974 
            328         260.339 
            338         517.061 
            348         970.723 
            357         1735.07 
            366         2929.05 
            375         4656.31 
            385         7740.46 
            395         12415.1 
            405         19385.1 
            414         28644.4 
            422         39152.9 
            430         53416.5 
            441         80432.3 
            451          115106 
            460          154630 
            470          213537 
            480          288973 
            490          387101 
            500          512819 
            506      2.85318e+6 
            512       1.0915e+7 
            520      1.28669e+7 
            530      1.64345e+7 
            540      1.73314e+7 
            550      2.30372e+7 
            560      2.59458e+7 
            570      3.05523e+7 
            580       3.0453e+7 
            590      3.80842e+7 
            600      4.32517e+7 
            610      4.95499e+7 
            620      5.43367e+7 
            630      6.05956e+7 
            640       6.3735e+7 
            650      7.10008e+7 
            658      7.85403e+7 
            665      8.38742e+7 
            675      8.91004e+7 
            685      9.55503e+7 
            695      1.10073e+8 
            705      1.16447e+8 
            716      1.29034e+8 
            726      1.37061e+8 
            735      1.46856e+8 
            745      1.60208e+8 
            755      1.71748e+8 
            765      1.83245e+8 
            775      1.96875e+8 
            785      2.10476e+8 
            795      2.20861e+8 
            805      2.34139e+8 
            815      2.46147e+8 
            825      2.62417e+8 
            835      2.65236e+8 
            845      2.86695e+8 
            855      3.00008e+8 
            865      3.17334e+8 
            875      3.34592e+8 
            885      3.52942e+8 
            895      3.68807e+8 
            905      3.77435e+8 
            915      4.62753e+8 
            925      1.87642e+9 
            935      4.79237e+9 
            945      1.5119e+10 
            955      2.4811e+10 
            965     3.46188e+10 
            975     1.00418e+10 
            985     4.27236e+10 
            995     4.07809e+10 
           1005     4.32967e+10 
           1015     3.69699e+10 
           1025      9.07629e+9 
           1035     3.05322e+10 
           1045     4.45924e+10 
           1055     4.32941e+10 
           1065     3.74662e+10 
           1075     4.03779e+10 
           1085     3.66897e+10 
           1095     3.97898e+10 
           1105     3.65769e+10 
           1115     3.58207e+10 
           1125     3.19243e+10 
           1135     3.53444e+10 
           1145     3.17067e+10 
           1155     3.30183e+10 
           1165     3.27287e+10 
           1175     2.58685e+10 
           1185     3.08015e+10 
           1195     2.76263e+10 
           1205     2.00426e+10 
           1215      6.97864e+9 
           1225     2.07532e+10 
           1235      2.6587e+10 
           1245     2.67352e+10 
           1255     2.61075e+10 
           1265     2.57764e+10 
           1275     2.59322e+10 
           1285     2.52769e+10 
           1295     2.10669e+10 
           1305     2.12226e+10 
           1315     2.36553e+10 
           1325     2.25335e+10 
           1335     2.16983e+10 
           1345      2.1456e+10 
           1355     2.15714e+10 
           1365     2.02839e+10 
           1375     1.99999e+10 
           1385     1.98084e+10 
           1395     1.70153e+10 
           1405     1.74677e+10 
           1415     1.83013e+10 
           1425     1.78246e+10 
           1435     1.77131e+10 
           1442     1.78646e+10 
           1447     1.75658e+10 
           1455     1.71895e+10 
           1465     1.66009e+10 
           1475     1.63294e+10 
           1485     1.59022e+10 
           1495     1.56165e+10 
           1505     1.46796e+10 
           1512     1.41902e+10 
           1517     1.43218e+10 
           1525      1.4197e+10 
           1535     1.31624e+10 
           1545     1.31508e+10 
           1555     1.25948e+10 
           1565     1.28715e+10 
           1575      1.2971e+10 
           1585     1.27138e+10 
           1595     1.26253e+10 
           1605     1.22164e+10 
           1615     1.19427e+10 
           1625      1.1874e+10 
           1635     1.18952e+10 
           1645     1.15572e+10 
           1655     1.14568e+10 
           1665      1.1382e+10 
           1672     1.10809e+10 
           1677     1.13232e+10 
           1685     1.11005e+10 
           1695     1.07737e+10 
           1705     1.04514e+10 
           1715     1.01126e+10 
           1725      9.93167e+9 
           1735      9.92026e+9 
           1745      9.73686e+9 
           1755      9.68615e+9 
           1765      9.29795e+9 
           1775      9.14243e+9 
           1785      9.05553e+9 
           1795      9.07464e+9 
           1805      8.98397e+9 
           1815      8.61341e+9 
           1825      8.60467e+9 
           1835      8.40933e+9 
           1845      7.88437e+9 
           1855       7.7836e+9 
           1865      7.81192e+9 
           1875      7.86319e+9 
           1885      7.34645e+9 
           1895      6.98387e+9 
           1905      7.25051e+9 
           1915      6.96676e+9 
           1925      6.75935e+9 
           1935      6.88848e+9 
           1945      6.93146e+9 
           1955      6.49682e+9 
           1967      6.67484e+9 
           1976      6.81081e+9 
           1984      6.46629e+9 
           1995      6.29087e+9 
           2005      6.34523e+9 
           2015      6.32323e+9 
           2025      6.34499e+9 
           2035      6.06082e+9 
           2045      5.99854e+9 
           2055      5.79435e+9 
           2065       5.8018e+9 
           2074       5.8803e+9 
           2078      5.67369e+9 
           2085      5.68315e+9 
           2095      5.49495e+9 
           2105      5.56504e+9 
           2115      5.51818e+9 
           2125      5.51993e+9 
           2135      5.40966e+9 
           2145      5.26665e+9 
           2155      5.27175e+9 
           2165      5.20982e+9 
           2175      5.12109e+9 
           2185      5.05578e+9 
           2195      5.00904e+9 
           2205      4.93566e+9 
           2215      4.87215e+9 
           2225      4.78287e+9 
           2235      4.71204e+9 
           2245      4.67553e+9 
           2255      4.59193e+9 
           2265      4.55331e+9 
           2275         4.49e+9 
           2285      4.43852e+9 
           2295        4.295e+9 
           2305      4.31219e+9 
           2315      4.23875e+9 
           2325      4.18759e+9 
           2335      4.10454e+9 
           2345      4.06378e+9 
           2355      4.03057e+9 
           2365      3.97311e+9 
           2375      3.91628e+9 
           2385      3.86397e+9 
           2395      3.81634e+9 
           2405      3.76643e+9 
           2415      3.71063e+9 
           2425      3.68509e+9 
           2435      3.62121e+9 
           2445      3.58288e+9 
           2455      3.54625e+9 
           2465      3.49975e+9 
           2475      3.45473e+9 
           2485      3.41094e+9 
           2495      3.26104e+9 
           2505      3.31833e+9 
           2513      3.23102e+9 
           2518      3.26044e+9 
           2525      3.23731e+9 
           2535      3.19804e+9 
           2545      3.12352e+9 
           2555      3.11522e+9 
           2565      3.07489e+9 
           2575      3.05332e+9 
           2585      3.01824e+9 
           2595      2.98177e+9 
           2605      2.96125e+9 
           2615      2.92851e+9 
           2625      2.89662e+9 
           2635      2.86073e+9 
           2645      2.83004e+9 
           2655      2.79406e+9 
           2665      2.74592e+9 
           2675      2.71501e+9 
           2685      2.70297e+9 
           2695      2.63922e+9 
           2705      2.63375e+9 
           2715      2.60488e+9 
           2725      2.55054e+9 
           2735      2.54647e+9 
           2745      2.50186e+9 
           2755      2.47995e+9 
           2765      2.43366e+9 
           2775      2.43572e+9 
           2785      2.40515e+9 
           2795      2.32605e+9 
           2805      2.33396e+9 
           2815      2.32754e+9 
           2825      2.27158e+9 
           2835      2.23271e+9 
           2845      2.24897e+9 
           2855      2.22261e+9 
           2865       2.2001e+9 
           2875      2.17561e+9 
           2885       2.1525e+9 
           2895       2.1284e+9 
           2910      2.09121e+9 
           2930      2.04437e+9 
           2950      1.98345e+9 
           2970      1.96101e+9 
           2990      1.91645e+9 
           3010      1.87519e+9 
           3030      1.83951e+9 
           3050      1.80162e+9 
           3070      1.76491e+9 
           3090      1.71933e+9 
           3110      1.69195e+9 
           3130      1.65783e+9 
           3150      1.62481e+9 
           3170      1.59143e+9 
           3190      1.54315e+9 
           3210      1.52869e+9 
           3230      1.49711e+9 
           3250      1.46801e+9 
           3270      1.44091e+9 
           3290      1.41039e+9 
           3310       1.3857e+9 
           3330       1.3587e+9 
           3350      1.33001e+9 
           3370      1.30697e+9 
           3390      1.28255e+9 
           3410      1.25841e+9 
           3430      1.22882e+9 
           3450      1.20104e+9 
           3470      1.18213e+9 
           3490      1.16015e+9 
           3510      1.14055e+9 
           3530      1.12119e+9 
           3550       1.1016e+9 
           3570      1.08955e+9 
           3590      1.05932e+9 
           3610      1.04554e+9 
           3630      1.02273e+9 
           3640      1.02337e+9 
           3650      1.00448e+9 
           3670      9.91827e+8 
           3690      9.75212e+8 
           3710       9.4272e+8 
           3730      9.08944e+8 
           3750      9.01606e+8 
           3770      8.78441e+8 
           3790      9.18658e+8 
           3810      9.59465e+8 
           3830      8.31897e+8 
           3850      9.94784e+8 
           3870      1.02098e+9 
           3890      7.79072e+8 
           3910      1.00872e+9 
           3930      1.00587e+9 
           3950      9.77915e+8 
           3970      7.24924e+8 
           3990      9.32707e+8 
           4010      9.46339e+8 
           4030       8.7543e+8 
           4050      9.29369e+8 
           4070      8.98584e+8 
           4090      7.96649e+8 
           4110       6.8918e+8 
           4130      8.39844e+8 
           4150       8.4159e+8 
           4170      8.38606e+8 
           4190      8.28045e+8 
           4210      8.16306e+8 
           4230      8.01826e+8 
           4250        7.861e+8 
           4270      7.66335e+8 
           4290      7.56198e+8 
           4310      7.33945e+8 
           4330       6.3875e+8 
           4350      5.79633e+8 
           4370      6.94754e+8 
           4390      6.69633e+8 
           4410      6.85463e+8 
           4430      6.74968e+8 
           4450      6.66118e+8 
           4470       6.1377e+8 
           4490      6.42511e+8 
           4510      6.37214e+8 
           4530      6.26827e+8 
           4550      6.16178e+8 
           4570      6.06143e+8 
           4590      5.96956e+8 
           4610       5.8764e+8 
           4630      5.78725e+8 
           4650      5.66196e+8 
           4670      5.60528e+8 
           4690      5.53068e+8 
           4710      5.33675e+8 
           4730      5.35267e+8 
           4750      5.26478e+8 
           4770      5.20863e+8 
           4790      5.11761e+8 
           4810       5.0175e+8 
           4830      4.88043e+8 
           4850      4.35323e+8 
           4870      3.86357e+8 
           4890       4.6371e+8 
           4910      4.64253e+8 
           4930      4.44157e+8 
           4950      4.54212e+8 
           4970      4.48856e+8 
           4990      4.42239e+8 
           5010      4.27699e+8 
           5030      4.29412e+8 
           5050      4.19177e+8 
           5070      4.17533e+8 
           5090      4.11481e+8 
           5110      4.05568e+8 
           5130      3.99606e+8 
           5150      3.93995e+8 
           5170      3.88782e+8 
           5190      3.83413e+8 
           5210      3.77519e+8 
           5230      3.72916e+8 
           5250       3.6777e+8 
           5270      3.62651e+8 
           5290      3.57746e+8 
           5310      3.52839e+8 
           5330      3.47968e+8 
           5350      3.43068e+8 
           5370      3.38714e+8 
           5390      3.34104e+8 
           5410      3.29618e+8 
           5430      3.25035e+8 
           5450      3.20751e+8 
           5470      3.16496e+8 
           5490      3.12419e+8 
           5510      3.08307e+8 
           5530      3.04233e+8 
           5550      3.00283e+8 
           5570      2.96333e+8 
           5590      2.92517e+8 
           5610      2.88639e+8 
           5630      2.84999e+8 
           5650      2.80955e+8 
           5670      2.77278e+8 
           5690      2.73691e+8 
           5710      2.70552e+8 
           5730      2.67164e+8 
           5750      2.63565e+8 
           5770      2.60485e+8 
           5790      2.57206e+8 
           5810      2.53953e+8 
           5830      2.50751e+8 
           5850      2.47641e+8 
           5870      2.34805e+8 
           5890      2.40293e+8 
           5910      2.38475e+8 
           5930      2.35552e+8 
           5950      2.32555e+8 
           5970       2.2989e+8 
           5990      2.26982e+8 
           6010      2.24316e+8 
           6030      2.21577e+8 
           6050       2.1892e+8 
           6070      2.16284e+8 
           6090      2.13667e+8 
           6110       2.1113e+8 
           6130      2.08612e+8 
           6150      2.05972e+8 
           6170       2.0364e+8 
           6190      2.01264e+8 
           6210      1.98895e+8 
           6230      1.96552e+8 
           6250      1.94197e+8 
           6270      1.91964e+8 
           6290      1.89726e+8 
           6310      1.87494e+8 
           6330      1.85352e+8 
           6350      1.82953e+8 
           6370      1.80989e+8 
           6390         1.79e+8 
           6410      1.76931e+8 
           6430      1.74957e+8 
           6450       1.7295e+8 
           6470      1.70902e+8 
           6490      1.68848e+8 
           6510      1.66497e+8 
           6530      1.63402e+8 
           6550      1.52905e+8 
           6570      1.34441e+8 
           6590      1.55851e+8 
           6610      1.57065e+8 
           6630      1.55853e+8 
           6650      1.54542e+8 
           6670       1.5067e+8 
           6690      1.49097e+8 
           6710      1.49565e+8 
           6730      1.47887e+8 
           6750      1.46334e+8 
           6770      1.44739e+8 
           6790      1.43006e+8 
           6810      1.41598e+8 
           6830      1.40059e+8 
           6850      1.38576e+8 
           6870      1.37092e+8 
           6890      1.35607e+8 
           6910      1.34153e+8 
           6930      1.32736e+8 
           6950      1.31342e+8 
           6970      1.29953e+8 
           6990       1.2857e+8 
           7010      1.27217e+8 
           7030      1.25877e+8 
           7050      1.24557e+8 
           7070      1.20959e+8 
           7090      1.21979e+8 
           7110      1.20705e+8 
           7130      1.19458e+8 
           7150      1.18216e+8 
           7170      1.16993e+8 
           7190      1.15804e+8 
           7210      1.14612e+8 
           7230      1.12861e+8 
           7250      1.12254e+8 
           7270      1.11138e+8 
           7290      1.08977e+8 
           7310      1.08882e+8 
           7330       1.0779e+8 
           7350      1.06709e+8 
           7370      1.05639e+8 
           7390      1.04578e+8 
           7410      1.03534e+8 
           7430      1.02486e+8 
           7450      1.01488e+8 
           7470      1.00433e+8 
           7490      9.94806e+7 
           7510      9.84705e+7 
           7530      9.75295e+7 
           7550      9.65773e+7 
           7570      9.56338e+7 
           7590      9.46988e+7 
           7610      9.37594e+7 
           7630      9.28608e+7 
           7650      9.19574e+7 
           7670      9.10687e+7 
           7690      9.01879e+7 
           7710      8.93213e+7 
           7730      8.84625e+7 
           7750      8.76113e+7 
           7770       8.6618e+7 
           7790      8.59503e+7 
           7810      8.50845e+7 
           7830      8.43248e+7 
           7850      8.35777e+7 
           7870      8.27764e+7 
           7890      8.19034e+7 
           7910      8.12669e+7 
           7930      8.05041e+7 
           7950      7.96942e+7 
           7970      7.88677e+7 
           7990      7.80839e+7 
           8010      7.73656e+7 
           8030       7.6636e+7 
           8050      7.59185e+7 
           8070      7.52245e+7 
           8090      7.44616e+7 
           8110      7.37855e+7 
           8130      7.32006e+7 
           8150      7.24958e+7 
           8170       7.1893e+7 
           8190      7.11548e+7 
           8210      7.03614e+7 
           8230      6.98697e+7 
           8250      6.92878e+7 
           8270      6.83306e+7 
           8290      6.80232e+7 
           8310      6.74507e+7 
           8330      6.68069e+7 
           8350      6.59037e+7 
           8370      6.55299e+7 
           8390      6.50573e+7 
           8410       6.4482e+7 
           8430      6.38689e+7 
           8450      6.28177e+7 
           8470      6.27629e+7 
           8490      6.20495e+7 
           8510      6.16177e+7 
           8530      6.09356e+7 
           8550      6.03056e+7 
           8570      6.01783e+7 
           8590       5.8428e+7 
