# Kurucz ODFNEW /NOVER (2003)
# teff = 7750 K (value for the effective temperature for the model. Temperatures are given in K)
# logg = 1 log(cm/s2) (value for Log(G) for the model.)
# meta = 0  (value for the Metallicity for the model.)
# lh = 1.25  (l/Hp where l is the  mixing length of the convective element and Hp is the pressure scale height)
# vtur = 2 km/s (Microturbulence velocity)
# alpha = 0.4  (Alpha)
#
# column 1: WAVELENGTH (ANGSTROM), Wavelength in Angstrom
# column 2: FLUX (ERG/CM2/S/A), Flux in erg/cm2/s/A
            385     2.87532e-23 
            395     2.48626e-22 
            405     1.72844e-21 
            414     9.07095e-21 
            422     3.72215e-20 
            430     1.44632e-19 
            441     8.60325e-19 
            451     4.02472e-18 
            460     1.52054e-17 
            470     6.25927e-17 
            480     2.42356e-16 
            490     8.86138e-16 
            500     3.06989e-15 
            506     6.00431e-15 
            512      1.2551e-14 
            520     3.12404e-14 
            530     9.52687e-14 
            540      2.6977e-13 
            550     7.57432e-13 
            560     2.01543e-12 
            570     5.17345e-12 
            580     1.26289e-11 
            590     3.08364e-11 
            600     7.18444e-11 
            610     1.62588e-10 
            620     3.57903e-10 
            630     7.67383e-10 
            640       1.6046e-9 
            650      3.27599e-9 
            658      5.70397e-9 
            665     4.66191e-10 
            675     8.51233e-10 
            685      1.52474e-9 
            695       2.6787e-9 
            705      4.58844e-9 
            716      8.25466e-9 
            726       1.3754e-8 
            735       2.1489e-8 
            745      3.47404e-8 
            755      5.54469e-8 
            765      8.73097e-8 
            775      1.35688e-7 
            785      2.08568e-7 
            795      3.12154e-7 
            805      4.69952e-7 
            815      7.00854e-7 
            825      1.02803e-6 
            835      1.49055e-6 
            845      2.14248e-6 
            855       3.0478e-6 
            865      4.29574e-6 
            875       5.9637e-6 
            885      8.30683e-6 
            895      1.14078e-5 
            905      1.54367e-5 
            915       0.0152654 
            925       0.0482654 
            935       0.0621702 
            945       0.0837767 
            955         0.12169 
            965         0.16176 
            975        0.200704 
            985        0.261452 
            995        0.319497 
           1005        0.442217 
           1015        0.566068 
           1025        0.690009 
           1035        0.883352 
           1045         1.12623 
           1055         1.40917 
           1065         1.69458 
           1075         2.13834 
           1085         2.63446 
           1095         3.11714 
           1105         10.9666 
           1115         37.1449 
           1125         54.5556 
           1135         73.6219 
           1145         90.2294 
           1155         96.6855 
           1165         125.868 
           1175         137.507 
           1185         144.476 
           1195         40.0624 
           1205         41.4836 
           1215         8.35058 
           1225         48.4247 
           1235         141.748 
           1245         362.967 
           1255         782.508 
           1265         696.522 
           1275         1647.93 
           1285         2696.52 
           1295         3427.58 
           1305         1819.62 
           1315         4888.57 
           1325         6619.28 
           1335         6969.04 
           1345         10106.4 
           1355         10652.1 
           1365         11217.4 
           1375         12584.6 
           1385         14683.1 
           1395         17508.8 
           1405         20130.1 
           1415         20175.9 
           1425         24554.1 
           1435         24449.1 
           1442         28906.5 
           1447         32852.6 
           1455         40142.5 
           1465         41248.1 
           1475         45128.7 
           1485         52936.6 
           1495         63412.9 
           1505         71446.4 
           1512         69906.4 
           1517         54871.8 
           1525         53439.1 
           1535          246450 
           1545      1.22675e+6 
           1555          991390 
           1565          781399 
           1575      1.40167e+6 
           1585      1.73892e+6 
           1595      2.46915e+6 
           1605      1.91668e+6 
           1615      1.60486e+6 
           1625      1.29036e+6 
           1635      1.40537e+6 
           1645      1.89463e+6 
           1655      1.09937e+6 
           1665      1.54254e+6 
           1672          319500 
           1677       2.8739e+6 
           1685      3.83453e+6 
           1695        4.401e+6 
           1705      3.83957e+6 
           1715      5.07771e+6 
           1725      5.48567e+6 
           1735      6.90477e+6 
           1745      6.04977e+6 
           1755      8.04971e+6 
           1765      6.10004e+6 
           1775      8.09353e+6 
           1785      6.60791e+6 
           1795      9.97296e+6 
           1805      7.93797e+6 
           1815      9.18979e+6 
           1825      7.50377e+6 
           1835      6.73637e+6 
           1845      6.49256e+6 
           1855      7.64369e+6 
           1865      8.35315e+6 
           1875      8.06636e+6 
           1885      8.43002e+6 
           1895      9.28714e+6 
           1905      7.96483e+6 
           1915       8.7719e+6 
           1925      9.24799e+6 
           1935      7.20422e+6 
           1945      9.92924e+6 
           1955      1.01367e+7 
           1967      1.11225e+7 
           1976       1.0731e+7 
           1984      1.05498e+7 
           1995      1.02701e+7 
           2005      9.69276e+6 
           2015      8.59044e+6 
           2025       8.3714e+6 
           2035      9.80753e+6 
           2045      1.09442e+7 
           2055      9.03681e+6 
           2065       8.9442e+6 
           2074      1.15581e+7 
           2078      1.21776e+7 
           2085      1.15405e+7 
           2095       1.0804e+7 
           2105      9.96104e+6 
           2115      9.97824e+6 
           2125      1.03134e+7 
           2135      7.48636e+6 
           2145      9.53896e+6 
           2155      1.00347e+7 
           2165      8.72456e+6 
           2175      8.91289e+6 
           2185      9.24577e+6 
           2195      1.03987e+7 
           2205      9.74052e+6 
           2215      7.93123e+6 
           2225       7.5503e+6 
           2235      9.95064e+6 
           2245      8.78807e+6 
           2255      7.40097e+6 
           2265      7.48212e+6 
           2275      8.83151e+6 
           2285      9.27677e+6 
           2295      8.34923e+6 
           2305      8.77117e+6 
           2315      8.09804e+6 
           2325      7.59435e+6 
           2335       5.1045e+6 
           2345       3.9615e+6 
           2355      6.75597e+6 
           2365      3.91034e+6 
           2375      5.49757e+6 
           2385       3.0371e+6 
           2395      4.19839e+6 
           2405      3.93272e+6 
           2415      5.19372e+6 
           2425      8.18403e+6 
           2435      7.78401e+6 
           2445      8.45274e+6 
           2455      8.32089e+6 
           2465      7.94723e+6 
           2475      7.52644e+6 
           2485      7.97905e+6 
           2495      7.62957e+6 
           2505      9.79072e+6 
           2513      7.35841e+6 
           2518       8.1165e+6 
           2525      6.46788e+6 
           2535      6.33547e+6 
           2545      6.53705e+6 
           2555      7.87216e+6 
           2565      6.76303e+6 
           2575      7.90489e+6 
           2585      7.20171e+6 
           2595      6.37316e+6 
           2605        5.543e+6 
           2615      5.18793e+6 
           2625      6.81715e+6 
           2635      8.22831e+6 
           2645      1.19776e+7 
           2655       1.2026e+7 
           2665      9.64815e+6 
           2675      1.06681e+7 
           2685      1.02898e+7 
           2695      9.90811e+6 
           2705      1.04379e+7 
           2715       8.9889e+6 
           2725      9.13156e+6 
           2735      9.90346e+6 
           2745      5.74817e+6 
           2755      6.70715e+6 
           2765      7.50825e+6 
           2775      8.71887e+6 
           2785      5.98738e+6 
           2795      2.02426e+6 
           2805      2.63427e+6 
           2815      7.54626e+6 
           2825      1.04244e+7 
           2835      1.04438e+7 
           2845       1.0242e+7 
           2855      9.18457e+6 
           2865      1.12075e+7 
           2875       1.0714e+7 
           2885      1.11436e+7 
           2895      1.04514e+7 
           2910      1.27036e+7 
           2930      1.18993e+7 
           2950       1.1961e+7 
           2970      1.29292e+7 
           2990      1.31352e+7 
           3010      1.37625e+7 
           3030      1.35704e+7 
           3050      1.33735e+7 
           3070      1.32334e+7 
           3090      1.40242e+7 
           3110      1.34164e+7 
           3130      1.33916e+7 
           3150      1.40798e+7 
           3170      1.39244e+7 
           3190        1.292e+7 
           3210      1.37832e+7 
           3230      1.30075e+7 
           3250      1.38251e+7 
           3270      1.41167e+7 
           3290       1.4405e+7 
           3310       1.4805e+7 
           3330      1.42791e+7 
           3350      1.40027e+7 
           3370      1.38937e+7 
           3390       1.4241e+7 
           3410       1.4874e+7 
           3430      1.51663e+7 
           3450      1.50065e+7 
           3470      1.47264e+7 
           3490      1.45083e+7 
           3510      1.51391e+7 
           3530      1.53783e+7 
           3550      1.57908e+7 
           3570       1.5038e+7 
           3590       1.5119e+7 
           3610      1.52584e+7 
           3630      1.54507e+7 
           3640      1.51012e+7 
           3650      1.57903e+7 
           3670       1.5676e+7 
           3690      1.72244e+7 
           3710      2.33891e+7 
           3730         3.61e+7 
           3750      5.23443e+7 
           3770      5.29142e+7 
           3790      6.15709e+7 
           3810      6.69523e+7 
           3830      5.44976e+7 
           3850      6.74618e+7 
           3870      6.96113e+7 
           3890      5.38228e+7 
           3910      6.54713e+7 
           3930      4.21198e+7 
           3950      6.24208e+7 
           3970      4.08833e+7 
           3990      6.61662e+7 
           4010      6.66348e+7 
           4030      6.52861e+7 
           4050      6.49874e+7 
           4070      6.38317e+7 
           4090      6.33419e+7 
           4110      5.13082e+7 
           4130      6.22202e+7 
           4150      6.32341e+7 
           4170      6.06402e+7 
           4190       6.0642e+7 
           4210      6.01905e+7 
           4230      5.91637e+7 
           4250      5.88251e+7 
           4270      5.74013e+7 
           4290      5.75162e+7 
           4310      5.42702e+7 
           4330       5.2062e+7 
           4350      4.56017e+7 
           4370      5.57117e+7 
           4390      5.38232e+7 
           4410      5.24838e+7 
           4430      5.30303e+7 
           4450      5.30246e+7 
           4470      5.27416e+7 
           4490      5.22429e+7 
           4510      5.25233e+7 
           4530      5.07461e+7 
           4550      4.94366e+7 
           4570      5.10215e+7 
           4590      4.90901e+7 
           4610      5.08667e+7 
           4630      4.89239e+7 
           4650      4.96051e+7 
           4670      4.90136e+7 
           4690      4.80672e+7 
           4710      4.63387e+7 
           4730      4.76062e+7 
           4750      4.76587e+7 
           4770      4.66125e+7 
           4790      4.62043e+7 
           4810      4.55832e+7 
           4830      4.51015e+7 
           4850      4.10402e+7 
           4870      3.35368e+7 
           4890      4.34942e+7 
           4910      4.33187e+7 
           4930      4.22828e+7 
           4950      4.26214e+7 
           4970      4.27153e+7 
           4990      4.11935e+7 
           5010      3.94634e+7 
           5030      4.01627e+7 
           5050       3.9795e+7 
           5070      3.99404e+7 
           5090      3.96067e+7 
           5110      3.92295e+7 
           5130        3.825e+7 
           5150      3.76097e+7 
           5170      3.67048e+7 
           5190      3.63106e+7 
           5210      3.64098e+7 
           5230      3.57476e+7 
           5250      3.61865e+7 
           5270      3.43172e+7 
           5290       3.5531e+7 
           5310      3.45316e+7 
           5330      3.38115e+7 
           5350      3.47793e+7 
           5370      3.42607e+7 
           5390      3.36542e+7 
           5410      3.31059e+7 
           5430      3.27935e+7 
           5450      3.30923e+7 
           5470      3.27198e+7 
           5490      3.24031e+7 
           5510      3.20343e+7 
           5530      3.16995e+7 
           5550      3.17748e+7 
           5570      3.13224e+7 
           5590      3.09986e+7 
           5610      3.08581e+7 
           5630        3.065e+7 
           5650      3.00711e+7 
           5670       2.9741e+7 
           5690       2.9744e+7 
           5710      2.94806e+7 
           5730      2.93532e+7 
           5750      2.89465e+7 
           5770      2.87564e+7 
           5790      2.84075e+7 
           5810      2.81798e+7 
           5830      2.78982e+7 
           5850      2.76813e+7 
           5870      2.74208e+7 
           5890      2.67973e+7 
           5910      2.68859e+7 
           5930      2.66416e+7 
           5950      2.62713e+7 
           5970      2.61643e+7 
           5990      2.57379e+7 
           6010      2.55658e+7 
           6030      2.54172e+7 
           6050      2.51002e+7 
           6070      2.49974e+7 
           6090      2.47086e+7 
           6110       2.4427e+7 
           6130      2.41065e+7 
           6150      2.33911e+7 
           6170      2.36296e+7 
           6190      2.36493e+7 
           6210      2.34376e+7 
           6230      2.30932e+7 
           6250      2.24046e+7 
           6270      2.28608e+7 
           6290      2.26509e+7 
           6310       2.2236e+7 
           6330      2.21794e+7 
           6350      2.17269e+7 
           6370      2.16019e+7 
           6390      2.15932e+7 
           6410      2.12652e+7 
           6430      2.11915e+7 
           6450      2.06374e+7 
           6470      2.08727e+7 
           6490      2.03847e+7 
           6510      2.03236e+7 
           6530      2.01896e+7 
           6550      1.86835e+7 
           6570      1.47655e+7 
           6590      1.94792e+7 
           6610      1.95021e+7 
           6630      1.94934e+7 
           6650      1.93619e+7 
           6670      1.91646e+7 
           6690      1.90115e+7 
           6710      1.88624e+7 
           6730      1.86348e+7 
           6750        1.847e+7 
           6770      1.84301e+7 
           6790       1.8226e+7 
           6810      1.81167e+7 
           6830      1.78832e+7 
           6850      1.77805e+7 
           6870      1.76651e+7 
           6890      1.75231e+7 
           6910      1.73697e+7 
           6930      1.72092e+7 
           6950      1.70892e+7 
           6970      1.69285e+7 
           6990      1.68117e+7 
           7010      1.64736e+7 
           7030      1.65165e+7 
           7050      1.63918e+7 
           7070      1.62713e+7 
           7090      1.61504e+7 
           7110      1.57795e+7 
           7130       1.5823e+7 
           7150      1.56771e+7 
           7170      1.55854e+7 
           7190      1.54361e+7 
           7210      1.53093e+7 
           7230      1.51606e+7 
           7250      1.50412e+7 
           7270      1.49899e+7 
           7290        1.481e+7 
           7310      1.46649e+7 
           7330      1.45871e+7 
           7350      1.44904e+7 
           7370      1.44403e+7 
           7390      1.42891e+7 
           7410      1.41126e+7 
           7430      1.39466e+7 
           7450      1.38854e+7 
           7470       1.3716e+7 
           7490      1.36744e+7 
           7510      1.35803e+7 
           7530      1.35262e+7 
           7550      1.34678e+7 
           7570      1.33014e+7 
           7590      1.32517e+7 
           7610      1.31561e+7 
           7630      1.30555e+7 
           7650      1.29024e+7 
           7670      1.28038e+7 
           7690      1.27169e+7 
           7710      1.25889e+7 
           7730      1.25572e+7 
           7750      1.24574e+7 
           7770      1.20439e+7 
           7790      1.22925e+7 
           7810       1.2187e+7 
           7830      1.20702e+7 
           7850      1.19305e+7 
           7870      1.18371e+7 
           7890       1.1707e+7 
           7910      1.16858e+7 
           7930      1.15892e+7 
           7950      1.14248e+7 
           7970      1.14903e+7 
           7990      1.11945e+7 
           8010      1.13095e+7 
           8030      1.12123e+7 
           8050      1.11462e+7 
           8070      1.10552e+7 
           8090      1.09804e+7 
           8110      1.09023e+7 
           8130      1.08413e+7 
           8150      1.07632e+7 
           8170      1.06846e+7 
           8190      1.04752e+7 
           8210      1.04097e+7 
           8230      1.03264e+7 
           8250      1.02952e+7 
           8270      1.03545e+7 
           8290      1.02498e+7 
           8310      1.01291e+7 
           8330      9.92955e+6 
           8350      9.99713e+6 
           8370      9.72786e+6 
           8390      9.78215e+6 
           8410      9.73728e+6 
           8430      1.00193e+7 
           8450       9.7693e+6 
           8470      9.52367e+6 
           8490      1.03757e+7 
           8510      9.21014e+6 
           8530      1.05784e+7 
           8550       8.4671e+6 
           8570      1.09159e+7 
           8590      1.02596e+7 
           8610      9.95436e+6 
           8630      1.12093e+7 
           8650      1.09989e+7 
           8670      8.45235e+6 
           8690      1.08086e+7 
           8710      1.11071e+7 
           8730      1.09109e+7 
           8750      8.87027e+6 
           8770      1.06794e+7 
           8790      1.08527e+7 
           8810      1.07215e+7 
           8830      1.05053e+7 
           8850      1.01409e+7 
           8870      8.58927e+6 
           8890      1.03592e+7 
           8910      1.03213e+7 
           8930      1.02279e+7 
           8950       1.0273e+7 
           8970       1.0179e+7 
           8990      1.00079e+7 
           9010       8.4358e+6 
           9030      9.30771e+6 
           9050      9.86274e+6 
           9070      9.58162e+6 
           9090      9.45242e+6 
           9110      9.58845e+6 
           9130      9.59485e+6 
           9150      9.57994e+6 
           9170      9.47951e+6 
           9190      9.34418e+6 
           9210      9.10733e+6 
           9230       7.3716e+6 
           9250      8.78745e+6 
           9270      8.81753e+6 
           9290      9.09695e+6 
           9310      9.04748e+6 
           9330      8.95204e+6 
           9350      8.92455e+6 
           9370      8.87705e+6 
           9390       8.7393e+6 
           9410      8.45543e+6 
           9430      8.57889e+6 
           9450      8.58269e+6 
           9470      8.55068e+6 
           9490      8.50046e+6 
