# Kurucz ODFNEW /NOVER (2003)
# teff = 26000 K (value for the effective temperature for the model. Temperatures are given in K)
# logg = 4 log(cm/s2) (value for Log(G) for the model.)
# meta = -2.5  (value for the Metallicity for the model.)
# lh = 1.25  (l/Hp where l is the  mixing length of the convective element and Hp is the pressure scale height)
# vtur = 2 km/s (Microturbulence velocity)
# alpha = 0.4  (Alpha)
#
# column 1: WAVELENGTH (ANGSTROM), Wavelength in Angstrom
# column 2: FLUX (ERG/CM2/S/A), Flux in erg/cm2/s/A
          147.2     6.58777e-13 
            151      2.9909e-12 
          155.2      1.4569e-11 
          158.8     5.29656e-11 
            162     1.58794e-10 
            166     5.88363e-10 
          170.3      2.24567e-9 
          173.4      5.64451e-9 
          176.8      1.49326e-8 
          180.2      3.80546e-8 
          181.7      5.68662e-8 
          186.1      1.77611e-7 
            191      5.92083e-7 
          193.9      1.17065e-6 
          198.4      3.23568e-6 
          201.8      6.76163e-6 
            205      1.32216e-5 
          210.5      3.99164e-5 
          216.2      0.00011772 
          219.8      0.00022595 
            223     0.000395941 
          226.8     0.000754217 
            230       0.0116409 
            234       0.0267707 
            240       0.0618811 
          246.5        0.146681 
          252.4        0.311403 
          256.8        0.495575 
            260        0.763769 
            264         1.19609 
          268.5         1.95173 
          273.5         3.29145 
          278.5         5.45164 
            284         9.29399 
            290         16.2038 
            296         27.5422 
            301         41.8348 
            308         70.6328 
            318         161.612 
            328         331.074 
            338         651.108 
            348         1225.25 
            357         2096.55 
            366         3495.45 
            375         5633.59 
            385         9356.67 
            395         15053.7 
            405         23622.4 
            414         34774.7 
            422         48118.2 
            430         65625.1 
            441           99166 
            451          141415 
            460          191267 
            470          263966 
            480          358334 
            490          479957 
            500          634247 
            506      4.12343e+6 
            512      1.22735e+7 
            520      1.40856e+7 
            530      1.77582e+7 
            540      1.85535e+7 
            550      2.39064e+7 
            560      2.69633e+7 
            570      3.09778e+7 
            580      3.09648e+7 
            590      3.81643e+7 
            600      4.36954e+7 
            610      4.91895e+7 
            620       5.4219e+7 
            630       6.0514e+7 
            640      6.56628e+7 
            650      7.32843e+7 
            658      7.92076e+7 
            665      8.42005e+7 
            675      9.03406e+7 
            685      9.72925e+7 
            695      1.08926e+8 
            705      1.16242e+8 
            716      1.27307e+8 
            726      1.36747e+8 
            735      1.47184e+8 
            745      1.58409e+8 
            755      1.69534e+8 
            765      1.80651e+8 
            775      1.93419e+8 
            785      2.05995e+8 
            795      2.17898e+8 
            805      2.31383e+8 
            815       2.4423e+8 
            825      2.58537e+8 
            835      2.66565e+8 
            845      2.86014e+8 
            855      2.99807e+8 
            865      3.15622e+8 
            875      3.31419e+8 
            885      3.47155e+8 
            895      3.62712e+8 
            905      3.75554e+8 
            915      5.80286e+8 
            925      4.73452e+9 
            935     1.18825e+10 
            945     2.69947e+10 
            955     3.26672e+10 
            965     4.08679e+10 
            975     2.01307e+10 
            985     4.19509e+10 
            995     3.96165e+10 
           1005     4.09096e+10 
           1015     3.81876e+10 
           1025     1.76875e+10 
           1035     3.55831e+10 
           1045     3.89796e+10 
           1055     3.80444e+10 
           1065     3.56593e+10 
           1075     3.58889e+10 
           1085     3.34831e+10 
           1095     3.49198e+10 
           1105     3.35069e+10 
           1115     3.28389e+10 
           1125      3.1079e+10 
           1135     3.17181e+10 
           1145     3.03792e+10 
           1155     3.03355e+10 
           1165     2.98308e+10 
           1175     2.65591e+10 
           1185     2.83682e+10 
           1195     2.69747e+10 
           1205     2.44551e+10 
           1215     1.17511e+10 
           1225     2.42425e+10 
           1235      2.5431e+10 
           1245     2.48224e+10 
           1255     2.45719e+10 
           1265     2.39519e+10 
           1275     2.36681e+10 
           1285     2.31665e+10 
           1295     2.16651e+10 
           1305     2.16805e+10 
           1315     2.17503e+10 
           1325     2.11086e+10 
           1335     2.04446e+10 
           1345     2.03581e+10 
           1355     2.00741e+10 
           1365     1.95514e+10 
           1375     1.92134e+10 
           1385     1.88724e+10 
           1395     1.78964e+10 
           1405     1.77013e+10 
           1415     1.76934e+10 
           1425     1.73847e+10 
           1435     1.70889e+10 
           1442     1.69026e+10 
           1447     1.67295e+10 
           1455      1.6464e+10 
           1465     1.61387e+10 
           1475     1.58338e+10 
           1485     1.55364e+10 
           1495     1.52355e+10 
           1505     1.48395e+10 
           1512     1.47037e+10 
           1517     1.45824e+10 
           1525     1.43482e+10 
           1535     1.39162e+10 
           1545     1.36399e+10 
           1555     1.33523e+10 
           1565     1.32835e+10 
           1575     1.30943e+10 
           1585     1.28658e+10 
           1595     1.26505e+10 
           1605     1.23122e+10 
           1615      1.2088e+10 
           1625     1.19344e+10 
           1635     1.17308e+10 
           1645        1.13e+10 
           1655      1.1369e+10 
           1665     1.11751e+10 
           1672     1.10311e+10 
           1677     1.09894e+10 
           1685     1.08268e+10 
           1695     1.06243e+10 
           1705     1.04269e+10 
           1715     1.02113e+10 
           1725     1.00454e+10 
           1735      9.91938e+9 
           1745      9.74614e+9 
           1755      9.60053e+9 
           1765       9.3762e+9 
           1775      9.24897e+9 
           1785      9.11902e+9 
           1795      8.99233e+9 
           1805       8.8599e+9 
           1815      8.69552e+9 
           1825      8.56248e+9 
           1835      8.42701e+9 
           1845       8.2166e+9 
           1855      8.00498e+9 
           1865       7.9237e+9 
           1875      7.88484e+9 
           1885      7.67025e+9 
           1895      7.47295e+9 
           1905       7.4845e+9 
           1915       7.2771e+9 
           1925      7.16031e+9 
           1935      7.10853e+9 
           1945      7.05056e+9 
           1955      6.83678e+9 
           1967      6.81593e+9 
           1976      6.76064e+9 
           1984      6.62545e+9 
           1995      6.45188e+9 
           2005      6.45318e+9 
           2015      6.38076e+9 
           2025      6.29989e+9 
           2035      6.18327e+9 
           2045      6.09177e+9 
           2055      5.88615e+9 
           2065      5.78316e+9 
           2074      5.78799e+9 
           2078      5.69149e+9 
           2085      5.70403e+9 
           2095      5.62258e+9 
           2105      5.59242e+9 
           2115      5.52888e+9 
           2125      5.45886e+9 
           2135      5.37925e+9 
           2145      5.29629e+9 
           2155      5.23005e+9 
           2165       5.1579e+9 
           2175      5.08637e+9 
           2185      5.01538e+9 
           2195      4.95125e+9 
           2205      4.88312e+9 
           2215      4.81418e+9 
           2225      4.75022e+9 
           2235      4.68451e+9 
           2245      4.62403e+9 
           2255      4.55755e+9 
           2265       4.5008e+9 
           2275      4.44094e+9 
           2285      4.38224e+9 
           2295       4.2862e+9 
           2305      4.26377e+9 
           2315      4.20972e+9 
           2325       4.1549e+9 
           2335      4.09873e+9 
           2345      4.04734e+9 
           2355      3.99585e+9 
           2365      3.94415e+9 
           2375      3.89264e+9 
           2385      3.84006e+9 
           2395      3.79342e+9 
           2405      3.74552e+9 
           2415        3.697e+9 
           2425      3.65171e+9 
           2435      3.60462e+9 
           2445      3.55982e+9 
           2455      3.51575e+9 
           2465      3.47197e+9 
           2475       3.4286e+9 
           2485      3.38611e+9 
           2495      3.28852e+9 
           2505      3.30272e+9 
           2513      3.26007e+9 
           2518      3.24874e+9 
           2525       3.2226e+9 
           2535      3.18345e+9 
           2545      3.13696e+9 
           2555      3.10529e+9 
           2565      3.06865e+9 
           2575      3.03287e+9 
           2585      2.99665e+9 
           2595      2.96096e+9 
           2605      2.94493e+9 
           2615         2.91e+9 
           2625      2.87453e+9 
           2635      2.83582e+9 
           2645       2.8022e+9 
           2655      2.76574e+9 
           2665      2.72942e+9 
           2675      2.69537e+9 
           2685       2.6794e+9 
           2695      2.63009e+9 
           2705      2.61758e+9 
           2715       2.5874e+9 
           2725      2.53887e+9 
           2735      2.52693e+9 
           2745      2.49901e+9 
           2755      2.47082e+9 
           2765      2.42341e+9 
           2775      2.41552e+9 
           2785       2.3881e+9 
           2795      2.35007e+9 
           2805      2.33171e+9 
           2815       2.3089e+9 
           2825      2.26062e+9 
           2835      2.24672e+9 
           2845      2.23282e+9 
           2855        2.208e+9 
           2865      2.18376e+9 
           2875      2.15984e+9 
           2885       2.1363e+9 
           2895      2.11298e+9 
           2910      2.07853e+9 
           2930      2.03375e+9 
           2950      1.97704e+9 
           2970      1.94807e+9 
           2990      1.90684e+9 
           3010       1.8667e+9 
           3030      1.82794e+9 
           3050         1.79e+9 
           3070      1.75304e+9 
           3090       1.7159e+9 
           3110      1.68194e+9 
           3130      1.64925e+9 
           3150      1.61604e+9 
           3170        1.583e+9 
           3190      1.53885e+9 
           3210      1.51988e+9 
           3230      1.48974e+9 
           3250      1.46016e+9 
           3270      1.43323e+9 
           3290      1.40333e+9 
           3310      1.37817e+9 
           3330      1.35164e+9 
           3350      1.32329e+9 
           3370      1.30044e+9 
           3390      1.27579e+9 
           3410      1.25177e+9 
           3430      1.22264e+9 
           3450      1.19547e+9 
           3470      1.17682e+9 
           3490      1.15492e+9 
           3510      1.13749e+9 
           3530      1.11865e+9 
           3550      1.09855e+9 
           3570       1.0842e+9 
           3590      1.05821e+9 
           3610      1.04158e+9 
           3630      1.02067e+9 
           3640      1.01834e+9 
           3650      1.00694e+9 
           3670      9.93338e+8 
           3690      9.71145e+8 
           3710      9.38478e+8 
           3730      9.02933e+8 
           3750      9.47362e+8 
           3770      9.46402e+8 
           3790      9.88869e+8 
           3810      1.02741e+9 
           3830       9.0201e+8 
           3850      1.04684e+9 
           3870      1.04832e+9 
           3890      8.55428e+8 
           3910      1.02742e+9 
           3930      1.01087e+9 
           3950      9.93271e+8 
           3970       7.9374e+8 
           3990      9.54123e+8 
           4010      9.43903e+8 
           4030      8.94312e+8 
           4050      9.21376e+8 
           4070      9.01404e+8 
           4090      8.40092e+8 
           4110      7.38311e+8 
           4130      8.46691e+8 
           4150       8.3739e+8 
           4170      8.29247e+8 
           4190      8.17208e+8 
           4210      8.03702e+8 
           4230      7.90288e+8 
           4250      7.76965e+8 
           4270      7.63505e+8 
           4290      7.51244e+8 
           4310      7.35608e+8 
           4330      6.75119e+8 
           4350      6.17221e+8 
           4370      6.99075e+8 
           4390      6.74814e+8 
           4410      6.80833e+8 
           4430      6.67578e+8 
           4450      6.59612e+8 
           4470      6.23876e+8 
           4490      6.38549e+8 
           4510      6.28898e+8 
           4530      6.19024e+8 
           4550      6.09191e+8 
           4570      5.99667e+8 
           4590      5.90412e+8 
           4610        5.814e+8 
           4630      5.72469e+8 
           4650       5.6299e+8 
           4670      5.54965e+8 
           4690      5.46063e+8 
           4710      5.31858e+8 
           4730      5.30215e+8 
           4750      5.22187e+8 
           4770      5.14489e+8 
           4790      5.06819e+8 
           4810      4.98966e+8 
           4830      4.89368e+8 
           4850      4.56416e+8 
           4870      4.09405e+8 
           4890      4.66877e+8 
           4910      4.62409e+8 
           4930       4.4673e+8 
           4950       4.5023e+8 
           4970      4.43808e+8 
           4990      4.37428e+8 
           5010      4.26198e+8 
           5030      4.25004e+8 
           5050      4.16578e+8 
           5070      4.13019e+8 
           5090      4.07191e+8 
           5110      4.01457e+8 
           5130      3.95827e+8 
           5150      3.90287e+8 
           5170      3.84863e+8 
           5190      3.79525e+8 
           5210      3.74271e+8 
           5230      3.69128e+8 
           5250      3.64052e+8 
           5270       3.5907e+8 
           5290      3.54179e+8 
           5310      3.49365e+8 
           5330      3.44639e+8 
           5350      3.39988e+8 
           5370      3.35422e+8 
           5390      3.30914e+8 
           5410      3.26477e+8 
           5430      3.22147e+8 
           5450      3.17885e+8 
           5470      3.13676e+8 
           5490      3.09545e+8 
           5510       3.0549e+8 
           5530      3.01486e+8 
           5550      2.97555e+8 
           5570      2.93686e+8 
           5590      2.89876e+8 
           5610      2.86137e+8 
           5630      2.82456e+8 
           5650      2.78831e+8 
           5670      2.75262e+8 
           5690      2.71736e+8 
           5710      2.68299e+8 
           5730      2.64904e+8 
           5750      2.61537e+8 
           5770      2.58267e+8 
           5790      2.55025e+8 
           5810      2.51844e+8 
           5830        2.487e+8 
           5850      2.45616e+8 
           5870      2.35647e+8 
           5890      2.39337e+8 
           5910       2.3662e+8 
           5930       2.3372e+8 
           5950      2.30853e+8 
           5970       2.2804e+8 
           5990      2.25271e+8 
           6010      2.22543e+8 
           6030      2.19847e+8 
           6050      2.17202e+8 
           6070      2.14597e+8 
           6090      2.12021e+8 
           6110      2.09495e+8 
           6130      2.06998e+8 
           6150      2.04538e+8 
           6170      2.02126e+8 
           6190       1.9974e+8 
           6210      1.97391e+8 
           6230      1.95077e+8 
           6250      1.92799e+8 
           6270      1.90555e+8 
           6290      1.88336e+8 
           6310       1.8615e+8 
           6330      1.84007e+8 
           6350      1.81878e+8 
           6370      1.79791e+8 
           6390      1.77736e+8 
           6410      1.75702e+8 
           6430      1.73709e+8 
           6450      1.71737e+8 
           6470      1.69786e+8 
           6490      1.67873e+8 
           6510      1.65981e+8 
           6530      1.63543e+8 
           6550      1.57216e+8 
           6570      1.40437e+8 
           6590      1.57447e+8 
           6610      1.56781e+8 
           6630      1.55193e+8 
           6650       1.5358e+8 
           6670      1.50441e+8 
           6690      1.48819e+8 
           6710      1.48578e+8 
           6730      1.46956e+8 
           6750      1.45359e+8 
           6770      1.43778e+8 
           6790      1.42221e+8 
           6810      1.40688e+8 
           6830      1.39171e+8 
           6850      1.37677e+8 
           6870      1.36206e+8 
           6890       1.3475e+8 
           6910      1.33316e+8 
           6930      1.31897e+8 
           6950      1.30499e+8 
           6970      1.29123e+8 
           6990      1.27753e+8 
           7010       1.2642e+8 
           7030      1.25099e+8 
           7050      1.23791e+8 
           7070       1.2053e+8 
           7090      1.21222e+8 
           7110      1.19967e+8 
           7130      1.18724e+8 
           7150      1.17501e+8 
           7170      1.16268e+8 
           7190      1.15097e+8 
           7210      1.13923e+8 
           7230      1.12717e+8 
           7250      1.11609e+8 
           7270      1.10475e+8 
           7290      1.08452e+8 
           7310      1.08233e+8 
           7330      1.07159e+8 
           7350      1.06082e+8 
           7370      1.05014e+8 
           7390      1.03964e+8 
           7410       1.0293e+8 
           7430      1.01906e+8 
           7450      1.00905e+8 
           7470       9.9906e+7 
           7490      9.89165e+7 
           7510      9.79094e+7 
           7530      9.69847e+7 
           7550      9.60287e+7 
           7570      9.50881e+7 
           7590      9.41626e+7 
           7610      9.32454e+7 
           7630      9.23431e+7 
           7650      9.14489e+7 
           7670      9.05628e+7 
           7690       8.9691e+7 
           7710       8.8827e+7 
           7730       8.7977e+7 
           7750      8.71284e+7 
           7770      8.62935e+7 
           7790      8.54785e+7 
           7810       8.4609e+7 
           7830      8.38639e+7 
           7850       8.3162e+7 
           7870      8.23688e+7 
           7890      8.15524e+7 
           7910      8.08334e+7 
           7930      8.00787e+7 
           7950      7.92114e+7 
           7970      7.83695e+7 
           7990      7.76649e+7 
           8010      7.69253e+7 
           8030      7.62095e+7 
           8050      7.55464e+7 
           8070      7.48948e+7 
           8090      7.40529e+7 
           8110      7.34877e+7 
           8130      7.28929e+7 
           8150      7.21102e+7 
           8170      7.15939e+7 
           8190      7.08403e+7 
           8210      7.00875e+7 
           8230      6.96694e+7 
           8250      6.90608e+7 
           8270      6.80772e+7 
           8290      6.77546e+7 
           8310      6.71725e+7 
           8330      6.65408e+7 
           8350      6.56119e+7 
           8370      6.52396e+7 
           8390      6.47523e+7 
           8410      6.41677e+7 
           8430      6.35243e+7 
           8450      6.25433e+7 
           8470      6.22956e+7 
           8490      6.17306e+7 
           8510      6.09987e+7 
           8530      6.07337e+7 
           8550      5.92543e+7 
           8570      6.04091e+7 
