# Kurucz ODFNEW /NOVER (2003)
# teff = 23000 K (value for the effective temperature for the model. Temperatures are given in K)
# logg = 4 log(cm/s2) (value for Log(G) for the model.)
# meta = 0  (value for the Metallicity for the model.)
# lh = 1.25  (l/Hp where l is the  mixing length of the convective element and Hp is the pressure scale height)
# vtur = 2 km/s (Microturbulence velocity)
# alpha = 0.4  (Alpha)
#
# column 1: WAVELENGTH (ANGSTROM), Wavelength in Angstrom
# column 2: FLUX (ERG/CM2/S/A), Flux in erg/cm2/s/A
          147.2     2.19592e-16 
            151     1.03487e-15 
          155.2     5.28112e-15 
          158.8     2.00231e-14 
            162     6.25528e-14 
            166     2.45238e-13 
          170.3     9.93286e-13 
          173.4      2.6298e-12 
          176.8     7.35724e-12 
          180.2     1.98713e-11 
          181.7     3.04317e-11 
          186.1     1.02675e-10 
            191     3.74643e-10 
          193.9     7.82794e-10 
          198.4      2.36091e-9 
          201.8      5.27398e-9 
            205      1.09841e-8 
          210.5       3.6933e-8 
          216.2      1.22064e-7 
          219.8      2.51972e-7 
            223      4.71046e-7 
          226.8      9.68954e-7 
            230      3.08655e-5 
            234      7.34112e-5 
            240     0.000189045 
          246.5     0.000499384 
          252.4      0.00117012 
          256.8       0.0020681 
            260       0.0033437 
            264      0.00555289 
          268.5      0.00975264 
          273.5       0.0176781 
          278.5       0.0317515 
            284       0.0618276 
            290        0.116835 
            296        0.216042 
            301        0.352829 
            308        0.705812 
            318         1.79126 
            328         4.04029 
            338         9.19103 
            348         19.3367 
            357         60.1767 
            366          115.32 
            375         192.717 
            385         343.778 
            395         612.594 
            405         1010.54 
            414         1586.61 
            422         2260.79 
            430         3279.52 
            441         5244.51 
            451         7858.49 
            460         10975.4 
            470         15998.5 
            480         22657.7 
            490         32096.5 
            500         44521.9 
            506          286657 
            512      2.15135e+6 
            520      2.55031e+6 
            530      3.29977e+6 
            540      3.59779e+6 
            550      5.30684e+6 
            560      6.29784e+6 
            570      7.85728e+6 
            580      7.72273e+6 
            590      1.04936e+7 
            600      1.22385e+7 
            610      1.48373e+7 
            620      1.64393e+7 
            630      1.82442e+7 
            640      1.79563e+7 
            650       1.4503e+7 
            658      2.20975e+7 
            665      2.63048e+7 
            675      2.83912e+7 
            685      3.03872e+7 
            695      3.82708e+7 
            705      4.01792e+7 
            716      4.59404e+7 
            726      4.85339e+7 
            735      5.20625e+7 
            745      5.95423e+7 
            755      6.48244e+7 
            765      7.07335e+7 
            775      7.72244e+7 
            785      8.36022e+7 
            795      8.77769e+7 
            805      9.32544e+7 
            815       9.8132e+7 
            825      1.07513e+8 
            835      9.94958e+7 
            845      1.15648e+8 
            855      1.21307e+8 
            865      1.30426e+8 
            875      1.39744e+8 
            885      1.52303e+8 
            895      1.61175e+8 
            905      1.61152e+8 
            915      2.42945e+8 
            925      1.67766e+9 
            935       4.7566e+9 
            945     1.11037e+10 
            955     1.53748e+10 
            965     1.84355e+10 
            975       2.7736e+9 
            985     1.62243e+10 
            995      1.5777e+10 
           1005     1.91396e+10 
           1015     1.89252e+10 
           1025      7.82844e+9 
           1035     1.38291e+10 
           1045     2.34636e+10 
           1055     2.14961e+10 
           1065     1.62832e+10 
           1075     1.97381e+10 
           1085     1.77157e+10 
           1095     2.02644e+10 
           1105     1.69812e+10 
           1115     1.52664e+10 
           1125     1.27513e+10 
           1135     1.83214e+10 
           1145     1.58272e+10 
           1155     1.68554e+10 
           1165     1.70466e+10 
           1175     1.04874e+10 
           1185     1.64651e+10 
           1195     1.32067e+10 
           1205       6.1521e+9 
           1215       5.7417e+9 
           1225     1.23611e+10 
           1235     1.56331e+10 
           1245     1.55526e+10 
           1255     1.51591e+10 
           1265     1.49905e+10 
           1275      1.5544e+10 
           1285     1.53918e+10 
           1295      8.56625e+9 
           1305      9.07323e+9 
           1315     1.46742e+10 
           1325     1.36484e+10 
           1335     1.29093e+10 
           1345     1.33771e+10 
           1355     1.32613e+10 
           1365     1.17518e+10 
           1375      1.1507e+10 
           1385     1.12004e+10 
           1395      7.61406e+9 
           1405      8.60379e+9 
           1415      9.90412e+9 
           1425     1.00565e+10 
           1435     1.03447e+10 
           1442     1.07375e+10 
           1447     1.05152e+10 
           1455     1.01783e+10 
           1465      9.34019e+9 
           1475      9.47995e+9 
           1485      9.25908e+9 
           1495       9.1127e+9 
           1505      8.15057e+9 
           1512      7.31099e+9 
           1517      7.60682e+9 
           1525        7.916e+9 
           1535       6.7509e+9 
           1545      6.69362e+9 
           1555      6.45232e+9 
           1565      6.88572e+9 
           1575      7.33329e+9 
           1585      7.29533e+9 
           1595      7.28944e+9 
           1605      7.38681e+9 
           1615      7.27409e+9 
           1625      7.05972e+9 
           1635      7.48984e+9 
           1645      7.45697e+9 
           1655      7.23495e+9 
           1665      7.47242e+9 
           1672      7.16135e+9 
           1677      7.63458e+9 
           1685      7.49644e+9 
           1695       7.0508e+9 
           1705        6.772e+9 
           1715      6.37714e+9 
           1725      6.29759e+9 
           1735      6.58176e+9 
           1745      6.40224e+9 
           1755      6.45499e+9 
           1765      6.26728e+9 
           1775      5.93177e+9 
           1785      5.99154e+9 
           1795      6.27234e+9 
           1805      6.31023e+9 
           1815      5.56604e+9 
           1825      5.85608e+9 
           1835      5.59362e+9 
           1845      5.10097e+9 
           1855      5.07733e+9 
           1865      5.14877e+9 
           1875      5.46541e+9 
           1885       4.8537e+9 
           1895      4.50687e+9 
           1905      4.92444e+9 
           1915      4.58961e+9 
           1925      4.37919e+9 
           1935      4.64525e+9 
           1945      4.69231e+9 
           1955      4.26553e+9 
           1967      4.67138e+9 
           1976      4.87283e+9 
           1984      4.49117e+9 
           1995      4.40638e+9 
           2005      4.57855e+9 
           2015      4.46817e+9 
           2025      4.65061e+9 
           2035      4.22231e+9 
           2045      4.32065e+9 
           2055      4.16826e+9 
           2065      4.18851e+9 
           2074      4.37504e+9 
           2078       3.9568e+9 
           2085      4.19035e+9 
           2095      3.93937e+9 
           2105      4.06093e+9 
           2115      4.07871e+9 
           2125      4.11842e+9 
           2135      4.03092e+9 
           2145      3.81566e+9 
           2155      3.99433e+9 
           2165      3.97448e+9 
           2175      3.91635e+9 
           2185      3.77777e+9 
           2195      3.83327e+9 
           2205      3.80276e+9 
           2215      3.73103e+9 
           2225      3.61866e+9 
           2235      3.59826e+9 
           2245      3.62668e+9 
           2255      3.48982e+9 
           2265      3.55476e+9 
           2275      3.50225e+9 
           2285      3.50298e+9 
           2295      3.25286e+9 
           2305      3.37389e+9 
           2315      3.26937e+9 
           2325      3.22891e+9 
           2335      3.09732e+9 
           2345      3.11556e+9 
           2355      3.11979e+9 
           2365      3.07097e+9 
           2375      3.02873e+9 
           2385      2.99928e+9 
           2395      2.99261e+9 
           2405      2.91397e+9 
           2415      2.89564e+9 
           2425      2.90403e+9 
           2435      2.80722e+9 
           2445      2.82105e+9 
           2455      2.82249e+9 
           2465      2.76423e+9 
           2475      2.72337e+9 
           2485      2.69112e+9 
           2495      2.41009e+9 
           2505      2.61782e+9 
           2513      2.50353e+9 
           2518      2.59395e+9 
           2525      2.54431e+9 
           2535      2.51197e+9 
           2545      2.40508e+9 
           2555      2.47118e+9 
           2565      2.42756e+9 
           2575      2.45306e+9 
           2585      2.42464e+9 
           2595      2.40498e+9 
           2605       2.3855e+9 
           2615      2.35462e+9 
           2625      2.33464e+9 
           2635      2.31331e+9 
           2645      2.30469e+9 
           2655      2.29078e+9 
           2665      2.20493e+9 
           2675      2.22159e+9 
           2685       2.2103e+9 
           2695      2.13853e+9 
           2705      2.11549e+9 
           2715      2.10683e+9 
           2725      2.08389e+9 
           2735      2.08142e+9 
           2745      2.01128e+9 
           2755      2.00927e+9 
           2765      1.99328e+9 
           2775      2.00976e+9 
           2785      1.97529e+9 
           2795      1.89343e+9 
           2805      1.92377e+9 
           2815      1.92538e+9 
           2825      1.89577e+9 
           2835      1.82514e+9 
           2845      1.84776e+9 
           2855      1.82407e+9 
           2865      1.82558e+9 
           2875      1.80279e+9 
           2885      1.78619e+9 
           2895       1.7607e+9 
           2910      1.72636e+9 
           2930      1.69704e+9 
           2950      1.65068e+9 
           2970        1.631e+9 
           2990      1.59257e+9 
           3010      1.54586e+9 
           3030      1.53664e+9 
           3050      1.50874e+9 
           3070      1.48399e+9 
           3090      1.42984e+9 
           3110      1.42012e+9 
           3130      1.38957e+9 
           3150      1.36614e+9 
           3170      1.33343e+9 
           3190      1.30129e+9 
           3210      1.28776e+9 
           3230      1.25983e+9 
           3250      1.24059e+9 
           3270      1.21585e+9 
           3290      1.19175e+9 
           3310      1.17213e+9 
           3330      1.14848e+9 
           3350      1.12705e+9 
           3370      1.10602e+9 
           3390      1.08868e+9 
           3410       1.0695e+9 
           3430      1.04518e+9 
           3450      1.02259e+9 
           3470      1.00574e+9 
           3490      9.86602e+8 
           3510      9.72456e+8 
           3530      9.59139e+8 
           3550      9.42175e+8 
           3570      9.29933e+8 
           3590      9.03407e+8 
           3610       8.8906e+8 
           3630      8.76059e+8 
           3640      8.75574e+8 
           3650      8.63035e+8 
           3670      8.53794e+8 
           3690      8.35378e+8 
           3710      8.04718e+8 
           3730      7.74856e+8 
           3750      8.22201e+8 
           3770      8.21293e+8 
           3790      8.63765e+8 
           3810      8.98347e+8 
           3830      7.85104e+8 
           3850      9.11852e+8 
           3870      9.09419e+8 
           3890      7.44018e+8 
           3910       9.0754e+8 
           3930       8.7513e+8 
           3950      8.71578e+8 
           3970      6.91555e+8 
           3990      8.37934e+8 
           4010      8.36531e+8 
           4030      7.87794e+8 
           4050      8.11407e+8 
           4070      7.75274e+8 
           4090      7.25056e+8 
           4110      6.42457e+8 
           4130      7.36037e+8 
           4150      7.32569e+8 
           4170      7.30238e+8 
           4190      7.22812e+8 
           4210      7.16747e+8 
           4230      7.00995e+8 
           4250       6.8292e+8 
           4270       6.6193e+8 
           4290       6.5655e+8 
           4310      6.38952e+8 
           4330      5.86487e+8 
           4350      5.35375e+8 
           4370      6.07501e+8 
           4390      5.97463e+8 
           4410      5.98099e+8 
           4430      5.91156e+8 
           4450      5.83743e+8 
           4470      5.53605e+8 
           4490      5.63129e+8 
           4510       5.6148e+8 
           4530      5.50713e+8 
           4550      5.43135e+8 
           4570      5.34152e+8 
           4590      5.25466e+8 
           4610      5.14322e+8 
           4630      5.07164e+8 
           4650       4.9342e+8 
           4670       4.9226e+8 
           4690      4.88585e+8 
           4710      4.67904e+8 
           4730      4.69967e+8 
           4750      4.62728e+8 
           4770      4.62664e+8 
           4790      4.54343e+8 
           4810      4.43701e+8 
           4830      4.35431e+8 
           4850      4.06591e+8 
           4870      3.63197e+8 
           4890      4.18116e+8 
           4910      4.14091e+8 
           4930      3.98927e+8 
           4950      4.02106e+8 
           4970      3.99441e+8 
           4990      3.92796e+8 
           5010      3.76158e+8 
           5030      3.80677e+8 
           5050      3.70104e+8 
           5070      3.71294e+8 
           5090      3.65226e+8 
           5110      3.59357e+8 
           5130       3.5208e+8 
           5150      3.48087e+8 
           5170      3.45554e+8 
           5190      3.40924e+8 
           5210      3.33468e+8 
           5230        3.319e+8 
           5250      3.27572e+8 
           5270      3.22364e+8 
           5290      3.18921e+8 
           5310      3.14305e+8 
           5330      3.09617e+8 
           5350        3.047e+8 
           5370      3.02239e+8 
           5390      2.97964e+8 
           5410      2.94079e+8 
           5430      2.89272e+8 
           5450       2.8558e+8 
           5470      2.81632e+8 
           5490      2.78821e+8 
           5510      2.75411e+8 
           5530      2.71402e+8 
           5550      2.68435e+8 
           5570      2.64665e+8 
           5590      2.61713e+8 
           5610      2.57756e+8 
           5630      2.55167e+8 
           5650      2.49528e+8 
           5670      2.45931e+8 
           5690      2.43228e+8 
           5710       2.4155e+8 
           5730      2.38983e+8 
           5750      2.35341e+8 
           5770      2.33407e+8 
           5790      2.30404e+8 
           5810      2.27425e+8 
           5830      2.24327e+8 
           5850      2.21827e+8 
           5870      2.12566e+8 
           5890      2.14448e+8 
           5910      2.13215e+8 
           5930      2.10568e+8 
           5950      2.07378e+8 
           5970      2.06276e+8 
           5990      2.02969e+8 
           6010      2.01276e+8 
           6030      1.98586e+8 
           6050       1.9638e+8 
           6070      1.94168e+8 
           6090      1.91767e+8 
           6110      1.89595e+8 
           6130      1.87478e+8 
           6150      1.84039e+8 
           6170       1.8265e+8 
           6190      1.80882e+8 
           6210       1.7881e+8 
           6230       1.7679e+8 
           6250      1.74224e+8 
           6270      1.72462e+8 
           6290      1.70577e+8 
           6310      1.68353e+8 
           6330      1.66773e+8 
           6350      1.63903e+8 
           6370      1.62513e+8 
           6390      1.60925e+8 
           6410      1.59107e+8 
           6430      1.57599e+8 
           6450      1.55672e+8 
           6470      1.53505e+8 
           6490       1.5197e+8 
           6510      1.50318e+8 
           6530      1.47967e+8 
           6550      1.41814e+8 
           6570      1.25303e+8 
           6590      1.41555e+8 
           6610      1.41967e+8 
           6630      1.40778e+8 
           6650      1.39191e+8 
           6670       1.3641e+8 
           6690      1.35023e+8 
           6710      1.34856e+8 
           6730      1.33157e+8 
           6750      1.32038e+8 
           6770      1.30626e+8 
           6790      1.28224e+8 
           6810      1.27634e+8 
           6830      1.26209e+8 
           6850       1.2508e+8 
           6870      1.23746e+8 
           6890      1.22338e+8 
           6910      1.20976e+8 
           6930      1.19769e+8 
           6950      1.18636e+8 
           6970      1.17398e+8 
           6990      1.16126e+8 
           7010      1.14889e+8 
           7030      1.13695e+8 
           7050      1.12513e+8 
           7070      1.09473e+8 
           7090       1.1025e+8 
           7110      1.08513e+8 
           7130      1.07453e+8 
           7150      1.06779e+8 
           7170      1.05759e+8 
           7190      1.04734e+8 
           7210      1.03669e+8 
           7230      1.01114e+8 
           7250      1.01374e+8 
           7270      1.00539e+8 
           7290      9.86978e+7 
           7310      9.85109e+7 
           7330      9.75253e+7 
           7350      9.65839e+7 
           7370      9.56304e+7 
           7390       9.4672e+7 
           7410      9.37431e+7 
           7430      9.26863e+7 
           7450      9.18567e+7 
           7470      9.05959e+7 
           7490       9.0012e+7 
           7510      8.91525e+7 
           7530      8.82609e+7 
           7550      8.74833e+7 
           7570      8.66469e+7 
           7590      8.57658e+7 
           7610      8.48928e+7 
           7630      8.41377e+7 
           7650      8.33378e+7 
           7670      8.25452e+7 
           7690      8.17469e+7 
           7710      8.09621e+7 
           7730      8.01591e+7 
           7750      7.94386e+7 
           7770      7.80192e+7 
           7790       7.7942e+7 
           7810      7.71542e+7 
           7830       7.6484e+7 
           7850      7.56363e+7 
           7870        7.493e+7 
           7890      7.39999e+7 
           7910      7.36562e+7 
           7930      7.29557e+7 
           7950      7.19632e+7 
           7970      7.14483e+7 
           7990      7.05422e+7 
           8010      7.01669e+7 
           8030       6.9514e+7 
           8050      6.88784e+7 
           8070      6.83233e+7 
           8090      6.75715e+7 
           8110      6.68434e+7 
           8130      6.64808e+7 
           8150      6.58146e+7 
           8170       6.5346e+7 
           8190      6.45218e+7 
           8210      6.38501e+7 
           8230      6.32565e+7 
           8250      6.30055e+7 
           8270      6.18969e+7 
           8290      6.18179e+7 
           8310      6.12806e+7 
           8330      6.07696e+7 
           8350      5.99006e+7 
           8370      5.95072e+7 
           8390      5.91435e+7 
           8410      5.85962e+7 
           8430      5.80111e+7 
           8450      5.68451e+7 
           8470      5.69025e+7 
           8490      5.63525e+7 
           8510      5.56718e+7 
           8530      5.54991e+7 
           8550      5.40184e+7 
           8570      5.52541e+7 
           8590      5.27864e+7 
