# Kurucz ODFNEW /NOVER (2003)
# teff = 25000 K (value for the effective temperature for the model. Temperatures are given in K)
# logg = 5 log(cm/s2) (value for Log(G) for the model.)
# meta = -2  (value for the Metallicity for the model.)
# lh = 1.25  (l/Hp where l is the  mixing length of the convective element and Hp is the pressure scale height)
# vtur = 2 km/s (Microturbulence velocity)
# alpha = 0  (Alpha)
#
# column 1: WAVELENGTH (ANGSTROM), Wavelength in Angstrom
# column 2: FLUX (ERG/CM2/S/A), Flux in erg/cm2/s/A
          147.2     4.19573e-14 
            151     2.01376e-13 
          155.2     1.04587e-12 
          158.8     4.01283e-12 
            162      1.2632e-11 
            166     4.98227e-11 
          170.3     2.02809e-10 
          173.4     5.34418e-10 
          176.8      1.48784e-9 
          180.2      3.98424e-9 
          181.7       6.0803e-9 
          186.1      2.01901e-8 
            191       7.1936e-8 
          193.9      1.47947e-7 
          198.4      4.33948e-7 
          201.8      9.46837e-7 
            205      1.92627e-6 
          210.5      6.19623e-6 
          216.2      1.94827e-5 
          219.8       3.8912e-5 
            223      7.05687e-5 
          226.8     0.000139858 
            230     0.000625321 
            234      0.00136089 
            240      0.00338775 
          246.5      0.00863854 
          252.4       0.0195036 
          256.8       0.0340681 
            260       0.0520706 
            264       0.0852744 
          268.5         0.14566 
          273.5        0.258374 
          278.5        0.449235 
            284        0.805809 
            290         1.48367 
            296          2.6586 
            301         4.24585 
            308          7.8476 
            318         18.5708 
            328         40.9842 
            338         86.0637 
            348         172.671 
            357         311.613 
            366         545.622 
            375         926.574 
            385         1618.44 
            395          2739.3 
            405         4507.89 
            414         6901.96 
            422         9904.16 
            430         13996.2 
            441           22052 
            451           32609 
            460         45609.9 
            470         65128.7 
            480         91430.5 
            490          126403 
            500          172135 
            506          877156 
            512      3.03417e+6 
            520        3.734e+6 
            530      5.04099e+6 
            540      5.39604e+6 
            550      7.21054e+6 
            560      8.37154e+6 
            570      9.88054e+6 
            580      1.00177e+7 
            590      1.26569e+7 
            600      1.49834e+7 
            610      1.71761e+7 
            620      1.93912e+7 
            630      2.19745e+7 
            640      2.43531e+7 
            650      2.75775e+7 
            658      3.02192e+7 
            665      3.25117e+7 
            675      3.55831e+7 
            685      3.91177e+7 
            695      4.40002e+7 
            705       4.8081e+7 
            716      5.30582e+7 
            726      5.77935e+7 
            735      6.27488e+7 
            745      6.83037e+7 
            755      7.40406e+7 
            765      7.98874e+7 
            775      8.62879e+7 
            785      9.28397e+7 
            795      9.94002e+7 
            805      1.06439e+8 
            815      1.13576e+8 
            825      1.21317e+8 
            835      1.27517e+8 
            845      1.36752e+8 
            855      1.44435e+8 
            865      1.53542e+8 
            875      1.62501e+8 
            885      1.71606e+8 
            895      1.80707e+8 
            905      1.88129e+8 
            915      2.48458e+8 
            925      1.06279e+9 
            935      2.86814e+9 
            945     1.08519e+10 
            955     1.99698e+10 
            965     2.83701e+10 
            975      9.53886e+9 
            985     3.87402e+10 
            995      3.8962e+10 
           1005     4.06112e+10 
           1015      3.2203e+10 
           1025       6.3174e+9 
           1035     2.73819e+10 
           1045     3.84379e+10 
           1055     3.82001e+10 
           1065     3.54069e+10 
           1075     3.61628e+10 
           1085     3.29935e+10 
           1095     3.48318e+10 
           1105     3.32632e+10 
           1115     3.26026e+10 
           1125     3.06295e+10 
           1135     3.10923e+10 
           1145     2.94309e+10 
           1155     2.95843e+10 
           1165     2.88926e+10 
           1175     2.51888e+10 
           1185     2.70402e+10 
           1195     2.47677e+10 
           1205     1.92339e+10 
           1215      4.69462e+9 
           1225     1.77117e+10 
           1235     2.30164e+10 
           1245     2.31362e+10 
           1255      2.2916e+10 
           1265     2.23035e+10 
           1275     2.21687e+10 
           1285      2.1684e+10 
           1295      2.0182e+10 
           1305     2.00447e+10 
           1315     2.02307e+10 
           1325     1.94875e+10 
           1335     1.87164e+10 
           1345     1.87787e+10 
           1355      1.8489e+10 
           1365     1.79472e+10 
           1375      1.7599e+10 
           1385     1.72419e+10 
           1395     1.64106e+10 
           1405     1.62278e+10 
           1415     1.61078e+10 
           1425     1.58035e+10 
           1435     1.54998e+10 
           1442     1.53231e+10 
           1447     1.51454e+10 
           1455     1.48836e+10 
           1465     1.45421e+10 
           1475     1.42578e+10 
           1485      1.3954e+10 
           1495     1.36801e+10 
           1505     1.32878e+10 
           1512     1.30914e+10 
           1517      1.3003e+10 
           1525     1.27837e+10 
           1535     1.23236e+10 
           1545     1.21539e+10 
           1555      1.1831e+10 
           1565     1.17937e+10 
           1575     1.16231e+10 
           1585     1.14079e+10 
           1595     1.12116e+10 
           1605     1.08828e+10 
           1615     1.06768e+10 
           1625     1.05776e+10 
           1635      1.0407e+10 
           1645      1.0078e+10 
           1655     1.00369e+10 
           1665      9.88794e+9 
           1672       9.6812e+9 
           1677      9.69737e+9 
           1685      9.54832e+9 
           1695      9.35154e+9 
           1705      9.16234e+9 
           1715      8.96627e+9 
           1725      8.82058e+9 
           1735      8.69905e+9 
           1745      8.53752e+9 
           1755      8.42191e+9 
           1765      8.15273e+9 
           1775      8.08767e+9 
           1785      7.98229e+9 
           1795       7.8701e+9 
           1805      7.75307e+9 
           1815      7.59388e+9 
           1825      7.48227e+9 
           1835      7.35452e+9 
           1845      7.13977e+9 
           1855      6.94771e+9 
           1865      6.89008e+9 
           1875      6.86887e+9 
           1885      6.64297e+9 
           1895      6.46268e+9 
           1905      6.49301e+9 
           1915      6.30015e+9 
           1925      6.19257e+9 
           1935      6.15952e+9 
           1945      6.12094e+9 
           1955      5.90767e+9 
           1967      5.91079e+9 
           1976      5.87742e+9 
           1984      5.74159e+9 
           1995      5.58304e+9 
           2005      5.59496e+9 
           2015      5.53975e+9 
           2025      5.47589e+9 
           2035      5.36135e+9 
           2045      5.28148e+9 
           2055       5.1475e+9 
           2065      5.07763e+9 
           2074      5.08498e+9 
           2078      4.98254e+9 
           2085      4.97054e+9 
           2095      4.86887e+9 
           2105      4.84933e+9 
           2115      4.79676e+9 
           2125      4.74263e+9 
           2135      4.67078e+9 
           2145      4.59524e+9 
           2155      4.54004e+9 
           2165      4.47882e+9 
           2175      4.41328e+9 
           2185      4.35515e+9 
           2195       4.2982e+9 
           2205      4.23807e+9 
           2215      4.18077e+9 
           2225      4.12151e+9 
           2235      4.06495e+9 
           2245      4.01357e+9 
           2255      3.95716e+9 
           2265      3.90702e+9 
           2275      3.85448e+9 
           2285      3.80444e+9 
           2295      3.72565e+9 
           2305      3.70311e+9 
           2315      3.65262e+9 
           2325      3.60573e+9 
           2335      3.55563e+9 
           2345      3.50927e+9 
           2355      3.46772e+9 
           2365      3.42155e+9 
           2375       3.3779e+9 
           2385      3.33235e+9 
           2395      3.29072e+9 
           2405       3.2496e+9 
           2415      3.20757e+9 
           2425      3.17028e+9 
           2435      3.12885e+9 
           2445      3.09014e+9 
           2455       3.0532e+9 
           2465      3.01422e+9 
           2475      2.97724e+9 
           2485      2.94052e+9 
           2495      2.87572e+9 
           2505      2.86751e+9 
           2513      2.82751e+9 
           2518      2.82289e+9 
           2525      2.79834e+9 
           2535       2.7637e+9 
           2545      2.72696e+9 
           2555      2.69844e+9 
           2565      2.66605e+9 
           2575      2.63549e+9 
           2585      2.60426e+9 
           2595      2.57321e+9 
           2605      2.56171e+9 
           2615      2.53229e+9 
           2625       2.5027e+9 
           2635      2.47153e+9 
           2645      2.44259e+9 
           2655       2.4106e+9 
           2665      2.37626e+9 
           2675      2.34357e+9 
           2685      2.33425e+9 
           2695      2.28511e+9 
           2705       2.2806e+9 
           2715      2.25438e+9 
           2725      2.20544e+9 
           2735       2.2034e+9 
           2745      2.17547e+9 
           2755      2.15197e+9 
           2765      2.10642e+9 
           2775      2.10609e+9 
           2785      2.08225e+9 
           2795       2.0435e+9 
           2805      2.03116e+9 
           2815      2.01395e+9 
           2825      1.96375e+9 
           2835      1.94795e+9 
           2845      1.94806e+9 
           2855      1.92676e+9 
           2865       1.9059e+9 
           2875       1.8851e+9 
           2885      1.86472e+9 
           2895      1.84453e+9 
           2910      1.81476e+9 
           2930      1.77585e+9 
           2950      1.72099e+9 
           2970      1.70203e+9 
           2990      1.66615e+9 
           3010       1.6316e+9 
           3030      1.59815e+9 
           3050      1.56532e+9 
           3070      1.53331e+9 
           3090      1.50173e+9 
           3110      1.47185e+9 
           3130      1.44383e+9 
           3150      1.41511e+9 
           3170      1.38652e+9 
           3190       1.3442e+9 
           3210      1.33196e+9 
           3230      1.30555e+9 
           3250      1.27983e+9 
           3270      1.25675e+9 
           3290      1.23048e+9 
           3310      1.20913e+9 
           3330      1.18615e+9 
           3350      1.16122e+9 
           3370      1.14181e+9 
           3390      1.12044e+9 
           3410      1.09959e+9 
           3430      1.07413e+9 
           3450      1.05006e+9 
           3470      1.03418e+9 
           3490       1.0154e+9 
           3510      9.98355e+8 
           3530      9.81663e+8 
           3550      9.64864e+8 
           3570      9.54734e+8 
           3590      9.29364e+8 
           3610      9.17447e+8 
           3630      8.97244e+8 
           3640       8.9761e+8 
           3650      8.82235e+8 
           3670      8.71108e+8 
           3690      8.56406e+8 
           3710      8.27956e+8 
           3730      7.96274e+8 
           3750      7.92866e+8 
           3770      7.74987e+8 
           3790      8.17186e+8 
           3810      8.58899e+8 
           3830      7.37926e+8 
           3850      8.96831e+8 
           3870       9.2587e+8 
           3890      6.90442e+8 
           3910       9.1481e+8 
           3930      9.20719e+8 
           3950      8.88359e+8 
           3970      6.43104e+8 
           3990      8.46121e+8 
           4010      8.60685e+8 
           4030      7.93083e+8 
           4050      8.47443e+8 
           4070      8.24921e+8 
           4090      7.20574e+8 
           4110      6.16207e+8 
           4130      7.67334e+8 
           4150      7.68661e+8 
           4170      7.65856e+8 
           4190      7.57188e+8 
           4210      7.44655e+8 
           4230      7.32071e+8 
           4250      7.19629e+8 
           4270      7.04866e+8 
           4290       6.9227e+8 
           4310      6.71786e+8 
           4330      5.76621e+8 
           4350       5.2112e+8 
           4370      6.35218e+8 
           4390      6.09719e+8 
           4410      6.28415e+8 
           4430      6.16572e+8 
           4450       6.0933e+8 
           4470      5.58111e+8 
           4490       5.8916e+8 
           4510      5.82242e+8 
           4530      5.73055e+8 
           4550      5.64025e+8 
           4570      5.55203e+8 
           4590      5.46602e+8 
           4610      5.38147e+8 
           4630      5.29817e+8 
           4650      5.21419e+8 
           4670      5.13698e+8 
           4690       5.0578e+8 
           4710      4.89743e+8 
           4730      4.90493e+8 
           4750      4.82948e+8 
           4770      4.76059e+8 
           4790      4.67692e+8 
           4810      4.59153e+8 
           4830      4.46315e+8 
           4850      3.93378e+8 
           4870      3.47186e+8 
           4890      4.22842e+8 
           4910      4.24342e+8 
           4930      4.05577e+8 
           4950       4.1599e+8 
           4970       4.1059e+8 
           4990      4.04672e+8 
           5010      3.92067e+8 
           5030       3.9308e+8 
           5050      3.84448e+8 
           5070      3.82095e+8 
           5090      3.76684e+8 
           5110       3.7139e+8 
           5130      3.66166e+8 
           5150      3.61027e+8 
           5170      3.56026e+8 
           5190      3.51092e+8 
           5210      3.46208e+8 
           5230      3.41458e+8 
           5250       3.3677e+8 
           5270      3.32171e+8 
           5290      3.27631e+8 
           5310      3.23177e+8 
           5330      3.18807e+8 
           5350      3.14493e+8 
           5370      3.10273e+8 
           5390      3.06121e+8 
           5410      3.02034e+8 
           5430      2.97999e+8 
           5450      2.94053e+8 
           5470      2.90169e+8 
           5490      2.86346e+8 
           5510      2.82583e+8 
           5530      2.78892e+8 
           5550      2.75259e+8 
           5570      2.71671e+8 
           5590      2.68163e+8 
           5610      2.64698e+8 
           5630      2.61288e+8 
           5650      2.57919e+8 
           5670      2.54615e+8 
           5690      2.51362e+8 
           5710      2.48206e+8 
           5730      2.45065e+8 
           5750      2.41961e+8 
           5770      2.38929e+8 
           5790      2.35933e+8 
           5810      2.32983e+8 
           5830       2.3008e+8 
           5850      2.27221e+8 
           5870      2.15004e+8 
           5890      2.20714e+8 
           5910       2.1892e+8 
           5930      2.16236e+8 
           5950      2.13593e+8 
           5970      2.10991e+8 
           5990      2.08429e+8 
           6010      2.05907e+8 
           6030      2.03425e+8 
           6050       2.0097e+8 
           6070      1.98564e+8 
           6090      1.96186e+8 
           6110      1.93854e+8 
           6130      1.91548e+8 
           6150      1.89279e+8 
           6170      1.87044e+8 
           6190      1.84844e+8 
           6210      1.82669e+8 
           6230      1.80527e+8 
           6250      1.78419e+8 
           6270      1.76353e+8 
           6290        1.743e+8 
           6310      1.72289e+8 
           6330      1.70299e+8 
           6350      1.68322e+8 
           6370      1.66403e+8 
           6390      1.64505e+8 
           6410      1.62637e+8 
           6430      1.60788e+8 
           6450      1.58959e+8 
           6470       1.5715e+8 
           6490      1.55181e+8 
           6510      1.52985e+8 
           6530      1.50017e+8 
           6550      1.39628e+8 
           6570      1.22423e+8 
           6590      1.43203e+8 
           6610       1.4433e+8 
           6630      1.43272e+8 
           6650      1.42088e+8 
           6670      1.38442e+8 
           6690       1.3701e+8 
           6710      1.37575e+8 
           6730      1.36076e+8 
           6750      1.34601e+8 
           6770      1.33142e+8 
           6790      1.31696e+8 
           6810       1.3029e+8 
           6830      1.28891e+8 
           6850      1.27505e+8 
           6870      1.26149e+8 
           6890      1.24798e+8 
           6910      1.23477e+8 
           6930      1.22162e+8 
           6950      1.20875e+8 
           6970        1.196e+8 
           6990      1.18346e+8 
           7010      1.17105e+8 
           7030      1.15875e+8 
           7050      1.14673e+8 
           7070      1.11289e+8 
           7090      1.12304e+8 
           7110      1.11136e+8 
           7130      1.09995e+8 
           7150      1.08857e+8 
           7170       1.0773e+8 
           7190      1.06636e+8 
           7210      1.05553e+8 
           7230      1.04386e+8 
           7250      1.03409e+8 
           7270      1.02364e+8 
           7290      1.00357e+8 
           7310      1.00295e+8 
           7330      9.92993e+7 
           7350      9.83063e+7 
           7370      9.73227e+7 
           7390      9.63482e+7 
           7410      9.53897e+7 
           7430       9.4447e+7 
           7450      9.35265e+7 
           7470       9.2601e+7 
           7490      9.16908e+7 
           7510      9.07489e+7 
           7530      8.98954e+7 
           7550      8.90166e+7 
           7570      8.81524e+7 
           7590      8.72895e+7 
           7610       8.6441e+7 
           7630      8.56066e+7 
           7650      8.47798e+7 
           7670      8.39604e+7 
           7690      8.31548e+7 
           7710      8.23563e+7 
           7730      8.15714e+7 
           7750      8.07934e+7 
           7770      8.00161e+7 
           7790      7.92643e+7 
           7810      7.84697e+7 
           7830      7.77744e+7 
           7850      7.71219e+7 
           7870      7.63958e+7 
           7890      7.56338e+7 
           7910      7.49749e+7 
           7930      7.42737e+7 
           7950      7.35785e+7 
           7970      7.27709e+7 
           7990      7.20824e+7 
           8010      7.13882e+7 
           8030      7.07176e+7 
           8050      7.00585e+7 
           8070      6.94224e+7 
           8090       6.8717e+7 
           8110      6.81322e+7 
           8130      6.75637e+7 
           8150      6.69149e+7 
           8170      6.63563e+7 
           8190      6.56956e+7 
           8210      6.49679e+7 
           8230      6.45468e+7 
           8250      6.39852e+7 
           8270      6.31253e+7 
           8290       6.2821e+7 
           8310      6.23008e+7 
           8330      6.17034e+7 
           8350      6.08624e+7 
           8370      6.05343e+7 
           8390      6.00962e+7 
           8410      5.95656e+7 
           8430      5.90024e+7 
           8450      5.80744e+7 
           8470      5.79791e+7 
           8490      5.73299e+7 
           8510      5.69203e+7 
           8530      5.62913e+7 
           8550      5.56829e+7 
           8570      5.56183e+7 
           8590      5.39351e+7 
