# Kurucz ODFNEW /NOVER (2003)
# teff = 20000 K (value for the effective temperature for the model. Temperatures are given in K)
# logg = 4 log(cm/s2) (value for Log(G) for the model.)
# meta = -2  (value for the Metallicity for the model.)
# lh = 1.25  (l/Hp where l is the  mixing length of the convective element and Hp is the pressure scale height)
# vtur = 2 km/s (Microturbulence velocity)
# alpha = 0.4  (Alpha)
#
# column 1: WAVELENGTH (ANGSTROM), Wavelength in Angstrom
# column 2: FLUX (ERG/CM2/S/A), Flux in erg/cm2/s/A
          147.2      9.8667e-21 
            151     6.72482e-20 
          155.2     5.04651e-19 
          158.8     2.61721e-18 
            162     1.06605e-17 
            166     5.73051e-17 
          170.3     3.20846e-16 
          173.4     1.05505e-15 
          176.8      3.7146e-15 
          180.2     1.24811e-14 
          181.7      2.1004e-14 
          186.1     9.22124e-14 
            191     4.42149e-13 
          193.9     1.07707e-12 
          198.4     4.07389e-12 
          201.8     1.07043e-11 
            205     2.58023e-11 
          210.5     1.09838e-10 
          216.2     4.55711e-10 
          219.8      1.07688e-9 
            223      2.25807e-9 
          226.8      5.29138e-9 
            230      1.55093e-8 
            234      3.78456e-8 
            240      1.23752e-7 
          246.5      4.16501e-7 
          252.4      1.18833e-6 
          256.8      2.49484e-6 
            260       4.2561e-6 
            264      8.08042e-6 
          268.5      1.62194e-5 
          273.5      3.42053e-5 
          278.5      7.02291e-5 
            284     0.000150246 
            290     0.000332781 
            296     0.000712172 
            301      0.00131147 
            308      0.00296427 
            318      0.00898683 
            328       0.0252719 
            338       0.0666112 
            348        0.165531 
            357        0.358465 
            366        0.745832 
            375          1.4936 
            385         3.10228 
            395         6.19041 
            405         11.9077 
            414         20.8373 
            422         33.5237 
            430          52.897 
            441           96.21 
            451         161.154 
            460         251.016 
            470          401.85 
            480         629.517 
            490         966.458 
            500         1455.53 
            506         11564.3 
            512         33437.2 
            520         43541.2 
            530         65304.7 
            540         74901.5 
            550          111968 
            560          142187 
            570          181292 
            580          190705 
            590          263397 
            600          345388 
            610          425276 
            620          512603 
            630          619928 
            640          731872 
            650          877525 
            658      1.00716e+6 
            665      1.12399e+6 
            675      1.30318e+6 
            685      1.51471e+6 
            695      1.78075e+6 
            705      2.04561e+6 
            716      2.37646e+6 
            726      2.70842e+6 
            735      3.05868e+6 
            745       3.4758e+6 
            755      3.92912e+6 
            765      4.40726e+6 
            775      4.95712e+6 
            785      5.53847e+6 
            795      6.15499e+6 
            805      6.83493e+6 
            815      7.55019e+6 
            825      8.34077e+6 
            835      9.05966e+6 
            845      1.00373e+7 
            855      1.09438e+7 
            865      1.19938e+7 
            875      1.30473e+7 
            885       1.4213e+7 
            895      1.53993e+7 
            905      1.64454e+7 
            915      2.89464e+7 
            925      1.51251e+8 
            935      5.99768e+8 
            945      3.03619e+9 
            955      5.84369e+9 
            965      8.02915e+9 
            975      2.53959e+9 
            985     1.08003e+10 
            995     1.09481e+10 
           1005     1.12292e+10 
           1015      9.29331e+9 
           1025      1.66229e+9 
           1035       7.7616e+9 
           1045     1.12709e+10 
           1055     1.11896e+10 
           1065     1.02899e+10 
           1075     1.08078e+10 
           1085     1.01336e+10 
           1095     1.06324e+10 
           1105      9.94595e+9 
           1115      9.91955e+9 
           1125      9.43144e+9 
           1135      9.71605e+9 
           1145      9.15426e+9 
           1155      9.38361e+9 
           1165      9.29482e+9 
           1175      8.30012e+9 
           1185      8.92684e+9 
           1195      7.88796e+9 
           1205      5.77227e+9 
           1215      1.16294e+9 
           1225       5.5921e+9 
           1235      7.69427e+9 
           1245      7.90001e+9 
           1255      7.71051e+9 
           1265      7.59144e+9 
           1275      7.66981e+9 
           1285      7.53698e+9 
           1295       6.7963e+9 
           1305      6.69011e+9 
           1315      7.14168e+9 
           1325      6.91755e+9 
           1335      6.62512e+9 
           1345       6.7171e+9 
           1355      6.67126e+9 
           1365      6.47783e+9 
           1375      6.39053e+9 
           1385      6.32764e+9 
           1395      6.03785e+9 
           1405      6.02206e+9 
           1415      5.98466e+9 
           1425      5.90689e+9 
           1435      5.83528e+9 
           1442      5.79997e+9 
           1447      5.74556e+9 
           1455      5.65746e+9 
           1465      5.55346e+9 
           1475       5.4649e+9 
           1485       5.3567e+9 
           1495      5.27264e+9 
           1505      5.13012e+9 
           1512      5.07004e+9 
           1517      5.06434e+9 
           1525      4.97716e+9 
           1535      4.81515e+9 
           1545      4.82341e+9 
           1555      4.69302e+9 
           1565      4.67523e+9 
           1575      4.63959e+9 
           1585      4.56699e+9 
           1595      4.51538e+9 
           1605      4.39011e+9 
           1615      4.32407e+9 
           1625      4.29199e+9 
           1635      4.24585e+9 
           1645      4.16696e+9 
           1655      4.10135e+9 
           1665      4.07778e+9 
           1672      3.96622e+9 
           1677      4.00824e+9 
           1685      3.96218e+9 
           1695      3.88646e+9 
           1705      3.81119e+9 
           1715      3.72973e+9 
           1725      3.68332e+9 
           1735      3.65338e+9 
           1745      3.59331e+9 
           1755      3.56704e+9 
           1765      3.43119e+9 
           1775      3.43916e+9 
           1785      3.39789e+9 
           1795      3.37335e+9 
           1805      3.32509e+9 
           1815      3.26282e+9 
           1825      3.23372e+9 
           1835       3.1856e+9 
           1845      3.09316e+9 
           1855      3.01535e+9 
           1865      2.99588e+9 
           1875      3.00376e+9 
           1885      2.90645e+9 
           1895      2.82802e+9 
           1905      2.86485e+9 
           1915       2.7821e+9 
           1925      2.74219e+9 
           1935      2.73706e+9 
           1945      2.72781e+9 
           1955      2.63798e+9 
           1967      2.65155e+9 
           1976      2.64357e+9 
           1984      2.58353e+9 
           1995      2.51735e+9 
           2005      2.52885e+9 
           2015      2.51012e+9 
           2025      2.49127e+9 
           2035      2.44274e+9 
           2045      2.41233e+9 
           2055      2.34163e+9 
           2065      2.33624e+9 
           2074      2.34123e+9 
           2078      2.29889e+9 
           2085      2.29848e+9 
           2095      2.25109e+9 
           2105       2.2454e+9 
           2115      2.22422e+9 
           2125      2.20684e+9 
           2135      2.17687e+9 
           2145      2.14434e+9 
           2155      2.12554e+9 
           2165      2.09823e+9 
           2175      2.07222e+9 
           2185      2.05006e+9 
           2195      2.02907e+9 
           2205      2.00265e+9 
           2215      1.97801e+9 
           2225      1.95174e+9 
           2235      1.93273e+9 
           2245      1.91189e+9 
           2255      1.88682e+9 
           2265      1.86844e+9 
           2275      1.84586e+9 
           2285      1.82714e+9 
           2295      1.79573e+9 
           2305      1.78394e+9 
           2315      1.76146e+9 
           2325      1.74342e+9 
           2335      1.71608e+9 
           2345      1.68928e+9 
           2355      1.68339e+9 
           2365       1.6578e+9 
           2375      1.64367e+9 
           2385      1.61713e+9 
           2395      1.60326e+9 
           2405       1.5867e+9 
           2415      1.56758e+9 
           2425      1.55878e+9 
           2435      1.53882e+9 
           2445      1.52254e+9 
           2455      1.50904e+9 
           2465      1.49006e+9 
           2475      1.47546e+9 
           2485       1.4597e+9 
           2495      1.43151e+9 
           2505      1.42868e+9 
           2513      1.40964e+9 
           2518      1.40779e+9 
           2525      1.39574e+9 
           2535      1.37824e+9 
           2545      1.36249e+9 
           2555      1.35548e+9 
           2565      1.33778e+9 
           2575       1.3282e+9 
           2585      1.31383e+9 
           2595      1.29953e+9 
           2605      1.29246e+9 
           2615      1.28088e+9 
           2625      1.26885e+9 
           2635      1.25283e+9 
           2645      1.24494e+9 
           2655      1.23055e+9 
           2665      1.21476e+9 
           2675      1.20322e+9 
           2685      1.19793e+9 
           2695      1.17739e+9 
           2705      1.17369e+9 
           2715      1.16123e+9 
           2725      1.14085e+9 
           2735      1.13862e+9 
           2745      1.11969e+9 
           2755      1.11003e+9 
           2765      1.09556e+9 
           2775      1.09468e+9 
           2785      1.08333e+9 
           2795      1.05274e+9 
           2805       1.0541e+9 
           2815      1.05257e+9 
           2825      1.03243e+9 
           2835      1.02488e+9 
           2845      1.02164e+9 
           2855      1.01219e+9 
           2865      1.00289e+9 
           2875       9.9305e+8 
           2885      9.83734e+8 
           2895      9.74432e+8 
           2910      9.60542e+8 
           2930      9.41462e+8 
           2950      9.19086e+8 
           2970      9.07774e+8 
           2990      8.90656e+8 
           3010       8.7466e+8 
           3030      8.58801e+8 
           3050      8.43161e+8 
           3070      8.27934e+8 
           3090      8.12832e+8 
           3110      7.98438e+8 
           3130      7.85037e+8 
           3150      7.71114e+8 
           3170       7.5729e+8 
           3190       7.3868e+8 
           3210      7.30893e+8 
           3230      7.18115e+8 
           3250      7.05665e+8 
           3270      6.94206e+8 
           3290      6.81615e+8 
           3310      6.70755e+8 
           3330      6.59427e+8 
           3350      6.47414e+8 
           3370      6.37464e+8 
           3390       6.2685e+8 
           3410      6.16473e+8 
           3430      6.04565e+8 
           3450      5.93082e+8 
           3470        5.847e+8 
           3490      5.75142e+8 
           3510      5.67444e+8 
           3530      5.58704e+8 
           3550      5.49826e+8 
           3570      5.43033e+8 
           3590      5.32059e+8 
           3610      5.24503e+8 
           3630      5.15309e+8 
           3640      5.13732e+8 
           3650      5.09507e+8 
           3670      5.03522e+8 
           3690      4.91161e+8 
           3710      4.77121e+8 
           3730      4.62812e+8 
           3750      5.08628e+8 
           3770      5.17745e+8 
           3790      5.57196e+8 
           3810      5.89434e+8 
           3830      5.04347e+8 
           3850       6.1395e+8 
           3870      6.25027e+8 
           3890       4.7549e+8 
           3910      6.16346e+8 
           3930       6.1004e+8 
           3950      5.97817e+8 
           3970       4.4366e+8 
           3990      5.73326e+8 
           4010       5.7322e+8 
           4030      5.39245e+8 
           4050      5.61287e+8 
           4070      5.49394e+8 
           4090      4.97213e+8 
           4110      4.24431e+8 
           4130      5.14972e+8 
           4150      5.12273e+8 
           4170      5.08541e+8 
           4190      5.02067e+8 
           4210      4.94141e+8 
           4230      4.86258e+8 
           4250       4.7848e+8 
           4270      4.70083e+8 
           4290      4.62578e+8 
           4310      4.52414e+8 
           4330      4.00964e+8 
           4350      3.61628e+8 
           4370       4.3033e+8 
           4390      4.15413e+8 
           4410      4.21784e+8 
           4430      4.13569e+8 
           4450      4.09309e+8 
           4470      3.84575e+8 
           4490       3.9605e+8 
           4510      3.91119e+8 
           4530      3.85194e+8 
           4550      3.79414e+8 
           4570      3.73755e+8 
           4590      3.68288e+8 
           4610      3.62865e+8 
           4630      3.57505e+8 
           4650      3.52102e+8 
           4670      3.47123e+8 
           4690      3.42131e+8 
           4710      3.32778e+8 
           4730      3.32126e+8 
           4750      3.27231e+8 
           4770      3.22853e+8 
           4790      3.18209e+8 
           4810      3.12849e+8 
           4830       3.0642e+8 
           4850      2.77488e+8 
           4870       2.4416e+8 
           4890      2.92251e+8 
           4910      2.90922e+8 
           4930      2.80863e+8 
           4950      2.84163e+8 
           4970       2.8028e+8 
           4990      2.76403e+8 
           5010      2.69203e+8 
           5030      2.68868e+8 
           5050      2.63286e+8 
           5070      2.61638e+8 
           5090      2.58088e+8 
           5110        2.546e+8 
           5130      2.51187e+8 
           5150       2.4782e+8 
           5170      2.44525e+8 
           5190      2.41273e+8 
           5210      2.37953e+8 
           5230      2.34925e+8 
           5250       2.3184e+8 
           5270      2.28795e+8 
           5290      2.25803e+8 
           5310      2.22862e+8 
           5330       2.1996e+8 
           5350      2.17081e+8 
           5370       2.1433e+8 
           5390      2.11576e+8 
           5410      2.08856e+8 
           5430      2.06132e+8 
           5450      2.03544e+8 
           5470      2.00962e+8 
           5490      1.98439e+8 
           5510      1.95933e+8 
           5530      1.93472e+8 
           5550      1.91052e+8 
           5570      1.88663e+8 
           5590      1.86327e+8 
           5610      1.83995e+8 
           5630      1.81739e+8 
           5650      1.79428e+8 
           5670      1.77251e+8 
           5690      1.75111e+8 
           5710      1.72985e+8 
           5730      1.70884e+8 
           5750      1.68809e+8 
           5770      1.66769e+8 
           5790      1.64754e+8 
           5810      1.62774e+8 
           5830      1.60827e+8 
           5850      1.58904e+8 
           5870      1.52444e+8 
           5890       1.5495e+8 
           5910       1.5331e+8 
           5930      1.51506e+8 
           5950      1.49702e+8 
           5970      1.47961e+8 
           5990      1.46218e+8 
           6010      1.44527e+8 
           6030      1.42845e+8 
           6050      1.41192e+8 
           6070      1.39568e+8 
           6090      1.37952e+8 
           6110      1.36374e+8 
           6130      1.34814e+8 
           6150      1.33261e+8 
           6170      1.31755e+8 
           6190      1.30256e+8 
           6210      1.28784e+8 
           6230      1.27337e+8 
           6250      1.25896e+8 
           6270      1.24491e+8 
           6290        1.231e+8 
           6310      1.21716e+8 
           6330      1.20374e+8 
           6350      1.18954e+8 
           6370      1.17679e+8 
           6390      1.16418e+8 
           6410      1.15133e+8 
           6430       1.1388e+8 
           6450      1.12632e+8 
           6470      1.11405e+8 
           6490      1.10192e+8 
           6510      1.08814e+8 
           6530      1.07124e+8 
           6550      1.01316e+8 
           6570      8.89351e+7 
           6590      1.02892e+8 
           6610      1.02925e+8 
           6630      1.02168e+8 
           6650      1.01146e+8 
           6670      9.91427e+7 
           6690      9.81215e+7 
           6710      9.79642e+7 
           6730      9.69336e+7 
           6750      9.59218e+7 
           6770      9.49121e+7 
           6790      9.39207e+7 
           6810      9.29474e+7 
           6830      9.19839e+7 
           6850      9.10301e+7 
           6870      9.00858e+7 
           6890      8.91588e+7 
           6910       8.8241e+7 
           6930      8.73402e+7 
           6950      8.64483e+7 
           6970      8.55652e+7 
           6990      8.46984e+7 
           7010      8.38401e+7 
           7030      8.29903e+7 
           7050      8.21562e+7 
           7070      8.01319e+7 
           7090      8.05124e+7 
           7110      7.97098e+7 
           7130      7.89075e+7 
           7150      7.81277e+7 
           7170      7.73407e+7 
           7190      7.65831e+7 
           7210      7.58255e+7 
           7230      7.50318e+7 
           7250      7.43389e+7 
           7270      7.36097e+7 
           7290       7.2384e+7 
           7310      7.21718e+7 
           7330       7.1477e+7 
           7350      7.07817e+7 
           7370      7.00998e+7 
           7390      6.94243e+7 
           7410       6.8755e+7 
           7430      6.80919e+7 
           7450      6.74478e+7 
           7470      6.68022e+7 
           7490      6.61653e+7 
           7510      6.55167e+7 
           7530      6.49134e+7 
           7550      6.42989e+7 
           7570      6.36921e+7 
           7590      6.30913e+7 
           7610      6.24986e+7 
           7630      6.19126e+7 
           7650      6.13331e+7 
           7670      6.07607e+7 
           7690      6.01947e+7 
           7710       5.9635e+7 
           7730      5.90828e+7 
           7750      5.85355e+7 
           7770      5.79625e+7 
           7790      5.74623e+7 
           7810      5.69083e+7 
           7830      5.64133e+7 
           7850       5.5938e+7 
           7870      5.54271e+7 
           7890      5.48966e+7 
           7910      5.44314e+7 
           7930       5.3938e+7 
           7950      5.34404e+7 
           7970      5.29282e+7 
           7990       5.2467e+7 
           8010      5.19875e+7 
           8030      5.15086e+7 
           8050      5.10571e+7 
           8070      5.06053e+7 
           8090      5.00924e+7 
           8110      4.96778e+7 
           8130      4.92792e+7 
           8150      4.87824e+7 
           8170      4.84169e+7 
           8190      4.79566e+7 
           8210      4.74695e+7 
           8230      4.71668e+7 
           8250      4.67784e+7 
           8270      4.61966e+7 
           8290      4.59465e+7 
           8310      4.55663e+7 
           8330      4.51632e+7 
           8350      4.46007e+7 
           8370      4.43206e+7 
           8390      4.39902e+7 
           8410      4.35778e+7 
           8430      4.31417e+7 
           8450      4.25674e+7 
           8470      4.22237e+7 
           8490      4.20062e+7 
           8510      4.12883e+7 
           8530      4.14283e+7 
           8550      3.99129e+7 
           8570      4.13133e+7 
           8590      3.92822e+7 
