# Kurucz ODFNEW /NOVER (2003)
# teff = 22000 K (value for the effective temperature for the model. Temperatures are given in K)
# logg = 3 log(cm/s2) (value for Log(G) for the model.)
# meta = 0  (value for the Metallicity for the model.)
# lh = 1.25  (l/Hp where l is the  mixing length of the convective element and Hp is the pressure scale height)
# vtur = 2 km/s (Microturbulence velocity)
# alpha = 0.4  (Alpha)
#
# column 1: WAVELENGTH (ANGSTROM), Wavelength in Angstrom
# column 2: FLUX (ERG/CM2/S/A), Flux in erg/cm2/s/A
          147.2     5.56127e-18 
            151     2.92151e-17 
          155.2     1.67414e-16 
          158.8     6.98634e-16 
            162     2.37013e-15 
            166     1.02764e-14 
          170.3     4.61642e-14 
          173.4     1.31196e-13 
          176.8     3.95552e-13 
          180.2     1.14724e-12 
          181.7     1.81273e-12 
          186.1     6.68119e-12 
            191     2.67483e-11 
          193.9     5.89134e-11 
          198.4     1.92114e-10 
          201.8     4.53954e-10 
            205     9.94691e-10 
          210.5      3.63379e-9 
          216.2      1.30116e-8 
          219.8      2.81759e-8 
            223      5.48651e-8 
          226.8      1.18267e-7 
            230        4.152e-6 
            234      1.02617e-5 
            240      2.77753e-5 
          246.5      7.75007e-5 
          252.4     0.000190287 
          256.8      0.00034616 
            260     0.000583039 
            264     0.000989769 
          268.5      0.00180045 
          273.5      0.00338568 
          278.5      0.00627492 
            284       0.0129321 
            290       0.0253085 
            296       0.0485445 
            301       0.0814034 
            308         0.17269 
            318        0.465752 
            328         1.10266 
            338         2.64265 
            348         5.82216 
            357         30.6322 
            366         64.6556 
            375         108.064 
            385         197.412 
            395         382.585 
            405         635.634 
            414         1016.62 
            422         1477.54 
            430         2195.99 
            441         3564.65 
            451         5312.53 
            460         7448.42 
            470         11070.3 
            480         15813.6 
            490           22712 
            500         31666.4 
            506          218472 
            512      2.31001e+6 
            520      2.66135e+6 
            530      3.36052e+6 
            540      3.51059e+6 
            550      5.71981e+6 
            560      7.01743e+6 
            570      8.71498e+6 
            580      8.09811e+6 
            590      1.15746e+7 
            600      1.35277e+7 
            610      1.66769e+7 
            620       1.8563e+7 
            630      2.04558e+7 
            640      1.97958e+7 
            650      1.62319e+7 
            658      2.52308e+7 
            665      2.91851e+7 
            675      2.96637e+7 
            685      3.04153e+7 
            695      4.10809e+7 
            705       4.1877e+7 
            716      4.84183e+7 
            726      4.95689e+7 
            735      5.38666e+7 
            745      6.29069e+7 
            755      6.80793e+7 
            765      7.43513e+7 
            775      8.08875e+7 
            785      8.75515e+7 
            795      9.13712e+7 
            805      9.63704e+7 
            815      1.00265e+8 
            825      1.10994e+8 
            835      9.18448e+7 
            845      1.16402e+8 
            855       1.2041e+8 
            865      1.29857e+8 
            875      1.39768e+8 
            885      1.53866e+8 
            895      1.62943e+8 
            905      1.60337e+8 
            915      3.36657e+8 
            925      4.10863e+9 
            935       7.5598e+9 
            945     1.05549e+10 
            955     1.20558e+10 
            965     1.16151e+10 
            975      2.18237e+9 
            985      7.91841e+9 
            995      9.35864e+9 
           1005     1.21453e+10 
           1015     1.24941e+10 
           1025      9.19569e+9 
           1035      9.48097e+9 
           1045     1.53648e+10 
           1055     1.39752e+10 
           1065     1.06161e+10 
           1075     1.30711e+10 
           1085      1.1646e+10 
           1095     1.36232e+10 
           1105     1.13782e+10 
           1115     1.00586e+10 
           1125      7.95593e+9 
           1135       1.256e+10 
           1145     1.13939e+10 
           1155     1.19278e+10 
           1165     1.19343e+10 
           1175      6.60615e+9 
           1185       1.138e+10 
           1195      9.56106e+9 
           1205      3.68888e+9 
           1215      6.42818e+9 
           1225     1.01562e+10 
           1235     1.17302e+10 
           1245      1.1396e+10 
           1255     1.12984e+10 
           1265     1.13467e+10 
           1275     1.18472e+10 
           1285     1.15805e+10 
           1295      6.07925e+9 
           1305      7.14669e+9 
           1315     1.13043e+10 
           1325     1.05914e+10 
           1335     1.00757e+10 
           1345     1.05025e+10 
           1355     1.03925e+10 
           1365      9.34957e+9 
           1375      9.05964e+9 
           1385      8.41257e+9 
           1395      4.81572e+9 
           1405      5.87053e+9 
           1415      7.68314e+9 
           1425      7.90424e+9 
           1435      8.28787e+9 
           1442       8.5618e+9 
           1447      8.38093e+9 
           1455      8.09131e+9 
           1465      7.40882e+9 
           1475      7.65779e+9 
           1485      7.56406e+9 
           1495      7.39662e+9 
           1505      6.68392e+9 
           1512      5.92133e+9 
           1517       6.1821e+9 
           1525      6.43313e+9 
           1535      5.39426e+9 
           1545      5.26563e+9 
           1555       5.1235e+9 
           1565      5.60582e+9 
           1575      6.02889e+9 
           1585      6.04738e+9 
           1595      6.00806e+9 
           1605      6.10878e+9 
           1615       6.0195e+9 
           1625      5.87216e+9 
           1635      6.30366e+9 
           1645      6.32011e+9 
           1655      6.18111e+9 
           1665      6.32397e+9 
           1672      6.02695e+9 
           1677      6.61637e+9 
           1685      6.43056e+9 
           1695        6.009e+9 
           1705      5.86977e+9 
           1715      5.47542e+9 
           1725      5.46668e+9 
           1735      5.72523e+9 
           1745      5.58248e+9 
           1755      5.62068e+9 
           1765      5.58499e+9 
           1775      5.16495e+9 
           1785      5.27762e+9 
           1795      5.51784e+9 
           1805      5.59459e+9 
           1815      4.85312e+9 
           1825      5.15106e+9 
           1835      4.97144e+9 
           1845      4.51297e+9 
           1855      4.51623e+9 
           1865       4.5953e+9 
           1875      4.89715e+9 
           1885      4.31531e+9 
           1895      3.98737e+9 
           1905      4.43186e+9 
           1915      4.09056e+9 
           1925      3.88703e+9 
           1935      4.18684e+9 
           1945      4.23551e+9 
           1955      3.80482e+9 
           1967      4.23302e+9 
           1976      4.41202e+9 
           1984      4.09667e+9 
           1995      4.01167e+9 
           2005      4.22956e+9 
           2015      4.15586e+9 
           2025      4.29801e+9 
           2035      3.87171e+9 
           2045      4.00032e+9 
           2055       3.8348e+9 
           2065      3.80853e+9 
           2074      4.09347e+9 
           2078      3.59613e+9 
           2085      3.89874e+9 
           2095      3.65972e+9 
           2105      3.78105e+9 
           2115      3.83313e+9 
           2125      3.85571e+9 
           2135      3.81174e+9 
           2145      3.56675e+9 
           2155      3.77165e+9 
           2165      3.78327e+9 
           2175      3.73709e+9 
           2185      3.57718e+9 
           2195      3.65609e+9 
           2205      3.65996e+9 
           2215      3.58783e+9 
           2225      3.48952e+9 
           2235      3.44833e+9 
           2245      3.50028e+9 
           2255      3.37136e+9 
           2265      3.43815e+9 
           2275      3.38804e+9 
           2285      3.39424e+9 
           2295      3.05366e+9 
           2305      3.27908e+9 
           2315      3.17223e+9 
           2325      3.13747e+9 
           2335      3.01392e+9 
           2345      3.05993e+9 
           2355      3.06375e+9 
           2365      3.03769e+9 
           2375      2.98064e+9 
           2385      2.95888e+9 
           2395      2.93507e+9 
           2405      2.87626e+9 
           2415      2.85165e+9 
           2425      2.85643e+9 
           2435      2.76847e+9 
           2445      2.78828e+9 
           2455      2.79374e+9 
           2465      2.73565e+9 
           2475      2.68678e+9 
           2485      2.61041e+9 
           2495      2.08347e+9 
           2505      2.50339e+9 
           2513      2.45437e+9 
           2518      2.55028e+9 
           2525      2.52186e+9 
           2535       2.4986e+9 
           2545      2.37134e+9 
           2555      2.45092e+9 
           2565      2.40608e+9 
           2575      2.43857e+9 
           2585      2.39595e+9 
           2595      2.38054e+9 
           2605      2.37012e+9 
           2615      2.32939e+9 
           2625      2.31577e+9 
           2635      2.29747e+9 
           2645      2.28282e+9 
           2655      2.27384e+9 
           2665      2.18005e+9 
           2675      2.20053e+9 
           2685      2.19175e+9 
           2695      2.11653e+9 
           2705      2.07924e+9 
           2715      2.08531e+9 
           2725      2.07516e+9 
           2735      2.06319e+9 
           2745      2.00688e+9 
           2755      2.00386e+9 
           2765      1.98934e+9 
           2775      2.00252e+9 
           2785      1.96675e+9 
           2795      1.89126e+9 
           2805      1.92147e+9 
           2815      1.91973e+9 
           2825      1.90134e+9 
           2835      1.82866e+9 
           2845      1.84938e+9 
           2855      1.81519e+9 
           2865      1.82191e+9 
           2875      1.80115e+9 
           2885       1.7871e+9 
           2895      1.75383e+9 
           2910      1.71897e+9 
           2930      1.69927e+9 
           2950      1.65298e+9 
           2970      1.63169e+9 
           2990      1.59645e+9 
           3010      1.53484e+9 
           3030      1.53549e+9 
           3050      1.51433e+9 
           3070      1.49362e+9 
           3090      1.42961e+9 
           3110       1.4297e+9 
           3130      1.39507e+9 
           3150      1.37551e+9 
           3170      1.34145e+9 
           3190       1.3158e+9 
           3210      1.29924e+9 
           3230      1.26817e+9 
           3250      1.25244e+9 
           3270      1.22451e+9 
           3290      1.20132e+9 
           3310      1.18145e+9 
           3330      1.15711e+9 
           3350      1.13843e+9 
           3370       1.1157e+9 
           3390      1.10054e+9 
           3410        1.082e+9 
           3430      1.05927e+9 
           3450      1.03718e+9 
           3470      1.01941e+9 
           3490      1.00021e+9 
           3510      9.86338e+8 
           3530      9.74347e+8 
           3550      9.56284e+8 
           3570      9.42053e+8 
           3590      9.15947e+8 
           3610      9.00189e+8 
           3630      8.88953e+8 
           3640      8.87857e+8 
           3650       8.7378e+8 
           3670      8.64143e+8 
           3690      8.37149e+8 
           3710      8.25383e+8 
           3730      8.19561e+8 
           3750      8.81433e+8 
           3770      8.70542e+8 
           3790      8.80865e+8 
           3810      9.04419e+8 
           3830       8.1975e+8 
           3850      8.91748e+8 
           3870      8.68367e+8 
           3890      7.87885e+8 
           3910      8.63407e+8 
           3930      8.30078e+8 
           3950      8.27465e+8 
           3970      7.30947e+8 
           3990      8.02462e+8 
           4010      7.93282e+8 
           4030      7.64157e+8 
           4050      7.66482e+8 
           4070      7.34814e+8 
           4090      7.09201e+8 
           4110      6.56195e+8 
           4130      7.01714e+8 
           4150       6.9652e+8 
           4170      6.93061e+8 
           4190      6.85452e+8 
           4210      6.79805e+8 
           4230      6.64802e+8 
           4250       6.4811e+8 
           4270       6.3009e+8 
           4290      6.22632e+8 
           4310      6.07193e+8 
           4330      5.83995e+8 
           4350       5.4302e+8 
           4370      5.80573e+8 
           4390      5.78286e+8 
           4410      5.70476e+8 
           4430      5.64953e+8 
           4450      5.56195e+8 
           4470      5.39955e+8 
           4490      5.40107e+8 
           4510      5.36309e+8 
           4530      5.27618e+8 
           4550      5.20552e+8 
           4570       5.1164e+8 
           4590      5.03454e+8 
           4610      4.92625e+8 
           4630       4.8713e+8 
           4650      4.71328e+8 
           4670      4.71998e+8 
           4690      4.68991e+8 
           4710      4.51194e+8 
           4730      4.53162e+8 
           4750      4.45747e+8 
           4770      4.46107e+8 
           4790      4.38498e+8 
           4810      4.29371e+8 
           4830      4.22965e+8 
           4850      4.10979e+8 
           4870      3.76763e+8 
           4890      4.07166e+8 
           4910      4.01715e+8 
           4930      3.90418e+8 
           4950      3.88484e+8 
           4970      3.86873e+8 
           4990      3.80631e+8 
           5010      3.65711e+8 
           5030       3.6936e+8 
           5050      3.60724e+8 
           5070      3.60111e+8 
           5090      3.54393e+8 
           5110      3.49027e+8 
           5130      3.42246e+8 
           5150      3.38783e+8 
           5170      3.35744e+8 
           5190      3.31609e+8 
           5210      3.25348e+8 
           5230      3.22824e+8 
           5250      3.18824e+8 
           5270      3.13791e+8 
           5290      3.10494e+8 
           5310      3.06008e+8 
           5330      3.02098e+8 
           5350      2.97593e+8 
           5370      2.94701e+8 
           5390      2.90469e+8 
           5410      2.87154e+8 
           5430      2.82628e+8 
           5450      2.78985e+8 
           5470      2.75425e+8 
           5490      2.72347e+8 
           5510      2.69318e+8 
           5530      2.65341e+8 
           5550      2.62662e+8 
           5570      2.58994e+8 
           5590      2.56155e+8 
           5610      2.52501e+8 
           5630      2.49878e+8 
           5650      2.44961e+8 
           5670      2.41221e+8 
           5690      2.38003e+8 
           5710      2.36651e+8 
           5730      2.34164e+8 
           5750      2.30453e+8 
           5770      2.28971e+8 
           5790      2.25988e+8 
           5810      2.23263e+8 
           5830      2.20093e+8 
           5850      2.17787e+8 
           5870      2.10554e+8 
           5890      2.10962e+8 
           5910      2.09386e+8 
           5930      2.06615e+8 
           5950      2.03781e+8 
           5970      2.02873e+8 
           5990      1.99441e+8 
           6010      1.97866e+8 
           6030      1.95157e+8 
           6050      1.93076e+8 
           6070      1.91121e+8 
           6090      1.88852e+8 
           6110      1.86729e+8 
           6130      1.84681e+8 
           6150      1.81529e+8 
           6170      1.79869e+8 
           6190      1.78208e+8 
           6210      1.76309e+8 
           6230      1.74354e+8 
           6250      1.71967e+8 
           6270      1.70182e+8 
           6290      1.68378e+8 
           6310      1.66205e+8 
           6330      1.64677e+8 
           6350      1.62034e+8 
           6370      1.60665e+8 
           6390      1.59006e+8 
           6410      1.57273e+8 
           6430       1.5574e+8 
           6450      1.53925e+8 
           6470      1.51723e+8 
           6490      1.50137e+8 
           6510      1.48745e+8 
           6530      1.46837e+8 
           6550      1.43851e+8 
           6570      1.30243e+8 
           6590       1.4113e+8 
           6610      1.40691e+8 
           6630      1.39364e+8 
           6650      1.37692e+8 
           6670       1.3547e+8 
           6690      1.34089e+8 
           6710      1.33559e+8 
           6730      1.31776e+8 
           6750      1.30806e+8 
           6770      1.29434e+8 
           6790      1.27112e+8 
           6810      1.26505e+8 
           6830      1.25055e+8 
           6850      1.23996e+8 
           6870      1.22677e+8 
           6890      1.21243e+8 
           6910      1.19809e+8 
           6930      1.18851e+8 
           6950        1.177e+8 
           6970      1.16499e+8 
           6990      1.15231e+8 
           7010      1.14038e+8 
           7030      1.12864e+8 
           7050      1.11732e+8 
           7070      1.08923e+8 
           7090      1.09486e+8 
           7110      1.07611e+8 
           7130      1.06616e+8 
           7150      1.06138e+8 
           7170      1.05092e+8 
           7190      1.04078e+8 
           7210      1.03024e+8 
           7230      1.00508e+8 
           7250      1.00707e+8 
           7270      9.99472e+7 
           7290      9.82228e+7 
           7310       9.7954e+7 
           7330      9.69574e+7 
           7350      9.60539e+7 
           7370      9.51241e+7 
           7390      9.41822e+7 
           7410      9.32628e+7 
           7430        9.227e+7 
           7450      9.14156e+7 
           7470      9.00018e+7 
           7490      8.95956e+7 
           7510      8.87517e+7 
           7530      8.78423e+7 
           7550      8.71066e+7 
           7570      8.62722e+7 
           7590      8.54127e+7 
           7610      8.44829e+7 
           7630      8.37947e+7 
           7650      8.29967e+7 
           7670       8.2225e+7 
           7690      8.14347e+7 
           7710      8.06515e+7 
           7730      7.98438e+7 
           7750      7.91563e+7 
           7770      7.78632e+7 
           7790      7.76936e+7 
           7810      7.69133e+7 
           7830      7.62505e+7 
           7850      7.54834e+7 
           7870      7.47049e+7 
           7890      7.38183e+7 
           7910      7.33913e+7 
           7930      7.26382e+7 
           7950      7.18261e+7 
           7970      7.12466e+7 
           7990      7.05127e+7 
           8010      7.00025e+7 
           8030      6.93972e+7 
           8050      6.88086e+7 
           8070       6.8225e+7 
           8090      6.75082e+7 
           8110      6.66029e+7 
           8130      6.64124e+7 
           8150      6.57181e+7 
           8170      6.52613e+7 
           8190      6.43757e+7 
           8210      6.37495e+7 
           8230      6.31285e+7 
           8250      6.28948e+7 
           8270      6.16931e+7 
           8290      6.16753e+7 
           8310      6.11661e+7 
           8330      6.06664e+7 
           8350      5.98628e+7 
           8370      5.93351e+7 
           8390      5.89509e+7 
           8410      5.83565e+7 
           8430       5.7852e+7 
           8450      5.68873e+7 
           8470      5.64614e+7 
           8490      5.66295e+7 
           8510      5.51724e+7 
           8530      5.59599e+7 
           8550      5.34824e+7 
           8570      5.57311e+7 
           8590      5.32101e+7 
