# Kurucz ODFNEW /NOVER (2003)
# teff = 26000 K (value for the effective temperature for the model. Temperatures are given in K)
# logg = 5 log(cm/s2) (value for Log(G) for the model.)
# meta = 0.5  (value for the Metallicity for the model.)
# lh = 1.25  (l/Hp where l is the  mixing length of the convective element and Hp is the pressure scale height)
# vtur = 2 km/s (Microturbulence velocity)
# alpha = 0  (Alpha)
#
# column 1: WAVELENGTH (ANGSTROM), Wavelength in Angstrom
# column 2: FLUX (ERG/CM2/S/A), Flux in erg/cm2/s/A
          147.2     3.22677e-12 
            151     1.18385e-11 
          155.2     4.64205e-11 
          158.8     1.41782e-10 
            162     3.68102e-10 
            166      1.15504e-9 
          170.3      3.71506e-9 
          173.4      8.39409e-9 
          176.8      1.98101e-8 
          180.2      4.53381e-8 
          181.7      6.46644e-8 
          186.1      1.78253e-7 
            191      5.24288e-7 
          193.9      9.68978e-7 
          198.4      2.43116e-6 
          201.8      4.74639e-6 
            205      8.73725e-6 
          210.5      2.39708e-5 
          216.2      6.48426e-5 
          219.8     0.000118574 
            223     0.000199664 
          226.8     0.000364834 
            230        0.014023 
            234       0.0306992 
            240       0.0672815 
          246.5        0.151381 
          252.4         0.30986 
          256.8        0.496803 
            260        0.784389 
            264         1.19668 
          268.5         1.92743 
          273.5         3.18755 
          278.5         5.19324 
            284         9.37667 
            290         15.9275 
            296         26.6917 
            301         40.0609 
            308         73.5477 
            318         163.013 
            328         319.994 
            338         644.282 
            348         1202.01 
            357         4426.49 
            366         8288.24 
            375         12166.5 
            385         19593.7 
            395         34472.5 
            405         50793.3 
            414         73776.1 
            422          101832 
            430          142581 
            441          208180 
            451          279101 
            460          361472 
            470          499094 
            480          666111 
            490          887581 
            500       1.1406e+6 
            506      4.07517e+6 
            512      4.13356e+7 
            520      4.58024e+7 
            530      5.16464e+7 
            540       5.4401e+7 
            550      7.71629e+7 
            560      8.93723e+7 
            570      1.04106e+8 
            580      1.00736e+8 
            590      1.26915e+8 
            600      1.35361e+8 
            610      1.54185e+8 
            620      1.62893e+8 
            630      1.62993e+8 
            640      1.39958e+8 
            650      1.08115e+8 
            658      1.54324e+8 
            665      1.96805e+8 
            675      2.21321e+8 
            685      2.24958e+8 
            695      3.06523e+8 
            705      3.11222e+8 
            716      3.52357e+8 
            726      3.63131e+8 
            735      3.73148e+8 
            745      4.22821e+8 
            755      4.46755e+8 
            765      4.77162e+8 
            775      5.04254e+8 
            785       5.3583e+8 
            795      5.47303e+8 
            805      5.62096e+8 
            815      5.75566e+8 
            825      6.23524e+8 
            835      5.43785e+8 
            845      6.29179e+8 
            855      6.34646e+8 
            865      6.74989e+8 
            875      7.12003e+8 
            885      7.66422e+8 
            895      7.95481e+8 
            905      7.71605e+8 
            915      9.10522e+8 
            925      3.56914e+9 
            935      7.88084e+9 
            945     1.76839e+10 
            955     2.60329e+10 
            965     3.28574e+10 
            975      5.17246e+9 
            985     2.89176e+10 
            995     2.81554e+10 
           1005     3.45519e+10 
           1015     3.42091e+10 
           1025     1.33061e+10 
           1035     2.58373e+10 
           1045     4.41715e+10 
           1055     4.05593e+10 
           1065     2.97813e+10 
           1075     3.60584e+10 
           1085     3.21487e+10 
           1095     3.66824e+10 
           1105      3.2498e+10 
           1115     3.06026e+10 
           1125     2.30632e+10 
           1135     3.24083e+10 
           1145     2.80654e+10 
           1155     2.94374e+10 
           1165     2.87649e+10 
           1175      1.5446e+10 
           1185     2.72012e+10 
           1195     2.45276e+10 
           1205     1.58164e+10 
           1215     1.07099e+10 
           1225     2.07838e+10 
           1235     2.66166e+10 
           1245     2.57849e+10 
           1255     2.52321e+10 
           1265      2.6099e+10 
           1275     2.69287e+10 
           1285     2.70816e+10 
           1295     1.77092e+10 
           1305     1.89437e+10 
           1315     2.61062e+10 
           1325     2.36579e+10 
           1335     2.28292e+10 
           1345     2.32449e+10 
           1355     2.29872e+10 
           1365     2.01535e+10 
           1375     1.94274e+10 
           1385     1.88319e+10 
           1395     1.30129e+10 
           1405     1.43365e+10 
           1415     1.62245e+10 
           1425     1.60512e+10 
           1435     1.67329e+10 
           1442     1.73133e+10 
           1447     1.70332e+10 
           1455     1.63871e+10 
           1465     1.47155e+10 
           1475     1.52093e+10 
           1485       1.492e+10 
           1495     1.46485e+10 
           1505     1.27403e+10 
           1512     1.13869e+10 
           1517     1.17898e+10 
           1525     1.23469e+10 
           1535     1.01602e+10 
           1545      9.69228e+9 
           1555      9.55929e+9 
           1565     1.04567e+10 
           1575      1.1178e+10 
           1585     1.13301e+10 
           1595     1.11405e+10 
           1605     1.15578e+10 
           1615     1.12385e+10 
           1625     1.09953e+10 
           1635     1.18078e+10 
           1645     1.18179e+10 
           1655     1.16128e+10 
           1665     1.19711e+10 
           1672     1.12829e+10 
           1677     1.24728e+10 
           1685     1.20873e+10 
           1695      1.1311e+10 
           1705      1.0944e+10 
           1715     1.02985e+10 
           1725     1.00023e+10 
           1735     1.05889e+10 
           1745     1.03104e+10 
           1755     1.03835e+10 
           1765     1.01531e+10 
           1775      9.45224e+9 
           1785      9.69117e+9 
           1795     1.01198e+10 
           1805     1.02208e+10 
           1815      8.93636e+9 
           1825      9.36421e+9 
           1835      8.97657e+9 
           1845      8.08402e+9 
           1855      8.19788e+9 
           1865      8.30062e+9 
           1875      8.81465e+9 
           1885       7.7222e+9 
           1895      7.17953e+9 
           1905      7.88012e+9 
           1915      7.26179e+9 
           1925      6.85034e+9 
           1935       7.3807e+9 
           1945      7.55914e+9 
           1955      6.72086e+9 
           1967      7.42176e+9 
           1976      7.76349e+9 
           1984      7.09566e+9 
           1995      6.99927e+9 
           2005      7.33793e+9 
           2015      7.16312e+9 
           2025      7.42843e+9 
           2035      6.69607e+9 
           2045      6.87748e+9 
           2055      6.57618e+9 
           2065       6.5706e+9 
           2074      6.86577e+9 
           2078      6.14664e+9 
           2085      6.54584e+9 
           2095      6.13896e+9 
           2105      6.44186e+9 
           2115      6.47693e+9 
           2125      6.52056e+9 
           2135      6.36879e+9 
           2145      6.03001e+9 
           2155      6.31611e+9 
           2165      6.27903e+9 
           2175      6.20136e+9 
           2185      5.95029e+9 
           2195      6.06494e+9 
           2205      6.03353e+9 
           2215      5.91214e+9 
           2225       5.7296e+9 
           2235      5.66434e+9 
           2245      5.71206e+9 
           2255      5.47829e+9 
           2265      5.59107e+9 
           2275      5.48881e+9 
           2285      5.49182e+9 
           2295      4.94495e+9 
           2305      5.27156e+9 
           2315      5.09122e+9 
           2325       5.0409e+9 
           2335      4.86156e+9 
           2345      4.89657e+9 
           2355      4.87817e+9 
           2365      4.81558e+9 
           2375      4.70566e+9 
           2385       4.6784e+9 
           2395      4.64283e+9 
           2405      4.52112e+9 
           2415      4.51005e+9 
           2425      4.50458e+9 
           2435      4.33855e+9 
           2445      4.36772e+9 
           2455      4.37591e+9 
           2465      4.28622e+9 
           2475      4.21722e+9 
           2485      4.14277e+9 
           2495      3.61132e+9 
           2505      4.01505e+9 
           2513      3.80633e+9 
           2518       3.9819e+9 
           2525      3.91583e+9 
           2535       3.8677e+9 
           2545      3.71801e+9 
           2555      3.78667e+9 
           2565      3.72731e+9 
           2575      3.74666e+9 
           2585      3.70617e+9 
           2595      3.66971e+9 
           2605      3.62366e+9 
           2615      3.57611e+9 
           2625      3.55028e+9 
           2635       3.5229e+9 
           2645       3.4779e+9 
           2655      3.47339e+9 
           2665      3.29418e+9 
           2675       3.3323e+9 
           2685      3.31882e+9 
           2695      3.18084e+9 
           2705      3.09574e+9 
           2715      3.10993e+9 
           2725      3.11977e+9 
           2735      3.10354e+9 
           2745      3.00028e+9 
           2755      2.99809e+9 
           2765      2.96639e+9 
           2775      3.01085e+9 
           2785      2.95444e+9 
           2795      2.82575e+9 
           2805      2.85869e+9 
           2815      2.88025e+9 
           2825      2.83039e+9 
           2835      2.69722e+9 
           2845      2.75094e+9 
           2855      2.70351e+9 
           2865      2.71162e+9 
           2875      2.67902e+9 
           2885      2.64061e+9 
           2895      2.60154e+9 
           2910      2.54725e+9 
           2930      2.52155e+9 
           2950       2.4367e+9 
           2970      2.40715e+9 
           2990      2.34488e+9 
           3010      2.25898e+9 
           3030      2.25724e+9 
           3050       2.2181e+9 
           3070      2.18633e+9 
           3090      2.09117e+9 
           3110      2.08699e+9 
           3130      2.03241e+9 
           3150      2.00186e+9 
           3170      1.94129e+9 
           3190      1.90266e+9 
           3210      1.88312e+9 
           3230      1.83582e+9 
           3250      1.80937e+9 
           3270      1.76736e+9 
           3290      1.73202e+9 
           3310      1.70029e+9 
           3330      1.66131e+9 
           3350      1.63284e+9 
           3370      1.59785e+9 
           3390      1.57499e+9 
           3410      1.54452e+9 
           3430      1.51013e+9 
           3450      1.47618e+9 
           3470      1.44946e+9 
           3490      1.41978e+9 
           3510      1.39438e+9 
           3530      1.37484e+9 
           3550      1.34884e+9 
           3570      1.33197e+9 
           3590      1.28499e+9 
           3610      1.26738e+9 
           3630      1.24822e+9 
           3640      1.24987e+9 
           3650      1.22997e+9 
           3670      1.21662e+9 
           3690      1.19647e+9 
           3710      1.15019e+9 
           3730      1.11411e+9 
           3750      1.10119e+9 
           3770      1.06608e+9 
           3790      1.10432e+9 
           3810       1.1464e+9 
           3830      9.99679e+8 
           3850      1.16789e+9 
           3870      1.17567e+9 
           3890      9.34697e+8 
           3910       1.1807e+9 
           3930      1.15351e+9 
           3950      1.13001e+9 
           3970       8.6834e+8 
           3990      1.08574e+9 
           4010      1.09881e+9 
           4030      1.02008e+9 
           4050      1.06281e+9 
           4070      1.00068e+9 
           4090      9.14951e+8 
           4110       8.0979e+8 
           4130      9.58979e+8 
           4150      9.58771e+8 
           4170      9.59757e+8 
           4190      9.50659e+8 
           4210       9.4473e+8 
           4230      9.21122e+8 
           4250      8.89676e+8 
           4270      8.61092e+8 
           4290      8.54085e+8 
           4310      8.19346e+8 
           4330      7.33872e+8 
           4350      6.73663e+8 
           4370      7.75459e+8 
           4390      7.74371e+8 
           4410      7.77339e+8 
           4430      7.73139e+8 
           4450      7.60783e+8 
           4470      7.12944e+8 
           4490      7.34974e+8 
           4510      7.34471e+8 
           4530       7.2128e+8 
           4550      7.12751e+8 
           4570      7.00141e+8 
           4590      6.88188e+8 
           4610      6.68137e+8 
           4630      6.56701e+8 
           4650      6.37927e+8 
           4670      6.41215e+8 
           4690      6.36871e+8 
           4710      6.06629e+8 
           4730      6.11597e+8 
           4750      6.02583e+8 
           4770      6.04661e+8 
           4790      5.91609e+8 
           4810      5.75741e+8 
           4830      5.62295e+8 
           4850      5.10981e+8 
           4870      4.53882e+8 
           4890      5.38072e+8 
           4910      5.36761e+8 
           4930      5.14465e+8 
           4950      5.21602e+8 
           4970      5.19608e+8 
           4990      5.10141e+8 
           5010      4.83337e+8 
           5030       4.9326e+8 
           5050      4.79714e+8 
           5070       4.8199e+8 
           5090       4.7312e+8 
           5110      4.64245e+8 
           5130      4.50754e+8 
           5150      4.46635e+8 
           5170      4.46583e+8 
           5190       4.4119e+8 
           5210      4.32327e+8 
           5230      4.28393e+8 
           5250      4.22839e+8 
           5270      4.15268e+8 
           5290      4.11501e+8 
           5310      4.05187e+8 
           5330      3.99487e+8 
           5350       3.9257e+8 
           5370      3.89547e+8 
           5390      3.83912e+8 
           5410      3.79148e+8 
           5430      3.73076e+8 
           5450      3.67845e+8 
           5470      3.62717e+8 
           5490      3.58329e+8 
           5510       3.5469e+8 
           5530       3.4868e+8 
           5550      3.45523e+8 
           5570      3.40569e+8 
           5590      3.36726e+8 
           5610      3.31684e+8 
           5630       3.2806e+8 
           5650      3.20643e+8 
           5670        3.148e+8 
           5690      3.10438e+8 
           5710       3.0918e+8 
           5730      3.06119e+8 
           5750      3.01099e+8 
           5770      2.99287e+8 
           5790      2.95054e+8 
           5810      2.91341e+8 
           5830      2.86774e+8 
           5850      2.83693e+8 
           5870      2.69934e+8 
           5890      2.72425e+8 
           5910       2.7175e+8 
           5930      2.68056e+8 
           5950      2.64203e+8 
           5970      2.63725e+8 
           5990      2.58502e+8 
           6010      2.56847e+8 
           6030      2.52887e+8 
           6050      2.50137e+8 
           6070      2.47725e+8 
           6090      2.44658e+8 
           6110      2.41727e+8 
           6130       2.3917e+8 
           6150      2.33931e+8 
           6170      2.32239e+8 
           6190      2.30318e+8 
           6210      2.27899e+8 
           6230      2.25341e+8 
           6250       2.2149e+8 
           6270      2.19399e+8 
           6290      2.17206e+8 
           6310      2.14346e+8 
           6330      2.12307e+8 
           6350      2.08534e+8 
           6370      2.07022e+8 
           6390      2.04695e+8 
           6410      2.02383e+8 
           6430      2.00416e+8 
           6450      1.97889e+8 
           6470      1.94345e+8 
           6490      1.92586e+8 
           6510      1.90435e+8 
           6530      1.86815e+8 
           6550      1.76034e+8 
           6570      1.53581e+8 
           6590      1.77512e+8 
           6610      1.79363e+8 
           6630      1.78222e+8 
           6650      1.76393e+8 
           6670      1.72272e+8 
           6690      1.70545e+8 
           6710      1.70893e+8 
           6730       1.6844e+8 
           6750      1.67253e+8 
           6770      1.65428e+8 
           6790      1.61391e+8 
           6810      1.61305e+8 
           6830      1.59611e+8 
           6850      1.58231e+8 
           6870      1.56497e+8 
           6890      1.54574e+8 
           6910       1.5271e+8 
           6930      1.51422e+8 
           6950      1.49912e+8 
           6970      1.48347e+8 
           6990      1.46697e+8 
           7010      1.45072e+8 
           7030      1.43508e+8 
           7050      1.41914e+8 
           7070      1.37601e+8 
           7090      1.38594e+8 
           7110      1.36392e+8 
           7130       1.3505e+8 
           7150      1.34207e+8 
           7170      1.33137e+8 
           7190      1.32026e+8 
           7210      1.30656e+8 
           7230       1.2667e+8 
           7250      1.27671e+8 
           7270      1.26634e+8 
           7290      1.24189e+8 
           7310      1.24018e+8 
           7330      1.22697e+8 
           7350      1.21549e+8 
           7370      1.20336e+8 
           7390      1.19113e+8 
           7410      1.17915e+8 
           7430      1.16578e+8 
           7450      1.15498e+8 
           7470      1.13611e+8 
           7490      1.13086e+8 
           7510      1.11983e+8 
           7530      1.10751e+8 
           7550      1.09875e+8 
           7570      1.08808e+8 
           7590      1.07693e+8 
           7610      1.06464e+8 
           7630      1.05551e+8 
           7650      1.04562e+8 
           7670      1.03543e+8 
           7690      1.02521e+8 
           7710      1.01496e+8 
           7730      1.00467e+8 
           7750      9.95914e+7 
           7770      9.78251e+7 
           7790      9.76773e+7 
           7810      9.66836e+7 
           7830      9.58093e+7 
           7850      9.47471e+7 
           7870      9.37491e+7 
           7890      9.24998e+7 
           7910      9.20568e+7 
           7930      9.11916e+7 
           7950      9.01611e+7 
           7970      8.94601e+7 
           7990      8.83814e+7 
           8010      8.77468e+7 
           8030      8.69188e+7 
           8050      8.61154e+7 
           8070      8.53131e+7 
           8090      8.44888e+7 
           8110       8.3202e+7 
           8130      8.29984e+7 
           8150      8.22342e+7 
           8170      8.15442e+7 
           8190      8.03321e+7 
           8210      7.96505e+7 
           8230      7.86298e+7 
           8250      7.85092e+7 
           8270      7.69731e+7 
           8290      7.70353e+7 
           8310      7.64303e+7 
           8330      7.57706e+7 
           8350       7.4738e+7 
           8370      7.42092e+7 
           8390      7.37648e+7 
           8410      7.30416e+7 
           8430      7.24091e+7 
           8450      7.09641e+7 
           8470      7.11492e+7 
           8490      7.02813e+7 
           8510      6.97536e+7 
           8530      6.90748e+7 
           8550      6.83295e+7 
           8570      6.81289e+7 
           8590      6.62344e+7 
