# Kurucz ODFNEW /NOVER (2003)
# teff = 19000 K (value for the effective temperature for the model. Temperatures are given in K)
# logg = 2.5 log(cm/s2) (value for Log(G) for the model.)
# meta = -0.5  (value for the Metallicity for the model.)
# lh = 1.25  (l/Hp where l is the  mixing length of the convective element and Hp is the pressure scale height)
# vtur = 2 km/s (Microturbulence velocity)
# alpha = 0.4  (Alpha)
#
# column 1: WAVELENGTH (ANGSTROM), Wavelength in Angstrom
# column 2: FLUX (ERG/CM2/S/A), Flux in erg/cm2/s/A
          147.2     7.66939e-22 
            151     5.38452e-21 
          155.2     4.11575e-20 
          158.8     2.17142e-19 
            162     8.99477e-19 
            166     4.94536e-18 
          170.3     2.83865e-17 
          173.4     9.51986e-17 
          176.8      3.4245e-16 
          180.2     1.17606e-15 
          181.7     1.99805e-15 
          186.1     9.02849e-15 
            191     4.47364e-14 
          193.9     1.11143e-13 
          198.4     4.33287e-13 
          201.8     1.16433e-12 
            205     2.86583e-12 
          210.5     1.26443e-11 
          216.2     5.44077e-11 
          219.8     1.31526e-10 
            223     2.81367e-10 
          226.8     6.74972e-10 
            230      1.34804e-8 
            234      3.62859e-8 
            240      1.13987e-7 
          246.5      3.69542e-7 
          252.4      1.03151e-6 
          256.8      2.06679e-6 
            260      3.59448e-6 
            264      6.69341e-6 
          268.5       1.3177e-5 
          273.5      2.71408e-5 
          278.5      5.48904e-5 
            284     0.000117438 
            290     0.000254747 
            296     0.000535279 
            301      0.00097067 
            308      0.00214627 
            318      0.00654743 
            328       0.0177842 
            338       0.0470038 
            348        0.115336 
            357        0.281838 
            366         0.58955 
            375         1.14732 
            385         2.35409 
            395         4.64414 
            405         8.81045 
            414         15.3658 
            422         24.2834 
            430         38.1314 
            441         68.9337 
            451         115.059 
            460         177.479 
            470         283.511 
            480         440.793 
            490         677.077 
            500         1019.94 
            506          9882.9 
            512         68859.1 
            520         88433.9 
            530          132364 
            540          146286 
            550          239351 
            560          298116 
            570          391490 
            580          377021 
            590          542670 
            600          714813 
            610          910023 
            620      1.06688e+6 
            630       1.2681e+6 
            640      1.39682e+6 
            650      1.54437e+6 
            658      1.99553e+6 
            665       2.1777e+6 
            675      2.37874e+6 
            685      2.66218e+6 
            695      3.34999e+6 
            705      3.69108e+6 
            716      4.34081e+6 
            726      4.75168e+6 
            735      5.25932e+6 
            745      6.17394e+6 
            755      6.95002e+6 
            765       7.7879e+6 
            775      8.77431e+6 
            785       9.7541e+6 
            795      1.05891e+7 
            805      1.15822e+7 
            815      1.24908e+7 
            825      1.39865e+7 
            835      1.36843e+7 
            845      1.59424e+7 
            855      1.72187e+7 
            865       1.8863e+7 
            875      2.07175e+7 
            885      2.29474e+7 
            895      2.47834e+7 
            905       2.5397e+7 
            915      6.75591e+7 
            925      1.39152e+9 
            935      2.71137e+9 
            945      3.95719e+9 
            955      4.61316e+9 
            965      4.64467e+9 
            975      1.06588e+9 
            985      3.69136e+9 
            995      4.02976e+9 
           1005      5.00851e+9 
           1015      5.06938e+9 
           1025      3.58053e+9 
           1035      3.66381e+9 
           1045      6.17346e+9 
           1055      5.69211e+9 
           1065      4.58695e+9 
           1075      5.61333e+9 
           1085      4.90103e+9 
           1095      5.85631e+9 
           1105      4.91929e+9 
           1115      4.50418e+9 
           1125      4.03363e+9 
           1135      5.66633e+9 
           1145       5.1767e+9 
           1155       5.4862e+9 
           1165        5.582e+9 
           1175      3.77759e+9 
           1185      5.54594e+9 
           1195      4.31068e+9 
           1205      1.61153e+9 
           1215      2.49285e+9 
           1225        4.789e+9 
           1235      5.53649e+9 
           1245      5.59009e+9 
           1255      5.47481e+9 
           1265      5.29843e+9 
           1275      5.61609e+9 
           1285      5.47267e+9 
           1295      3.12342e+9 
           1305      3.49139e+9 
           1315      5.36917e+9 
           1325      5.09981e+9 
           1335      4.63073e+9 
           1345      5.09442e+9 
           1355      5.07695e+9 
           1365      4.65325e+9 
           1375      4.61371e+9 
           1385      4.52474e+9 
           1395      3.23197e+9 
           1405      3.66648e+9 
           1415       4.2286e+9 
           1425      4.31343e+9 
           1435      4.44415e+9 
           1442      4.56978e+9 
           1447      4.46881e+9 
           1455      4.37122e+9 
           1465      4.13411e+9 
           1475      4.15565e+9 
           1485      4.10738e+9 
           1495      4.04183e+9 
           1505      3.77391e+9 
           1512      3.41161e+9 
           1517       3.5581e+9 
           1525      3.66115e+9 
           1535      3.23611e+9 
           1545      3.29741e+9 
           1555      3.15309e+9 
           1565      3.34088e+9 
           1575      3.51728e+9 
           1585      3.49313e+9 
           1595      3.52233e+9 
           1605      3.48939e+9 
           1615      3.46235e+9 
           1625       3.3909e+9 
           1635      3.55925e+9 
           1645      3.54437e+9 
           1655      3.45133e+9 
           1665      3.54793e+9 
           1672       3.4319e+9 
           1677       3.5974e+9 
           1685      3.55576e+9 
           1695      3.37034e+9 
           1705      3.26159e+9 
           1715       3.0852e+9 
           1725      3.09347e+9 
           1735      3.20647e+9 
           1745      3.13011e+9 
           1755      3.17245e+9 
           1765      3.08545e+9 
           1775      2.96182e+9 
           1785      2.98607e+9 
           1795      3.10174e+9 
           1805      3.12204e+9 
           1815      2.79086e+9 
           1825      2.93353e+9 
           1835      2.84391e+9 
           1845      2.62259e+9 
           1855      2.54556e+9 
           1865      2.60704e+9 
           1875      2.79191e+9 
           1885      2.50589e+9 
           1895      2.32477e+9 
           1905      2.54999e+9 
           1915       2.3944e+9 
           1925      2.30208e+9 
           1935      2.43813e+9 
           1945      2.45943e+9 
           1955      2.25632e+9 
           1967      2.46353e+9 
           1976      2.55943e+9 
           1984      2.38905e+9 
           1995      2.33476e+9 
           2005      2.42839e+9 
           2015      2.39479e+9 
           2025      2.48355e+9 
           2035      2.26771e+9 
           2045      2.31973e+9 
           2055      2.24903e+9 
           2065      2.25858e+9 
           2074      2.40175e+9 
           2078       2.1525e+9 
           2085      2.28374e+9 
           2095      2.15625e+9 
           2105       2.2119e+9 
           2115      2.22818e+9 
           2125      2.25664e+9 
           2135      2.22398e+9 
           2145      2.09726e+9 
           2155      2.20358e+9 
           2165      2.19838e+9 
           2175      2.17304e+9 
           2185      2.10403e+9 
           2195      2.13854e+9 
           2205      2.12345e+9 
           2215      2.08689e+9 
           2225      2.03598e+9 
           2235      2.02919e+9 
           2245      2.04801e+9 
           2255      1.98002e+9 
           2265      2.01237e+9 
           2275      1.98955e+9 
           2285      1.99562e+9 
           2295      1.88042e+9 
           2305      1.93774e+9 
           2315      1.88272e+9 
           2325      1.86078e+9 
           2335       1.7907e+9 
           2345      1.79814e+9 
           2355      1.81619e+9 
           2365      1.78712e+9 
           2375      1.76743e+9 
           2385      1.74654e+9 
           2395      1.74821e+9 
           2405      1.71338e+9 
           2415      1.69612e+9 
           2425      1.70824e+9 
           2435       1.6598e+9 
           2445      1.66868e+9 
           2455      1.67149e+9 
           2465      1.63613e+9 
           2475      1.61654e+9 
           2485      1.59917e+9 
           2495      1.44367e+9 
           2505      1.56257e+9 
           2513      1.50622e+9 
           2518      1.54944e+9 
           2525      1.52521e+9 
           2535       1.5044e+9 
           2545      1.45061e+9 
           2555      1.49185e+9 
           2565      1.46352e+9 
           2575      1.48075e+9 
           2585      1.46284e+9 
           2595      1.45281e+9 
           2605      1.44651e+9 
           2615      1.42743e+9 
           2625      1.41531e+9 
           2635      1.40383e+9 
           2645      1.40751e+9 
           2655      1.40072e+9 
           2665      1.36312e+9 
           2675      1.36695e+9 
           2685      1.36013e+9 
           2695      1.32495e+9 
           2705      1.31821e+9 
           2715      1.30985e+9 
           2725      1.29178e+9 
           2735      1.29137e+9 
           2745      1.25108e+9 
           2755      1.24941e+9 
           2765        1.243e+9 
           2775      1.24956e+9 
           2785      1.23128e+9 
           2795      1.18709e+9 
           2805      1.20474e+9 
           2815      1.20289e+9 
           2825      1.18821e+9 
           2835      1.15177e+9 
           2845      1.16188e+9 
           2855       1.1496e+9 
           2865      1.14943e+9 
           2875      1.13685e+9 
           2885      1.12916e+9 
           2895      1.11414e+9 
           2910       1.0969e+9 
           2930      1.07609e+9 
           2950      1.05155e+9 
           2970      1.04017e+9 
           2990      1.01846e+9 
           3010      9.94372e+8 
           3030      9.87648e+8 
           3050      9.71174e+8 
           3070      9.55124e+8 
           3090      9.26939e+8 
           3110      9.18989e+8 
           3130      9.02629e+8 
           3150      8.87521e+8 
           3170      8.69722e+8 
           3190      8.49928e+8 
           3210      8.41418e+8 
           3230      8.25686e+8 
           3250      8.13308e+8 
           3270      7.98774e+8 
           3290      7.84358e+8 
           3310      7.72777e+8 
           3330      7.59105e+8 
           3350      7.45402e+8 
           3370      7.33596e+8 
           3390      7.22244e+8 
           3410      7.10654e+8 
           3430      6.95378e+8 
           3450      6.81705e+8 
           3470      6.72118e+8 
           3490      6.62055e+8 
           3510      6.53859e+8 
           3530      6.44566e+8 
           3550      6.33946e+8 
           3570      6.25651e+8 
           3590      6.11041e+8 
           3610      6.00589e+8 
           3630      5.92845e+8 
           3640       5.9181e+8 
           3650      5.79183e+8 
           3670      5.71126e+8 
           3690      5.51643e+8 
           3710      5.65939e+8 
           3730      5.77243e+8 
           3750      6.23288e+8 
           3770      6.16083e+8 
           3790      6.16522e+8 
           3810      6.32359e+8 
           3830       5.7975e+8 
           3850      6.24676e+8 
           3870      6.10161e+8 
           3890       5.6046e+8 
           3910      6.01314e+8 
           3930      5.80818e+8 
           3950      5.81398e+8 
           3970      5.21774e+8 
           3990      5.63197e+8 
           4010      5.54478e+8 
           4030      5.37506e+8 
           4050      5.39697e+8 
           4070      5.25287e+8 
           4090      5.12482e+8 
           4110       4.7441e+8 
           4130      4.99268e+8 
           4150      4.94664e+8 
           4170      4.90602e+8 
           4190      4.85136e+8 
           4210       4.7973e+8 
           4230      4.71457e+8 
           4250      4.62712e+8 
           4270      4.51693e+8 
           4290      4.48147e+8 
           4310      4.40448e+8 
           4330      4.26443e+8 
           4350      3.96808e+8 
           4370      4.21394e+8 
           4390       4.1422e+8 
           4410      4.10937e+8 
           4430      4.04989e+8 
           4450      4.00481e+8 
           4470      3.88157e+8 
           4490       3.8779e+8 
           4510      3.84951e+8 
           4530      3.78751e+8 
           4550      3.73336e+8 
           4570      3.67838e+8 
           4590      3.62852e+8 
           4610      3.57193e+8 
           4630      3.52602e+8 
           4650      3.44558e+8 
           4670      3.42511e+8 
           4690      3.39322e+8 
           4710       3.2894e+8 
           4730      3.28034e+8 
           4750      3.23207e+8 
           4770      3.21876e+8 
           4790      3.17142e+8 
           4810      3.11611e+8 
           4830      3.07486e+8 
           4850      3.00487e+8 
           4870      2.76993e+8 
           4890       2.9619e+8 
           4910      2.92203e+8 
           4930      2.84505e+8 
           4950      2.83994e+8 
           4970      2.81332e+8 
           4990      2.77341e+8 
           5010      2.68903e+8 
           5030      2.69851e+8 
           5050      2.63685e+8 
           5070      2.63103e+8 
           5090      2.59557e+8 
           5110      2.56043e+8 
           5130      2.52032e+8 
           5150      2.49041e+8 
           5170      2.46568e+8 
           5190      2.43469e+8 
           5210      2.39161e+8 
           5230       2.3739e+8 
           5250      2.34437e+8 
           5270      2.31304e+8 
           5290      2.28616e+8 
           5310      2.25628e+8 
           5330      2.22718e+8 
           5350      2.19582e+8 
           5370      2.17453e+8 
           5390      2.14636e+8 
           5410      2.12087e+8 
           5430      2.08904e+8 
           5450      2.06537e+8 
           5470      2.04035e+8 
           5490      2.01813e+8 
           5510      1.99395e+8 
           5530      1.96847e+8 
           5550       1.9466e+8 
           5570      1.92172e+8 
           5590      1.90028e+8 
           5610      1.87466e+8 
           5630      1.85554e+8 
           5650      1.82319e+8 
           5670       1.8011e+8 
           5690      1.78055e+8 
           5710      1.76625e+8 
           5730      1.74625e+8 
           5750      1.72296e+8 
           5770      1.70696e+8 
           5790      1.68687e+8 
           5810      1.66702e+8 
           5830      1.64618e+8 
           5850      1.62823e+8 
           5870      1.57637e+8 
           5890      1.58404e+8 
           5910      1.57107e+8 
           5930      1.55224e+8 
           5950      1.53235e+8 
           5970      1.51978e+8 
           5990      1.49956e+8 
           6010      1.48511e+8 
           6030      1.46741e+8 
           6050      1.45144e+8 
           6070      1.43566e+8 
           6090      1.41923e+8 
           6110       1.4038e+8 
           6130      1.38834e+8 
           6150      1.36936e+8 
           6170      1.35634e+8 
           6190      1.34238e+8 
           6210      1.32769e+8 
           6230      1.31316e+8 
           6250      1.29744e+8 
           6270      1.28401e+8 
           6290      1.27004e+8 
           6310        1.255e+8 
           6330      1.24286e+8 
           6350      1.22457e+8 
           6370      1.21337e+8 
           6390      1.20219e+8 
           6410      1.18929e+8 
           6430      1.17744e+8 
           6450      1.16453e+8 
           6470      1.15068e+8 
           6490      1.13886e+8 
           6510      1.12743e+8 
           6530      1.11497e+8 
           6550      1.09377e+8 
           6570      9.97312e+7 
           6590       1.0735e+8 
           6610      1.06892e+8 
           6630      1.05836e+8 
           6650      1.04732e+8 
           6670      1.03038e+8 
           6690      1.01985e+8 
           6710      1.01562e+8 
           6730      1.00427e+8 
           6750       9.9502e+7 
           6770      9.84794e+7 
           6790      9.71565e+7 
           6810      9.64242e+7 
           6830      9.54161e+7 
           6850      9.45065e+7 
           6870        9.355e+7 
           6890      9.25712e+7 
           6910      9.16179e+7 
           6930      9.07055e+7 
           6950      8.98332e+7 
           6970      8.89384e+7 
           6990      8.80216e+7 
           7010       8.7152e+7 
           7030      8.62833e+7 
           7050      8.54231e+7 
           7070      8.33728e+7 
           7090      8.37649e+7 
           7110      8.27578e+7 
           7130      8.19903e+7 
           7150      8.12965e+7 
           7170      8.04991e+7 
           7190      7.97386e+7 
           7210      7.89634e+7 
           7230      7.73885e+7 
           7250      7.73563e+7 
           7270      7.66818e+7 
           7290      7.53968e+7 
           7310      7.51963e+7 
           7330       7.4485e+7 
           7350      7.37803e+7 
           7370      7.30753e+7 
           7390      7.23767e+7 
           7410      7.16915e+7 
           7430      7.09785e+7 
           7450      7.03332e+7 
           7470      6.95588e+7 
           7490      6.90065e+7 
           7510      6.83389e+7 
           7530      6.77106e+7 
           7550      6.71012e+7 
           7570      6.64775e+7 
           7590      6.58399e+7 
           7610      6.52211e+7 
           7630       6.4633e+7 
           7650      6.40348e+7 
           7670      6.34484e+7 
           7690      6.28582e+7 
           7710      6.22758e+7 
           7730      6.17012e+7 
           7750      6.11423e+7 
           7770      6.02801e+7 
           7790      6.00405e+7 
           7810      5.94492e+7 
           7830       5.8956e+7 
           7850      5.84072e+7 
           7870      5.78735e+7 
           7890      5.72458e+7 
           7910      5.68188e+7 
           7930      5.62546e+7 
           7950      5.56822e+7 
           7970      5.52181e+7 
           7990      5.47095e+7 
           8010      5.42622e+7 
           8030      5.38234e+7 
           8050      5.33755e+7 
           8070      5.29314e+7 
           8090       5.2366e+7 
           8110       5.1871e+7 
           8130      5.15659e+7 
           8150      5.10137e+7 
           8170      5.06824e+7 
           8190       5.0174e+7 
           8210      4.95095e+7 
           8230       4.9154e+7 
           8250      4.88092e+7 
           8270      4.81068e+7 
           8290       4.7903e+7 
           8310      4.74948e+7 
           8330      4.70813e+7 
           8350      4.64968e+7 
           8370       4.6028e+7 
           8390      4.57258e+7 
           8410      4.52854e+7 
           8430      4.49786e+7 
           8450      4.43259e+7 
           8470      4.37413e+7 
           8490       4.4344e+7 
           8510      4.28265e+7 
           8530      4.38711e+7 
           8550       4.1645e+7 
           8570       4.3736e+7 
