# Kurucz ODFNEW /NOVER (2003)
# teff = 19000 K (value for the effective temperature for the model. Temperatures are given in K)
# logg = 4.5 log(cm/s2) (value for Log(G) for the model.)
# meta = -1.5  (value for the Metallicity for the model.)
# lh = 1.25  (l/Hp where l is the  mixing length of the convective element and Hp is the pressure scale height)
# vtur = 2 km/s (Microturbulence velocity)
# alpha = 0  (Alpha)
#
# column 1: WAVELENGTH (ANGSTROM), Wavelength in Angstrom
# column 2: FLUX (ERG/CM2/S/A), Flux in erg/cm2/s/A
          147.2     9.27695e-22 
            151      6.6161e-21 
          155.2     5.15271e-20 
          158.8     2.74494e-19 
            162     1.14384e-18 
            166     6.32303e-18 
          170.3     3.64427e-17 
          173.4     1.22216e-16 
          176.8     4.39482e-16 
          180.2      1.5081e-15 
          181.7     2.56106e-15 
          186.1     1.15423e-14 
            191     5.69653e-14 
          193.9     1.40933e-13 
          198.4     5.46107e-13 
          201.8     1.46276e-12 
            205     3.59276e-12 
          210.5     1.57612e-11 
          216.2     6.74386e-11 
          219.8     1.62476e-10 
            223     3.46253e-10 
          226.8     8.27676e-10 
            230      2.06446e-9 
            234      5.13816e-9 
            240      1.76461e-8 
          246.5      6.23478e-8 
          252.4      1.85326e-7 
          256.8      4.01424e-7 
            260       6.9929e-7 
            264      1.36322e-6 
          268.5      2.81632e-6 
          273.5       6.1262e-6 
          278.5      1.29617e-5 
            284      2.86265e-5 
            290      6.55491e-5 
            296     0.000144838 
            301     0.000273712 
            308     0.000641199 
            318      0.00203568 
            328       0.0059848 
            338        0.016447 
            348       0.0425214 
            357       0.0952339 
            366        0.204589 
            375        0.422446 
            385        0.906286 
            395         1.86492 
            405         3.69368 
            414         6.62875 
            422         10.8959 
            430         17.5525 
            441         32.8029 
            451         56.2591 
            460         89.4394 
            470         146.324 
            480         234.033 
            490         366.562 
            500         562.773 
            506          4448.9 
            512         11694.5 
            520         15264.2 
            530         22505.9 
            540         27288.3 
            550         40169.9 
            560         52167.9 
            570         67934.2 
            580         75557.5 
            590          104923 
            600          136711 
            610          170930 
            620          209749 
            630          257437 
            640          308834 
            650          375615 
            658          436094 
            665          491825 
            675          579161 
            685          682356 
            695          810901 
            705          945414 
            716      1.11199e+6 
            726      1.28355e+6 
            735       1.4588e+6 
            745      1.67613e+6 
            755      1.91522e+6 
            765      2.17222e+6 
            775      2.46551e+6 
            785      2.78171e+6 
            795      3.12196e+6 
            805      3.49694e+6 
            815      3.89567e+6 
            825      4.34247e+6 
            835      4.76314e+6 
            845      5.31254e+6 
            855      5.83627e+6 
            865       6.4488e+6 
            875      7.07329e+6 
            885       7.7609e+6 
            895      8.46933e+6 
            905      9.10517e+6 
            915      1.49265e+7 
            925      4.96391e+7 
            935      1.31537e+8 
            945      7.90477e+8 
            955      2.58941e+9 
            965      3.79155e+9 
            975      9.60623e+8 
            985      7.21522e+9 
            995      8.23304e+9 
           1005      8.52208e+9 
           1015      5.64239e+9 
           1025      4.71958e+8 
           1035      4.23916e+9 
           1045      8.66803e+9 
           1055      8.99121e+9 
           1065      8.22828e+9 
           1075      8.88014e+9 
           1085      8.27462e+9 
           1095      8.72335e+9 
           1105      8.16446e+9 
           1115       8.1417e+9 
           1125      7.68625e+9 
           1135      7.92777e+9 
           1145      7.45054e+9 
           1155       7.6347e+9 
           1165      7.62966e+9 
           1175      6.71994e+9 
           1185      7.20688e+9 
           1195       5.8888e+9 
           1205      3.54332e+9 
           1215      4.14748e+8 
           1225      3.03768e+9 
           1235       5.7825e+9 
           1245      6.34572e+9 
           1255      6.27872e+9 
           1265      6.12523e+9 
           1275      6.26915e+9 
           1285      6.21736e+9 
           1295      5.62794e+9 
           1305      5.43827e+9 
           1315      5.90162e+9 
           1325      5.69056e+9 
           1335      5.42659e+9 
           1345      5.57256e+9 
           1355      5.49718e+9 
           1365      5.33565e+9 
           1375      5.25673e+9 
           1385      5.21526e+9 
           1395      5.01725e+9 
           1405      5.02128e+9 
           1415      4.94397e+9 
           1425      4.89579e+9 
           1435      4.82962e+9 
           1442       4.8102e+9 
           1447      4.76209e+9 
           1455      4.67943e+9 
           1465       4.5775e+9 
           1475      4.51374e+9 
           1485      4.41232e+9 
           1495      4.35164e+9 
           1505      4.24277e+9 
           1512      4.14739e+9 
           1517      4.16495e+9 
           1525      4.09075e+9 
           1535      3.94681e+9 
           1545      3.97858e+9 
           1555       3.8436e+9 
           1565      3.79956e+9 
           1575      3.80613e+9 
           1585      3.75676e+9 
           1595      3.73616e+9 
           1605      3.61677e+9 
           1615      3.56591e+9 
           1625      3.51374e+9 
           1635      3.48371e+9 
           1645        3.433e+9 
           1655      3.32988e+9 
           1665      3.37955e+9 
           1672      3.25213e+9 
           1677       3.3035e+9 
           1685      3.28109e+9 
           1695      3.21076e+9 
           1705      3.12915e+9 
           1715      3.06266e+9 
           1725      3.01257e+9 
           1735      3.02012e+9 
           1745      2.95257e+9 
           1755      2.95278e+9 
           1765      2.79582e+9 
           1775      2.84727e+9 
           1785      2.80576e+9 
           1795      2.79902e+9 
           1805      2.75977e+9 
           1815      2.70177e+9 
           1825      2.68514e+9 
           1835      2.63961e+9 
           1845      2.55541e+9 
           1855      2.48721e+9 
           1865      2.47209e+9 
           1875      2.49294e+9 
           1885      2.40029e+9 
           1895      2.33757e+9 
           1905      2.37684e+9 
           1915      2.30297e+9 
           1925      2.27016e+9 
           1935      2.26547e+9 
           1945      2.26972e+9 
           1955      2.18732e+9 
           1967      2.20813e+9 
           1976      2.20611e+9 
           1984      2.14969e+9 
           1995      2.09093e+9 
           2005      2.10302e+9 
           2015      2.08619e+9 
           2025      2.07767e+9 
           2035      2.03428e+9 
           2045      2.01047e+9 
           2055       1.9492e+9 
           2065      1.94689e+9 
           2074      1.95587e+9 
           2078      1.91921e+9 
           2085      1.91995e+9 
           2095      1.87789e+9 
           2105      1.87573e+9 
           2115      1.85812e+9 
           2125      1.84851e+9 
           2135      1.82091e+9 
           2145      1.79406e+9 
           2155      1.78053e+9 
           2165      1.74998e+9 
           2175       1.7305e+9 
           2185      1.71327e+9 
           2195      1.70192e+9 
           2205      1.67412e+9 
           2215      1.64906e+9 
           2225      1.62384e+9 
           2235      1.62035e+9 
           2245      1.60012e+9 
           2255      1.57581e+9 
           2265      1.56479e+9 
           2275      1.54466e+9 
           2285      1.53384e+9 
           2295      1.50462e+9 
           2305      1.49315e+9 
           2315      1.47332e+9 
           2325      1.46151e+9 
           2335      1.43126e+9 
           2345      1.39757e+9 
           2355      1.40509e+9 
           2365       1.3737e+9 
           2375       1.3703e+9 
           2385      1.34102e+9 
           2395      1.33897e+9 
           2405      1.32167e+9 
           2415      1.30636e+9 
           2425      1.30592e+9 
           2435      1.28353e+9 
           2445      1.27223e+9 
           2455      1.26632e+9 
           2465      1.24398e+9 
           2475      1.23487e+9 
           2485      1.22446e+9 
           2495      1.19954e+9 
           2505      1.20103e+9 
           2513      1.18122e+9 
           2518      1.18497e+9 
           2525      1.16713e+9 
           2535      1.14674e+9 
           2545      1.14164e+9 
           2555      1.14155e+9 
           2565      1.12385e+9 
           2575      1.11929e+9 
           2585      1.10754e+9 
           2595      1.09527e+9 
           2605      1.08583e+9 
           2615      1.07589e+9 
           2625      1.06574e+9 
           2635      1.05408e+9 
           2645      1.05582e+9 
           2655      1.04414e+9 
           2665      1.02841e+9 
           2675      1.02127e+9 
           2685      1.01545e+9 
           2695      9.98851e+8 
           2705      9.94774e+8 
           2715      9.82554e+8 
           2725      9.66578e+8 
           2735      9.65214e+8 
           2745      9.41095e+8 
           2755      9.35368e+8 
           2765      9.29304e+8 
           2775       9.3025e+8 
           2785      9.19599e+8 
           2795      8.92101e+8 
           2805      8.96334e+8 
           2815      8.96062e+8 
           2825      8.80288e+8 
           2835      8.70714e+8 
           2845      8.68281e+8 
           2855      8.61516e+8 
           2865      8.54824e+8 
           2875      8.46062e+8 
           2885      8.38713e+8 
           2895      8.31266e+8 
           2910      8.20138e+8 
           2930      8.03318e+8 
           2950      7.85277e+8 
           2970      7.76018e+8 
           2990      7.61541e+8 
           3010       7.4871e+8 
           3030      7.35658e+8 
           3050        7.226e+8 
           3070      7.09858e+8 
           3090      6.97502e+8 
           3110      6.85288e+8 
           3130      6.73905e+8 
           3150        6.623e+8 
           3170      6.50932e+8 
           3190      6.35799e+8 
           3210      6.28778e+8 
           3230      6.18199e+8 
           3250      6.07832e+8 
           3270      5.98129e+8 
           3290      5.87816e+8 
           3310      5.78568e+8 
           3330      5.69057e+8 
           3350      5.59228e+8 
           3370       5.5062e+8 
           3390      5.41716e+8 
           3410      5.33015e+8 
           3430      5.23647e+8 
           3450      5.14492e+8 
           3470      5.07014e+8 
           3490      4.98992e+8 
           3510      4.91762e+8 
           3530       4.8421e+8 
           3550      4.76588e+8 
           3570      4.70406e+8 
           3590      4.61642e+8 
           3610      4.55269e+8 
           3630       4.4755e+8 
           3640      4.45663e+8 
           3650      4.41273e+8 
           3670      4.36169e+8 
           3690      4.27774e+8 
           3710      4.14142e+8 
           3730      3.95984e+8 
           3750      4.23062e+8 
           3770      4.28949e+8 
           3790      4.70541e+8 
           3810       5.0501e+8 
           3830      4.27249e+8 
           3850      5.32797e+8 
           3870      5.56457e+8 
           3890      3.95847e+8 
           3910      5.49812e+8 
           3930      5.53963e+8 
           3950      5.34991e+8 
           3970      3.71688e+8 
           3990      5.10309e+8 
           4010      5.21842e+8 
           4030      4.88909e+8 
           4050      5.12756e+8 
           4070      4.99678e+8 
           4090      4.32691e+8 
           4110      3.62989e+8 
           4130      4.66558e+8 
           4150      4.68328e+8 
           4170      4.65861e+8 
           4190      4.60695e+8 
           4210       4.5348e+8 
           4230      4.46233e+8 
           4250      4.39102e+8 
           4270      4.30494e+8 
           4290      4.23358e+8 
           4310      4.11447e+8 
           4330       3.4844e+8 
           4350      3.12095e+8 
           4370      3.90264e+8 
           4390      3.79171e+8 
           4410       3.8651e+8 
           4430       3.7986e+8 
           4450      3.75693e+8 
           4470      3.51014e+8 
           4490       3.6318e+8 
           4510      3.59354e+8 
           4530      3.53949e+8 
           4550      3.48678e+8 
           4570      3.43541e+8 
           4590      3.38497e+8 
           4610      3.33528e+8 
           4630      3.28596e+8 
           4650      3.23772e+8 
           4670      3.19157e+8 
           4690      3.14573e+8 
           4710        3.061e+8 
           4730      3.05302e+8 
           4750      3.00782e+8 
           4770      2.96924e+8 
           4790      2.91938e+8 
           4810      2.86828e+8 
           4830      2.79129e+8 
           4850      2.43214e+8 
           4870      2.12073e+8 
           4890      2.65027e+8 
           4910      2.66497e+8 
           4930       2.5755e+8 
           4950      2.61331e+8 
           4970      2.57966e+8 
           4990       2.5442e+8 
           5010       2.4774e+8 
           5030      2.47471e+8 
           5050      2.42427e+8 
           5070        2.409e+8 
           5090      2.37658e+8 
           5110      2.34445e+8 
           5130      2.31332e+8 
           5150      2.28218e+8 
           5170      2.25215e+8 
           5190      2.22252e+8 
           5210      2.19189e+8 
           5230      2.16442e+8 
           5250      2.13606e+8 
           5270      2.10808e+8 
           5290      2.08086e+8 
           5310      2.05386e+8 
           5330      2.02734e+8 
           5350      2.00089e+8 
           5370      1.97569e+8 
           5390      1.95042e+8 
           5410      1.92547e+8 
           5430      1.90058e+8 
           5450      1.87677e+8 
           5470      1.85312e+8 
           5490      1.83002e+8 
           5510      1.80696e+8 
           5530      1.78455e+8 
           5550      1.76229e+8 
           5570      1.74043e+8 
           5590      1.71896e+8 
           5610      1.69762e+8 
           5630      1.67691e+8 
           5650      1.65562e+8 
           5670      1.63564e+8 
           5690      1.61601e+8 
           5710      1.59662e+8 
           5730      1.57735e+8 
           5750      1.55831e+8 
           5770       1.5396e+8 
           5790      1.52112e+8 
           5810      1.50285e+8 
           5830      1.48502e+8 
           5850       1.4674e+8 
           5870      1.40843e+8 
           5890      1.43027e+8 
           5910      1.41597e+8 
           5930      1.39947e+8 
           5950      1.38284e+8 
           5970      1.36693e+8 
           5990      1.35089e+8 
           6010      1.33534e+8 
           6030      1.31997e+8 
           6050      1.30477e+8 
           6070      1.28975e+8 
           6090      1.27499e+8 
           6110       1.2605e+8 
           6130      1.24608e+8 
           6150      1.23181e+8 
           6170        1.218e+8 
           6190      1.20434e+8 
           6210      1.19073e+8 
           6230      1.17737e+8 
           6250      1.16406e+8 
           6270      1.15128e+8 
           6290      1.13845e+8 
           6310      1.12576e+8 
           6330      1.11339e+8 
           6350      1.09994e+8 
           6370       1.0884e+8 
           6390      1.07708e+8 
           6410      1.06523e+8 
           6430       1.0537e+8 
           6450      1.04228e+8 
           6470       1.0309e+8 
           6490      1.01838e+8 
           6510       1.0044e+8 
           6530      9.85183e+7 
           6550       9.1165e+7 
           6570      7.93573e+7 
           6590      9.40867e+7 
           6610      9.49754e+7 
           6630      9.43347e+7 
           6650      9.35892e+7 
           6670      9.17925e+7 
           6690      9.08657e+7 
           6710      9.07014e+7 
           6730      8.97555e+7 
           6750      8.88193e+7 
           6770      8.78925e+7 
           6790      8.69751e+7 
           6810      8.60832e+7 
           6830      8.51921e+7 
           6850       8.4318e+7 
           6870      8.34526e+7 
           6890      8.25959e+7 
           6910      8.17555e+7 
           6930      8.09156e+7 
           6950      8.00996e+7 
           6970      7.92916e+7 
           6990      7.84916e+7 
           7010      7.76993e+7 
           7030      7.69148e+7 
           7050       7.6138e+7 
           7070      7.44454e+7 
           7090      7.46338e+7 
           7110       7.3891e+7 
           7130      7.31584e+7 
           7150      7.24336e+7 
           7170      7.17179e+7 
           7190      7.10134e+7 
           7210      7.03163e+7 
           7230      6.95725e+7 
           7250      6.89462e+7 
           7270      6.82752e+7 
           7290      6.72453e+7 
           7310      6.69519e+7 
           7330      6.63087e+7 
           7350      6.56687e+7 
           7370      6.50367e+7 
           7390       6.4412e+7 
           7410      6.37951e+7 
           7430      6.31846e+7 
           7450      6.25872e+7 
           7470      6.19912e+7 
           7490      6.14041e+7 
           7510       6.0815e+7 
           7530      6.02492e+7 
           7550      5.96826e+7 
           7570      5.91224e+7 
           7590       5.8568e+7 
           7610      5.80211e+7 
           7630      5.74805e+7 
           7650      5.69454e+7 
           7670       5.6417e+7 
           7690      5.58946e+7 
           7710      5.53787e+7 
           7730      5.48681e+7 
           7750      5.43638e+7 
           7770      5.38191e+7 
           7790      5.33724e+7 
           7810       5.2874e+7 
           7830      5.24039e+7 
           7850      5.19428e+7 
           7870      5.14699e+7 
           7890       5.0992e+7 
           7910      5.05532e+7 
           7930      5.00979e+7 
           7950      4.96423e+7 
           7970      4.91989e+7 
           7990      4.87511e+7 
           8010      4.83283e+7 
           8030       4.7898e+7 
           8050      4.74725e+7 
           8070      4.70518e+7 
           8090      4.66254e+7 
           8110      4.62159e+7 
           8130      4.58172e+7 
           8150      4.53885e+7 
           8170      4.50175e+7 
           8190      4.46036e+7 
           8210      4.41496e+7 
           8230      4.38234e+7 
           8250      4.34679e+7 
           8270      4.30133e+7 
           8290      4.27298e+7 
           8310       4.2382e+7 
           8330      4.20159e+7 
           8350        4.157e+7 
           8370      4.12807e+7 
           8390      4.09621e+7 
           8410      4.05923e+7 
           8430      4.02139e+7 
           8450      3.97488e+7 
           8470      3.94295e+7 
           8490       3.9118e+7 
           8510      3.85988e+7 
           8530      3.84952e+7 
           8550      3.74542e+7 
           8570      3.81947e+7 
