# Kurucz ODFNEW /NOVER (2003)
# teff = 22000 K (value for the effective temperature for the model. Temperatures are given in K)
# logg = 4 log(cm/s2) (value for Log(G) for the model.)
# meta = -0.5  (value for the Metallicity for the model.)
# lh = 1.25  (l/Hp where l is the  mixing length of the convective element and Hp is the pressure scale height)
# vtur = 2 km/s (Microturbulence velocity)
# alpha = 0.4  (Alpha)
#
# column 1: WAVELENGTH (ANGSTROM), Wavelength in Angstrom
# column 2: FLUX (ERG/CM2/S/A), Flux in erg/cm2/s/A
          147.2     1.77534e-17 
            151     9.13198e-17 
          155.2     5.11283e-16 
          158.8     2.09164e-15 
            162     6.97934e-15 
            166     2.96259e-14 
          170.3     1.30352e-13 
          173.4     3.64193e-13 
          176.8     1.08045e-12 
          180.2     3.08581e-12 
          181.7     4.84507e-12 
          186.1     1.75261e-11 
            191     6.87667e-11 
          193.9     1.49741e-10 
          198.4     4.80232e-10 
          201.8       1.1214e-9 
            205      2.43151e-9 
          210.5      8.72739e-9 
          216.2      3.07316e-8 
          219.8      6.58855e-8 
            223      1.27203e-7 
          226.8      2.71358e-7 
            230      5.92377e-6 
            234      1.44394e-5 
            240      3.90811e-5 
          246.5     0.000108495 
          252.4     0.000264875 
          256.8     0.000483749 
            260     0.000780822 
            264      0.00133836 
          268.5      0.00240725 
          273.5      0.00450072 
          278.5      0.00828382 
            284       0.0159677 
            290       0.0312045 
            296       0.0592725 
            301       0.0992085 
            308        0.195982 
            318        0.514741 
            328         1.21716 
            338         2.82066 
            348         6.11768 
            357         12.9044 
            366         24.4904 
            375         43.4716 
            385          81.006 
            395         145.426 
            405           252.6 
            414         408.807 
            422         605.042 
            430         892.007 
            441            1485 
            451         2314.45 
            460         3356.38 
            470         5022.32 
            480          7342.3 
            490         10612.6 
            500         15100.8 
            506          126541 
            512          557986 
            520          692199 
            530          946893 
            540      1.05682e+6 
            550      1.53681e+6 
            560      1.84088e+6 
            570      2.32253e+6 
            580       2.3456e+6 
            590      3.16762e+6 
            600      3.85478e+6 
            610      4.70127e+6 
            620       5.3778e+6 
            630      6.24494e+6 
            640       6.7322e+6 
            650        6.811e+6 
            658      8.91174e+6 
            665      9.85302e+6 
            675      1.07812e+7 
            685      1.19749e+7 
            695      1.43883e+7 
            705      1.56733e+7 
            716      1.79776e+7 
            726      1.95442e+7 
            735      2.13454e+7 
            745      2.42515e+7 
            755       2.6781e+7 
            765       2.9427e+7 
            775      3.25018e+7 
            785      3.56124e+7 
            795      3.81191e+7 
            805      4.12346e+7 
            815       4.4114e+7 
            825      4.83725e+7 
            835      4.89352e+7 
            845      5.43759e+7 
            855      5.81154e+7 
            865      6.27509e+7 
            875      6.77166e+7 
            885      7.34099e+7 
            895      7.81748e+7 
            905      8.03435e+7 
            915       1.2372e+8 
            925      7.45071e+8 
            935      2.44281e+9 
            945      7.27283e+9 
            955     1.10145e+10 
            965     1.42637e+10 
            975      2.73124e+9 
            985     1.53095e+10 
            995     1.43591e+10 
           1005     1.61762e+10 
           1015     1.50619e+10 
           1025      4.59229e+9 
           1035     1.11813e+10 
           1045     1.84234e+10 
           1055     1.72577e+10 
           1065      1.4196e+10 
           1075     1.64348e+10 
           1085     1.48541e+10 
           1095     1.65754e+10 
           1105     1.44105e+10 
           1115     1.36771e+10 
           1125     1.22738e+10 
           1135     1.52414e+10 
           1145     1.34114e+10 
           1155     1.42259e+10 
           1165     1.44102e+10 
           1175     1.04509e+10 
           1185     1.40296e+10 
           1195     1.14526e+10 
           1205      6.42531e+9 
           1215      3.55057e+9 
           1225      9.69172e+9 
           1235     1.25616e+10 
           1245     1.27964e+10 
           1255     1.24202e+10 
           1265     1.20711e+10 
           1275     1.25198e+10 
           1285     1.23076e+10 
           1295      8.23626e+9 
           1305      8.34787e+9 
           1315     1.17135e+10 
           1325     1.10513e+10 
           1335     1.04131e+10 
           1345     1.07349e+10 
           1355     1.06849e+10 
           1365      9.83099e+9 
           1375      9.67974e+9 
           1385      9.66969e+9 
           1395      7.70737e+9 
           1405      8.24787e+9 
           1415      8.79758e+9 
           1425      8.76266e+9 
           1435      8.86763e+9 
           1442      9.09319e+9 
           1447      8.90523e+9 
           1455      8.69137e+9 
           1465      8.21714e+9 
           1475      8.15822e+9 
           1485       7.9387e+9 
           1495      7.84802e+9 
           1505      7.24926e+9 
           1512      6.67178e+9 
           1517      6.88914e+9 
           1525       7.0278e+9 
           1535      6.28803e+9 
           1545      6.37514e+9 
           1555      6.05908e+9 
           1565      6.29783e+9 
           1575       6.5627e+9 
           1585      6.45541e+9 
           1595      6.48578e+9 
           1605      6.39132e+9 
           1615      6.29075e+9 
           1625      6.16377e+9 
           1635      6.35848e+9 
           1645      6.27584e+9 
           1655      6.09033e+9 
           1665      6.24121e+9 
           1672      6.02857e+9 
           1677      6.24746e+9 
           1685      6.15975e+9 
           1695      5.89269e+9 
           1705      5.65063e+9 
           1715       5.3896e+9 
           1725        5.324e+9 
           1735       5.4504e+9 
           1745      5.32304e+9 
           1755      5.36835e+9 
           1765      5.13198e+9 
           1775      5.01094e+9 
           1785      4.99823e+9 
           1795      5.13363e+9 
           1805      5.11298e+9 
           1815      4.70399e+9 
           1825      4.84849e+9 
           1835      4.67932e+9 
           1845      4.32339e+9 
           1855      4.27515e+9 
           1865      4.32518e+9 
           1875       4.4908e+9 
           1885      4.08386e+9 
           1895      3.82224e+9 
           1905        4.087e+9 
           1915       3.8853e+9 
           1925      3.74216e+9 
           1935      3.88861e+9 
           1945        3.928e+9 
           1955      3.63056e+9 
           1967      3.86409e+9 
           1976      4.00621e+9 
           1984      3.73001e+9 
           1995       3.6481e+9 
           2005      3.72697e+9 
           2015      3.67402e+9 
           2025      3.78252e+9 
           2035      3.50973e+9 
           2045      3.53288e+9 
           2055      3.42061e+9 
           2065      3.46212e+9 
           2074      3.55756e+9 
           2078      3.32995e+9 
           2085      3.42341e+9 
           2095      3.25518e+9 
           2105      3.32584e+9 
           2115      3.31072e+9 
           2125      3.35347e+9 
           2135      3.27725e+9 
           2145      3.13697e+9 
           2155      3.22895e+9 
           2165      3.19517e+9 
           2175      3.14619e+9 
           2185      3.07887e+9 
           2195      3.09006e+9 
           2205      3.04753e+9 
           2215      3.00133e+9 
           2225      2.92488e+9 
           2235      2.90827e+9 
           2245      2.90805e+9 
           2255      2.82557e+9 
           2265      2.84583e+9 
           2275      2.80711e+9 
           2285      2.79927e+9 
           2295        2.677e+9 
           2305       2.7085e+9 
           2315      2.64339e+9 
           2325      2.61471e+9 
           2335      2.52679e+9 
           2345      2.51104e+9 
           2355      2.52101e+9 
           2365      2.47198e+9 
           2375       2.4466e+9 
           2385       2.4142e+9 
           2395      2.40834e+9 
           2405       2.3595e+9 
           2415      2.33063e+9 
           2425      2.33887e+9 
           2435      2.27713e+9 
           2445      2.27196e+9 
           2455      2.26581e+9 
           2465      2.22216e+9 
           2475      2.19742e+9 
           2485      2.17781e+9 
           2495      2.06368e+9 
           2505      2.12649e+9 
           2513      2.04633e+9 
           2518      2.09246e+9 
           2525      2.05967e+9 
           2535      2.02938e+9 
           2545      1.97315e+9 
           2555      2.00402e+9 
           2565      1.96827e+9 
           2575      1.97648e+9 
           2585       1.9575e+9 
           2595      1.93847e+9 
           2605      1.92522e+9 
           2615      1.90463e+9 
           2625      1.88517e+9 
           2635      1.86373e+9 
           2645      1.86248e+9 
           2655       1.8442e+9 
           2665      1.79904e+9 
           2675      1.79682e+9 
           2685      1.78874e+9 
           2695      1.74333e+9 
           2705      1.73829e+9 
           2715       1.7202e+9 
           2725      1.69014e+9 
           2735      1.69095e+9 
           2745      1.63911e+9 
           2755      1.63373e+9 
           2765      1.61878e+9 
           2775      1.62636e+9 
           2785      1.60271e+9 
           2795      1.54245e+9 
           2805      1.56073e+9 
           2815      1.56007e+9 
           2825      1.53031e+9 
           2835      1.48995e+9 
           2845      1.50356e+9 
           2855       1.4894e+9 
           2865      1.48209e+9 
           2875       1.4646e+9 
           2885      1.45161e+9 
           2895      1.43535e+9 
           2910      1.41103e+9 
           2930      1.37976e+9 
           2950      1.34588e+9 
           2970      1.33063e+9 
           2990       1.2997e+9 
           3010      1.27334e+9 
           3030      1.25576e+9 
           3050      1.23149e+9 
           3070      1.20858e+9 
           3090       1.1761e+9 
           3110      1.16044e+9 
           3130      1.13931e+9 
           3150      1.11798e+9 
           3170       1.0953e+9 
           3190      1.06602e+9 
           3210      1.05563e+9 
           3230      1.03534e+9 
           3250      1.01739e+9 
           3270      9.99489e+8 
           3290      9.79891e+8 
           3310      9.64131e+8 
           3330      9.46266e+8 
           3350      9.27649e+8 
           3370      9.12325e+8 
           3390      8.96773e+8 
           3410      8.81101e+8 
           3430       8.6125e+8 
           3450      8.43032e+8 
           3470      8.30495e+8 
           3490      8.15838e+8 
           3510      8.04733e+8 
           3530      7.92979e+8 
           3550      7.79645e+8 
           3570      7.70195e+8 
           3590      7.51173e+8 
           3610      7.39577e+8 
           3630      7.27162e+8 
           3640      7.26243e+8 
           3650      7.13022e+8 
           3670      7.04796e+8 
           3690      6.89015e+8 
           3710      6.66306e+8 
           3730      6.43177e+8 
           3750      6.88681e+8 
           3770      6.93322e+8 
           3790      7.34255e+8 
           3810      7.67053e+8 
           3830      6.67043e+8 
           3850      7.88304e+8 
           3870      7.93232e+8 
           3890      6.31862e+8 
           3910      7.86326e+8 
           3930      7.64855e+8 
           3950      7.59785e+8 
           3970      5.87913e+8 
           3990      7.28725e+8 
           4010      7.27308e+8 
           4030      6.83619e+8 
           4050      7.09958e+8 
           4070      6.86987e+8 
           4090      6.34455e+8 
           4110      5.54185e+8 
           4130      6.46056e+8 
           4150      6.43388e+8 
           4170      6.39679e+8 
           4190        6.326e+8 
           4210      6.24776e+8 
           4230      6.13323e+8 
           4250      6.00953e+8 
           4270      5.84757e+8 
           4290      5.79809e+8 
           4310       5.6647e+8 
           4330      5.12342e+8 
           4350      4.65813e+8 
           4370      5.38377e+8 
           4390      5.22223e+8 
           4410      5.27376e+8 
           4430      5.18805e+8 
           4450      5.13372e+8 
           4470      4.83297e+8 
           4490      4.94623e+8 
           4510      4.91487e+8 
           4530      4.82769e+8 
           4550      4.75313e+8 
           4570      4.67933e+8 
           4590      4.61057e+8 
           4610      4.53431e+8 
           4630       4.4664e+8 
           4650       4.3697e+8 
           4670      4.33408e+8 
           4690      4.28691e+8 
           4710      4.13392e+8 
           4730      4.13355e+8 
           4750       4.0696e+8 
           4770       4.0463e+8 
           4790      3.98188e+8 
           4810      3.90194e+8 
           4830      3.82528e+8 
           4850      3.53002e+8 
           4870      3.14369e+8 
           4890      3.66156e+8 
           4910      3.63367e+8 
           4930      3.49823e+8 
           4950      3.54059e+8 
           4970      3.50132e+8 
           4990       3.4485e+8 
           5010      3.33051e+8 
           5030      3.34801e+8 
           5050      3.25965e+8 
           5070      3.26139e+8 
           5090      3.21414e+8 
           5110      3.16681e+8 
           5130      3.11626e+8 
           5150      3.07477e+8 
           5170      3.04215e+8 
           5190      3.00085e+8 
           5210      2.94301e+8 
           5230      2.92165e+8 
           5250      2.88248e+8 
           5270       2.8422e+8 
           5290      2.80702e+8 
           5310      2.76868e+8 
           5330      2.72924e+8 
           5350      2.68821e+8 
           5370       2.6613e+8 
           5390      2.62602e+8 
           5410      2.59094e+8 
           5430      2.55093e+8 
           5450      2.52032e+8 
           5470       2.4872e+8 
           5490      2.45948e+8 
           5510      2.42751e+8 
           5530      2.39533e+8 
           5550       2.3666e+8 
           5570      2.33518e+8 
           5590      2.30717e+8 
           5610      2.27471e+8 
           5630      2.25002e+8 
           5650      2.20922e+8 
           5670      2.18182e+8 
           5690      2.15767e+8 
           5710      2.13692e+8 
           5730       2.1117e+8 
           5750      2.08302e+8 
           5770      2.06091e+8 
           5790      2.03546e+8 
           5810      2.00998e+8 
           5830      1.98457e+8 
           5850      1.96134e+8 
           5870      1.87813e+8 
           5890      1.90395e+8 
           5910      1.88968e+8 
           5930      1.86689e+8 
           5950      1.84127e+8 
           5970      1.82409e+8 
           5990      1.79954e+8 
           6010      1.78112e+8 
           6030      1.75937e+8 
           6050      1.73912e+8 
           6070      1.71878e+8 
           6090      1.69796e+8 
           6110      1.67869e+8 
           6130      1.65933e+8 
           6150      1.63561e+8 
           6170      1.61997e+8 
           6190      1.60225e+8 
           6210      1.58374e+8 
           6230      1.56563e+8 
           6250      1.54578e+8 
           6270      1.52933e+8 
           6290        1.512e+8 
           6310      1.49363e+8 
           6330      1.47819e+8 
           6350      1.45563e+8 
           6370      1.44167e+8 
           6390      1.42814e+8 
           6410      1.41182e+8 
           6430       1.3974e+8 
           6450      1.38132e+8 
           6470      1.36469e+8 
           6490       1.3503e+8 
           6510      1.33428e+8 
           6530      1.31411e+8 
           6550      1.25341e+8 
           6570      1.10868e+8 
           6590      1.25828e+8 
           6610      1.26128e+8 
           6630      1.25068e+8 
           6650      1.23789e+8 
           6670      1.21219e+8 
           6690      1.19973e+8 
           6710      1.19861e+8 
           6730      1.18534e+8 
           6750      1.17345e+8 
           6770      1.16102e+8 
           6790      1.14529e+8 
           6810      1.13597e+8 
           6830      1.12375e+8 
           6850      1.11255e+8 
           6870      1.10089e+8 
           6890      1.08911e+8 
           6910      1.07769e+8 
           6930      1.06614e+8 
           6950      1.05565e+8 
           6970      1.04479e+8 
           6990      1.03373e+8 
           7010      1.02301e+8 
           7030      1.01255e+8 
           7050      1.00203e+8 
           7070      9.75722e+7 
           7090      9.81992e+7 
           7110      9.71482e+7 
           7130      9.61667e+7 
           7150      9.52021e+7 
           7170      9.42467e+7 
           7190      9.33223e+7 
           7210      9.23922e+7 
           7230      9.06133e+7 
           7250      9.04867e+7 
           7270      8.96403e+7 
           7290       8.8022e+7 
           7310      8.78512e+7 
           7330      8.69938e+7 
           7350      8.61444e+7 
           7370      8.52961e+7 
           7390      8.44556e+7 
           7410      8.36298e+7 
           7430      8.27639e+7 
           7450      8.20011e+7 
           7470      8.11238e+7 
           7490      8.04024e+7 
           7510       7.9614e+7 
           7530      7.88661e+7 
           7550       7.8125e+7 
           7570      7.73774e+7 
           7590      7.66236e+7 
           7610      7.58896e+7 
           7630      7.51752e+7 
           7650      7.44607e+7 
           7670      7.37591e+7 
           7690      7.30575e+7 
           7710      7.23684e+7 
           7730      7.16791e+7 
           7750      7.10086e+7 
           7770      6.99696e+7 
           7790      6.96915e+7 
           7810      6.89891e+7 
           7830      6.83975e+7 
           7850      6.77315e+7 
           7870      6.71079e+7 
           7890      6.63627e+7 
           7910      6.59492e+7 
           7930      6.53414e+7 
           7950      6.45302e+7 
           7970      6.39755e+7 
           7990      6.32838e+7 
           8010      6.28214e+7 
           8030      6.22518e+7 
           8050      6.16871e+7 
           8070      6.12024e+7 
           8090      6.05145e+7 
           8110      6.00216e+7 
           8130      5.95785e+7 
           8150      5.89631e+7 
           8170       5.8545e+7 
           8190      5.79112e+7 
           8210      5.72158e+7 
           8230      5.68157e+7 
           8250      5.64298e+7 
           8270      5.56009e+7 
           8290      5.53878e+7 
           8310      5.49087e+7 
           8330      5.44282e+7 
           8350       5.3668e+7 
           8370      5.33478e+7 
           8390      5.29889e+7 
           8410      5.25124e+7 
           8430      5.19793e+7 
           8450      5.10551e+7 
           8470      5.09713e+7 
           8490      5.05302e+7 
           8510      4.98846e+7 
           8530      4.97685e+7 
           8550      4.83702e+7 
           8570      4.95902e+7 
