# Kurucz ODFNEW /NOVER (2003)
# teff = 18000 K (value for the effective temperature for the model. Temperatures are given in K)
# logg = 5 log(cm/s2) (value for Log(G) for the model.)
# meta = -0.5  (value for the Metallicity for the model.)
# lh = 1.25  (l/Hp where l is the  mixing length of the convective element and Hp is the pressure scale height)
# vtur = 2 km/s (Microturbulence velocity)
# alpha = 0.4  (Alpha)
#
# column 1: WAVELENGTH (ANGSTROM), Wavelength in Angstrom
# column 2: FLUX (ERG/CM2/S/A), Flux in erg/cm2/s/A
          147.2     2.13107e-22 
            151     1.60541e-21 
          155.2     1.27841e-20 
          158.8      6.8834e-20 
            162     2.89165e-19 
            166     1.61186e-18 
          170.3      9.3478e-18 
          173.4     3.14777e-17 
          176.8     1.13489e-16 
          180.2     3.90048e-16 
          181.7     6.62482e-16 
          186.1     2.98669e-15 
            191     1.47115e-14 
          193.9     3.62419e-14 
          198.4     1.39513e-13 
          201.8     3.72518e-13 
            205     9.13653e-13 
          210.5     3.97557e-12 
          216.2     1.68738e-11 
          219.8     4.04638e-11 
            223     8.56882e-11 
          226.8      2.0362e-10 
            230     4.37163e-10 
            234      1.11452e-9 
            240      3.84408e-9 
          246.5      1.36352e-8 
          252.4      4.07014e-8 
          256.8      8.84493e-8 
            260      1.54699e-7 
            264      3.02828e-7 
          268.5      6.27915e-7 
          273.5      1.37134e-6 
          278.5      2.92015e-6 
            284      6.49804e-6 
            290      1.49872e-5 
            296      3.33241e-5 
            301      6.34196e-5 
            308     0.000149891 
            318      0.00048382 
            328      0.00144103 
            338      0.00403328 
            348       0.0106041 
            357       0.0241901 
            366        0.052931 
            375        0.110842 
            385        0.242073 
            395        0.506185 
            405         1.02018 
            414         1.86074 
            422         3.09703 
            430         5.04418 
            441         9.62798 
            451         16.8001 
            460         27.0975 
            470         45.0694 
            480         73.2333 
            490         116.552 
            500         181.704 
            506         1855.57 
            512         4789.88 
            520         6272.04 
            530         9043.92 
            540         11457.8 
            550         16780.3 
            560           22098 
            570         29370.7 
            580         34471.2 
            590         48269.2 
            600         62393.7 
            610         79792.5 
            620         98327.9 
            630          122644 
            640          147565 
            650          181454 
            658          214780 
            665          241683 
            675          287030 
            685          343486 
            695          413273 
            705          485161 
            716          577084 
            726          671525 
            735          769184 
            745          894539 
            755      1.03504e+6 
            765      1.18067e+6 
            775      1.35789e+6 
            785      1.54684e+6 
            795      1.74064e+6 
            805      1.96996e+6 
            815      2.20754e+6 
            825      2.48607e+6 
            835      2.73308e+6 
            845       3.0695e+6 
            855      3.40359e+6 
            865      3.78882e+6 
            875      4.17823e+6 
            885      4.64196e+6 
            895      5.09862e+6 
            905         5.47e+6 
            915      8.77629e+6 
            925      2.67688e+7 
            935      5.01559e+7 
            945      1.97012e+8 
            955       8.7992e+8 
            965      1.37782e+9 
            975      3.00555e+8 
            985      3.63599e+9 
            995      4.42589e+9 
           1005      4.93317e+9 
           1015      2.68889e+9 
           1025      1.61202e+8 
           1035      1.73695e+9 
           1045      5.62459e+9 
           1055      6.26853e+9 
           1065      5.39938e+9 
           1075      6.39376e+9 
           1085      5.94812e+9 
           1095      6.38699e+9 
           1105      5.57647e+9 
           1115       5.3578e+9 
           1125       5.3356e+9 
           1135       6.0079e+9 
           1145      5.20428e+9 
           1155      5.55538e+9 
           1165      5.79795e+9 
           1175      4.97494e+9 
           1185      5.40134e+9 
           1195      2.83386e+9 
           1205      1.49797e+9 
           1215      2.09576e+8 
           1225      1.06691e+9 
           1235      3.90209e+9 
           1245      4.83445e+9 
           1255        4.862e+9 
           1265      4.28823e+9 
           1275      4.91113e+9 
           1285      5.17813e+9 
           1295      3.83418e+9 
           1305      3.11643e+9 
           1315      4.80556e+9 
           1325      4.68974e+9 
           1335      4.32994e+9 
           1345      4.61461e+9 
           1355      4.45113e+9 
           1365      4.18214e+9 
           1375      4.23212e+9 
           1385      4.29123e+9 
           1395      4.00613e+9 
           1405      4.08214e+9 
           1415      3.99153e+9 
           1425      4.02587e+9 
           1435      3.94818e+9 
           1442      4.10199e+9 
           1447      4.06451e+9 
           1455      3.97563e+9 
           1465      3.84045e+9 
           1475      3.70041e+9 
           1485      3.57626e+9 
           1495      3.64707e+9 
           1505      3.45689e+9 
           1512      3.31537e+9 
           1517      3.46217e+9 
           1525      3.38366e+9 
           1535      3.17983e+9 
           1545      3.32203e+9 
           1555      3.11975e+9 
           1565      3.02279e+9 
           1575      3.15447e+9 
           1585      3.15243e+9 
           1595      3.18588e+9 
           1605      3.04422e+9 
           1615      3.02513e+9 
           1625      2.90584e+9 
           1635       2.9379e+9 
           1645      2.90744e+9 
           1655       2.7236e+9 
           1665      2.88531e+9 
           1672      2.75663e+9 
           1677      2.79527e+9 
           1685      2.82584e+9 
           1695      2.72625e+9 
           1705      2.61622e+9 
           1715       2.5133e+9 
           1725       2.4883e+9 
           1735      2.53942e+9 
           1745      2.46474e+9 
           1755      2.51147e+9 
           1765      2.32201e+9 
           1775      2.41513e+9 
           1785      2.38117e+9 
           1795      2.42089e+9 
           1805      2.37379e+9 
           1815      2.29464e+9 
           1825      2.30361e+9 
           1835      2.23069e+9 
           1845       2.1197e+9 
           1855      2.07216e+9 
           1865      2.06711e+9 
           1875      2.13974e+9 
           1885      2.02974e+9 
           1895      1.95623e+9 
           1905      2.02471e+9 
           1915      1.95298e+9 
           1925      1.92176e+9 
           1935      1.93102e+9 
           1945      1.94279e+9 
           1955      1.85751e+9 
           1967      1.91983e+9 
           1976      1.94271e+9 
           1984      1.86075e+9 
           1995      1.80034e+9 
           2005      1.82075e+9 
           2015      1.75197e+9 
           2025      1.82098e+9 
           2035      1.75728e+9 
           2045      1.74653e+9 
           2055      1.66454e+9 
           2065      1.69431e+9 
           2074      1.69426e+9 
           2078      1.67483e+9 
           2085      1.68441e+9 
           2095      1.62596e+9 
           2105      1.63631e+9 
           2115      1.61902e+9 
           2125      1.62718e+9 
           2135      1.58123e+9 
           2145      1.56955e+9 
           2155      1.56921e+9 
           2165       1.5267e+9 
           2175      1.50935e+9 
           2185      1.48909e+9 
           2195        1.498e+9 
           2205      1.45755e+9 
           2215      1.42515e+9 
           2225      1.38269e+9 
           2235      1.41869e+9 
           2245      1.38604e+9 
           2255      1.35103e+9 
           2265      1.35741e+9 
           2275      1.35351e+9 
           2285      1.35223e+9 
           2295        1.314e+9 
           2305      1.29178e+9 
           2315      1.27038e+9 
           2325      1.26178e+9 
           2335      1.21879e+9 
           2345      1.18067e+9 
           2355      1.19662e+9 
           2365      1.15756e+9 
           2375       1.1692e+9 
           2385       1.1273e+9 
           2395      1.15475e+9 
           2405      1.12074e+9 
           2415      1.11884e+9 
           2425      1.12437e+9 
           2435      1.08554e+9 
           2445      1.09603e+9 
           2455      1.08655e+9 
           2465      1.06567e+9 
           2475      1.05006e+9 
           2485      1.06633e+9 
           2495      1.03559e+9 
           2505      1.04968e+9 
           2513      1.02188e+9 
           2518      1.03013e+9 
           2525      9.96536e+8 
           2535      9.85231e+8 
           2545          9.7e+8 
           2555      9.87988e+8 
           2565      9.73771e+8 
           2575      9.85313e+8 
           2585      9.82102e+8 
           2595      9.72925e+8 
           2605      9.53645e+8 
           2615      9.46145e+8 
           2625      9.37419e+8 
           2635      9.32271e+8 
           2645      9.48444e+8 
           2655      9.37785e+8 
           2665      9.12673e+8 
           2675      9.17918e+8 
           2685      9.08637e+8 
           2695      8.94126e+8 
           2705      8.89072e+8 
           2715      8.72824e+8 
           2725      8.61103e+8 
           2735      8.66905e+8 
           2745      8.32352e+8 
           2755      8.26519e+8 
           2765      8.29273e+8 
           2775      8.35391e+8 
           2785      8.26051e+8 
           2795      7.79787e+8 
           2805      8.00907e+8 
           2815      8.09964e+8 
           2825      7.97254e+8 
           2835      7.78234e+8 
           2845      7.71283e+8 
           2855      7.70789e+8 
           2865      7.73036e+8 
           2875       7.6115e+8 
           2885      7.57059e+8 
           2895      7.52423e+8 
           2910      7.44864e+8 
           2930      7.26041e+8 
           2950      7.12334e+8 
           2970      7.04779e+8 
           2990      6.90747e+8 
           3010       6.8322e+8 
           3030      6.72507e+8 
           3050      6.59828e+8 
           3070      6.48221e+8 
           3090      6.37963e+8 
           3110      6.25383e+8 
           3130      6.16494e+8 
           3150      6.05615e+8 
           3170       5.9586e+8 
           3190      5.80452e+8 
           3210      5.75033e+8 
           3230      5.66273e+8 
           3250      5.57577e+8 
           3270      5.49228e+8 
           3290      5.40273e+8 
           3310      5.32148e+8 
           3330      5.23295e+8 
           3350      5.14178e+8 
           3370      5.06468e+8 
           3390      4.98608e+8 
           3410      4.91059e+8 
           3430      4.82884e+8 
           3450      4.74896e+8 
           3470       4.6781e+8 
           3490      4.61072e+8 
           3510      4.54182e+8 
           3530      4.47236e+8 
           3550      4.40357e+8 
           3570      4.34314e+8 
           3590      4.26536e+8 
           3610      4.20811e+8 
           3630      4.14014e+8 
           3640      4.11998e+8 
           3650      4.08641e+8 
           3670      4.03891e+8 
           3690      3.97644e+8 
           3710      3.85978e+8 
           3730      3.67011e+8 
           3750      3.77145e+8 
           3770      3.76361e+8 
           3790       4.1313e+8 
           3810        4.482e+8 
           3830      3.79762e+8 
           3850      4.72891e+8 
           3870      5.06376e+8 
           3890       3.4608e+8 
           3910      5.02795e+8 
           3930       5.1496e+8 
           3950      4.90877e+8 
           3970      3.26345e+8 
           3990      4.65206e+8 
           4010      4.90237e+8 
           4030      4.60169e+8 
           4050      4.84207e+8 
           4070      4.66997e+8 
           4090      3.88483e+8 
           4110      3.23113e+8 
           4130      4.31661e+8 
           4150      4.41379e+8 
           4170      4.40578e+8 
           4190      4.35996e+8 
           4210      4.30057e+8 
           4230      4.23094e+8 
           4250      4.15993e+8 
           4270      4.06113e+8 
           4290      4.00206e+8 
           4310      3.85184e+8 
           4330      3.13196e+8 
           4350      2.79603e+8 
           4370      3.63928e+8 
           4390      3.58313e+8 
           4410      3.66441e+8 
           4430      3.60222e+8 
           4450      3.56706e+8 
           4470      3.32914e+8 
           4490      3.42381e+8 
           4510      3.41981e+8 
           4530      3.36288e+8 
           4550      3.31354e+8 
           4570      3.26891e+8 
           4590        3.221e+8 
           4610      3.17485e+8 
           4630       3.1234e+8 
           4650      3.07865e+8 
           4670      3.03644e+8 
           4690      2.99519e+8 
           4710      2.90527e+8 
           4730      2.90231e+8 
           4750      2.85621e+8 
           4770      2.82205e+8 
           4790      2.77423e+8 
           4810      2.71229e+8 
           4830      2.61495e+8 
           4850      2.20632e+8 
           4870      1.91789e+8 
           4890      2.47255e+8 
           4910      2.52011e+8 
           4930      2.44406e+8 
           4950      2.48385e+8 
           4970       2.4575e+8 
           4990      2.42362e+8 
           5010      2.35222e+8 
           5030      2.35321e+8 
           5050      2.28778e+8 
           5070      2.29585e+8 
           5090      2.26418e+8 
           5110      2.23148e+8 
           5130      2.20424e+8 
           5150      2.17309e+8 
           5170      2.14588e+8 
           5190      2.11679e+8 
           5210      2.07836e+8 
           5230      2.06277e+8 
           5250       2.0367e+8 
           5270      2.00784e+8 
           5290      1.98555e+8 
           5310        1.959e+8 
           5330      1.93226e+8 
           5350      1.90546e+8 
           5370      1.88542e+8 
           5390       1.8616e+8 
           5410      1.83602e+8 
           5430      1.80987e+8 
           5450      1.78912e+8 
           5470      1.76461e+8 
           5490       1.7469e+8 
           5510      1.72382e+8 
           5530      1.70312e+8 
           5550      1.68218e+8 
           5570      1.66089e+8 
           5590      1.64131e+8 
           5610      1.61982e+8 
           5630      1.60215e+8 
           5650      1.57537e+8 
           5670      1.55783e+8 
           5690      1.54294e+8 
           5710      1.52533e+8 
           5730      1.50747e+8 
           5750      1.48914e+8 
           5770      1.47148e+8 
           5790       1.4538e+8 
           5810      1.43578e+8 
           5830      1.41929e+8 
           5850      1.40234e+8 
           5870      1.34775e+8 
           5890      1.36577e+8 
           5910      1.35341e+8 
           5930       1.3383e+8 
           5950      1.31889e+8 
           5970      1.30679e+8 
           5990      1.28926e+8 
           6010      1.27746e+8 
           6030      1.26257e+8 
           6050      1.24817e+8 
           6070      1.23372e+8 
           6090      1.21933e+8 
           6110      1.20611e+8 
           6130      1.19244e+8 
           6150      1.17593e+8 
           6170      1.16525e+8 
           6190      1.15262e+8 
           6210      1.13964e+8 
           6230      1.12671e+8 
           6250      1.11227e+8 
           6270      1.10174e+8 
           6290      1.08951e+8 
           6310      1.07684e+8 
           6330      1.06572e+8 
           6350      1.04678e+8 
           6370       1.0378e+8 
           6390      1.03076e+8 
           6410      1.01884e+8 
           6430      1.00914e+8 
           6450      9.97186e+7 
           6470      9.85451e+7 
           6490      9.72858e+7 
           6510      9.57822e+7 
           6530      9.34206e+7 
           6550      8.47557e+7 
           6570      7.35525e+7 
           6590      8.86043e+7 
           6610      9.04918e+7 
           6630       9.0178e+7 
           6650      8.94405e+7 
           6670      8.78549e+7 
           6690      8.70863e+7 
           6710      8.68775e+7 
           6730      8.59959e+7 
           6750       8.5115e+7 
           6770       8.4243e+7 
           6790      8.33307e+7 
           6810      8.25008e+7 
           6830      8.16064e+7 
           6850      8.08175e+7 
           6870      7.99964e+7 
           6890      7.91859e+7 
           6910      7.83786e+7 
           6930      7.75221e+7 
           6950      7.68028e+7 
           6970       7.6037e+7 
           6990      7.52632e+7 
           7010      7.44833e+7 
           7030      7.37483e+7 
           7050      7.29742e+7 
           7070      7.15475e+7 
           7090      7.15925e+7 
           7110      7.08676e+7 
           7130       7.0172e+7 
           7150      6.94624e+7 
           7170      6.88057e+7 
           7190      6.81356e+7 
           7210      6.74726e+7 
           7230      6.66544e+7 
           7250      6.61338e+7 
           7270      6.55231e+7 
           7290      6.46232e+7 
           7310      6.42602e+7 
           7330      6.36421e+7 
           7350      6.30341e+7 
           7370      6.24302e+7 
           7390      6.18334e+7 
           7410      6.12441e+7 
           7430      6.06105e+7 
           7450       6.0069e+7 
           7470      5.94771e+7 
           7490      5.89282e+7 
           7510      5.83889e+7 
           7530       5.7846e+7 
           7550      5.73066e+7 
           7570      5.67754e+7 
           7590      5.62399e+7 
           7610      5.57241e+7 
           7630      5.52059e+7 
           7650       5.4693e+7 
           7670      5.41884e+7 
           7690      5.36884e+7 
           7710      5.31961e+7 
           7730      5.27049e+7 
           7750       5.2225e+7 
           7770      5.13318e+7 
           7790      5.12772e+7 
           7810      5.08098e+7 
           7830      5.03534e+7 
           7850      4.97841e+7 
           7870      4.93367e+7 
           7890       4.8814e+7 
           7910      4.85687e+7 
           7930      4.81377e+7 
           7950      4.76031e+7 
           7970      4.72779e+7 
           7990       4.6691e+7 
           8010      4.64452e+7 
           8030      4.60342e+7 
           8050      4.56191e+7 
           8070       4.5225e+7 
           8090      4.48226e+7 
           8110      4.44254e+7 
           8130      4.40332e+7 
           8150      4.36563e+7 
           8170      4.32797e+7 
           8190      4.28883e+7 
           8210      4.24343e+7 
           8230      4.20269e+7 
           8250      4.17963e+7 
           8270       4.1417e+7 
           8290      4.11017e+7 
           8310      4.07677e+7 
           8330      4.04316e+7 
           8350      4.00555e+7 
           8370      3.97385e+7 
           8390      3.94422e+7 
           8410      3.91041e+7 
           8430       3.8756e+7 
           8450      3.82082e+7 
           8470      3.80695e+7 
           8490       3.7711e+7 
           8510      3.73056e+7 
           8530      3.70843e+7 
           8550      3.63452e+7 
           8570      3.66256e+7 
