# Kurucz ODFNEW /NOVER (2003)
# teff = 19000 K (value for the effective temperature for the model. Temperatures are given in K)
# logg = 5 log(cm/s2) (value for Log(G) for the model.)
# meta = -1  (value for the Metallicity for the model.)
# lh = 1.25  (l/Hp where l is the  mixing length of the convective element and Hp is the pressure scale height)
# vtur = 2 km/s (Microturbulence velocity)
# alpha = 0.4  (Alpha)
#
# column 1: WAVELENGTH (ANGSTROM), Wavelength in Angstrom
# column 2: FLUX (ERG/CM2/S/A), Flux in erg/cm2/s/A
          147.2     3.93701e-21 
            151     2.62675e-20 
          155.2     1.91829e-19 
          158.8     9.68974e-19 
            162       3.855e-18 
            166     2.01325e-17 
          170.3     1.09264e-16 
          173.4     3.51238e-16 
          176.8     1.20654e-15 
          180.2     3.95872e-15 
          181.7     6.59242e-15 
          186.1     2.81058e-14 
            191     1.30581e-13 
          193.9     3.11446e-13 
          198.4     1.14284e-12 
          201.8     2.94764e-12 
            205     7.00452e-12 
          210.5     2.89845e-11 
          216.2     1.17212e-10 
          219.8      2.7308e-10 
            223     5.64598e-10 
          226.8      1.30527e-9 
            230      3.09751e-9 
            234      7.73398e-9 
            240      2.56601e-8 
          246.5      8.73526e-8 
          252.4      2.51747e-7 
          256.8      5.32187e-7 
            260        9.163e-7 
            264      1.75522e-6 
          268.5      3.55554e-6 
          273.5      7.57566e-6 
          278.5       1.5741e-5 
            284      3.41138e-5 
            290      7.65957e-5 
            296     0.000166045 
            301     0.000309455 
            308     0.000710577 
            318      0.00220772 
            328      0.00635178 
            338       0.0171507 
            348       0.0436351 
            357       0.0965079 
            366        0.205171 
            375        0.419017 
            385        0.889816 
            395         1.81335 
            405         3.56231 
            414         6.35224 
            422         10.3814 
            430          16.623 
            441         30.9161 
            451         52.7771 
            460         83.5641 
            470         136.197 
            480         217.077 
            490         339.025 
            500         519.028 
            506         4968.45 
            512         12994.2 
            520         16819.1 
            530         24221.2 
            540         29843.8 
            550         43222.4 
            560         56010.9 
            570           73130 
            580           83007 
            590          114566 
            600          146935 
            610          184517 
            620          225077 
            630          277236 
            640          330917 
            650          403069 
            658          469298 
            665          526335 
            675          618907 
            685          730585 
            695          869475 
            705      1.01113e+6 
            716        1.189e+6 
            726      1.37161e+6 
            735      1.56034e+6 
            745      1.79437e+6 
            755      2.05401e+6 
            765      2.32266e+6 
            775      2.64496e+6 
            785      2.98498e+6 
            795      3.33971e+6 
            805      3.74727e+6 
            815      4.17206e+6 
            825      4.65404e+6 
            835      5.08993e+6 
            845      5.67871e+6 
            855      6.24288e+6 
            865      6.89993e+6 
            875      7.55107e+6 
            885      8.31356e+6 
            895      9.07085e+6 
            905      9.70911e+6 
            915      1.47326e+7 
            925      4.31179e+7 
            935      8.78881e+7 
            945      4.08628e+8 
            955      1.64831e+9 
            965      2.52008e+9 
            975      5.82437e+8 
            985      6.06898e+9 
            995      7.47047e+9 
           1005      7.87345e+9 
           1015      4.44334e+9 
           1025      2.85864e+8 
           1035       3.1276e+9 
           1045       8.3779e+9 
           1055      9.11001e+9 
           1065      8.14192e+9 
           1075      9.16799e+9 
           1085        8.546e+9 
           1095      9.06677e+9 
           1105      8.17958e+9 
           1115      7.99292e+9 
           1125      7.68416e+9 
           1135       8.2132e+9 
           1145      7.39077e+9 
           1155      7.75613e+9 
           1165      7.84256e+9 
           1175      6.77915e+9 
           1185      7.32788e+9 
           1195      4.96388e+9 
           1205      2.57923e+9 
           1215      3.21677e+8 
           1225       1.9827e+9 
           1235      5.39891e+9 
           1245      6.35763e+9 
           1255      6.35239e+9 
           1265      5.99692e+9 
           1275      6.44365e+9 
           1285      6.49524e+9 
           1295      5.34804e+9 
           1305       4.8326e+9 
           1315      6.13298e+9 
           1325      5.90901e+9 
           1335      5.60034e+9 
           1345      5.76124e+9 
           1355      5.64102e+9 
           1365      5.42057e+9 
           1375      5.38724e+9 
           1385      5.39771e+9 
           1395      5.08404e+9 
           1405      5.13979e+9 
           1415      5.07718e+9 
           1425      5.03864e+9 
           1435      4.97635e+9 
           1442      5.03341e+9 
           1447      4.97692e+9 
           1455      4.87073e+9 
           1465      4.74847e+9 
           1475      4.63997e+9 
           1485      4.49091e+9 
           1495      4.48918e+9 
           1505      4.31263e+9 
           1512       4.1993e+9 
           1517      4.28543e+9 
           1525      4.19831e+9 
           1535       4.0114e+9 
           1545      4.09569e+9 
           1555      3.91012e+9 
           1565      3.82217e+9 
           1575      3.90303e+9 
           1585      3.85858e+9 
           1595      3.86529e+9 
           1605      3.72309e+9 
           1615      3.67742e+9 
           1625      3.59064e+9 
           1635      3.57814e+9 
           1645      3.52906e+9 
           1655      3.37197e+9 
           1665      3.48854e+9 
           1672         3.34e+9 
           1677      3.39526e+9 
           1685      3.39229e+9 
           1695      3.30504e+9 
           1705      3.19718e+9 
           1715      3.10237e+9 
           1725      3.06498e+9 
           1735      3.08645e+9 
           1745      3.01245e+9 
           1755      3.02678e+9 
           1765        2.835e+9 
           1775      2.91782e+9 
           1785      2.86795e+9 
           1795      2.88333e+9 
           1805      2.82741e+9 
           1815      2.75826e+9 
           1825      2.76024e+9 
           1835      2.69813e+9 
           1845      2.58994e+9 
           1855      2.52793e+9 
           1865      2.50848e+9 
           1875      2.54973e+9 
           1885      2.44387e+9 
           1895      2.36915e+9 
           1905      2.42532e+9 
           1915      2.34674e+9 
           1925      2.31042e+9 
           1935      2.30884e+9 
           1945      2.31722e+9 
           1955      2.22685e+9 
           1967       2.2651e+9 
           1976      2.27355e+9 
           1984      2.20089e+9 
           1995      2.13542e+9 
           2005      2.15175e+9 
           2015      2.11365e+9 
           2025      2.13481e+9 
           2035       2.0804e+9 
           2045      2.05813e+9 
           2055      1.97784e+9 
           2065      1.99363e+9 
           2074      1.98906e+9 
           2078      1.96763e+9 
           2085      1.96978e+9 
           2095      1.91883e+9 
           2105      1.92156e+9 
           2115      1.90267e+9 
           2125      1.90016e+9 
           2135      1.86463e+9 
           2145      1.83885e+9 
           2155      1.82831e+9 
           2165      1.78928e+9 
           2175       1.7692e+9 
           2185      1.75107e+9 
           2195      1.74649e+9 
           2205      1.70961e+9 
           2215         1.68e+9 
           2225      1.64621e+9 
           2235      1.65769e+9 
           2245      1.63256e+9 
           2255      1.60174e+9 
           2265      1.59717e+9 
           2275        1.578e+9 
           2285      1.57056e+9 
           2295      1.53531e+9 
           2305      1.52003e+9 
           2315      1.49933e+9 
           2325      1.48807e+9 
           2335      1.44944e+9 
           2345      1.40812e+9 
           2355      1.42125e+9 
           2365      1.38319e+9 
           2375       1.3858e+9 
           2385      1.35049e+9 
           2395       1.3596e+9 
           2405      1.33542e+9 
           2415      1.32167e+9 
           2425      1.32405e+9 
           2435      1.29337e+9 
           2445      1.28754e+9 
           2455       1.2832e+9 
           2465      1.25545e+9 
           2475        1.246e+9 
           2485      1.24331e+9 
           2495      1.21249e+9 
           2505      1.22018e+9 
           2513      1.19584e+9 
           2518      1.20084e+9 
           2525      1.17605e+9 
           2535       1.1553e+9 
           2545      1.14641e+9 
           2555       1.1565e+9 
           2565      1.13754e+9 
           2575      1.13832e+9 
           2585      1.12992e+9 
           2595      1.11743e+9 
           2605      1.10404e+9 
           2615      1.09423e+9 
           2625      1.08236e+9 
           2635      1.07231e+9 
           2645      1.08113e+9 
           2655      1.06904e+9 
           2665      1.04804e+9 
           2675      1.04522e+9 
           2685       1.0375e+9 
           2695      1.02043e+9 
           2705      1.01552e+9 
           2715      1.00059e+9 
           2725      9.84843e+8 
           2735       9.8536e+8 
           2745      9.54945e+8 
           2755      9.49663e+8 
           2765      9.46945e+8 
           2775      9.50455e+8 
           2785      9.38348e+8 
           2795      8.99865e+8 
           2805      9.13571e+8 
           2815      9.16552e+8 
           2825      9.00681e+8 
           2835      8.86417e+8 
           2845       8.8364e+8 
           2855      8.78848e+8 
           2865      8.74238e+8 
           2875      8.63837e+8 
           2885      8.57044e+8 
           2895       8.5001e+8 
           2910      8.38689e+8 
           2930      8.18458e+8 
           2950       8.0216e+8 
           2970      7.93357e+8 
           2990      7.77681e+8 
           3010      7.65925e+8 
           3030      7.52728e+8 
           3050      7.39082e+8 
           3070      7.25926e+8 
           3090      7.13206e+8 
           3110      7.00167e+8 
           3130      6.89018e+8 
           3150      6.76803e+8 
           3170      6.65328e+8 
           3190      6.48941e+8 
           3210      6.42233e+8 
           3230      6.31668e+8 
           3250      6.21171e+8 
           3270      6.11271e+8 
           3290      6.00799e+8 
           3310      5.91291e+8 
           3330      5.81457e+8 
           3350      5.71279e+8 
           3370      5.62495e+8 
           3390      5.53419e+8 
           3410      5.44549e+8 
           3430      5.35079e+8 
           3450      5.25823e+8 
           3470      5.17996e+8 
           3490      5.09849e+8 
           3510      5.02281e+8 
           3530       4.9449e+8 
           3550      4.86572e+8 
           3570      4.80071e+8 
           3590      4.71084e+8 
           3610      4.64635e+8 
           3630      4.56756e+8 
           3640      4.54733e+8 
           3650      4.50577e+8 
           3670      4.45259e+8 
           3690      4.38398e+8 
           3710      4.25227e+8 
           3730       4.0473e+8 
           3750       4.1398e+8 
           3770       4.1225e+8 
           3790      4.50478e+8 
           3810      4.86402e+8 
           3830      4.12199e+8 
           3850      5.14523e+8 
           3870      5.47377e+8 
           3890      3.77548e+8 
           3910      5.42913e+8 
           3930      5.55865e+8 
           3950      5.29703e+8 
           3970      3.55506e+8 
           3990      5.02642e+8 
           4010       5.2634e+8 
           4030      4.91414e+8 
           4050      5.19715e+8 
           4070      5.02658e+8 
           4090      4.20102e+8 
           4110      3.50589e+8 
           4130      4.65586e+8 
           4150      4.73906e+8 
           4170      4.72989e+8 
           4190      4.67819e+8 
           4210       4.6094e+8 
           4230      4.53518e+8 
           4250      4.45964e+8 
           4270      4.36424e+8 
           4290      4.29089e+8 
           4310      4.13435e+8 
           4330      3.38253e+8 
           4350      3.02538e+8 
           4370      3.90718e+8 
           4390      3.82748e+8 
           4410      3.92321e+8 
           4430      3.85696e+8 
           4450      3.81457e+8 
           4470      3.54031e+8 
           4490      3.67197e+8 
           4510      3.65633e+8 
           4530      3.59897e+8 
           4550       3.5452e+8 
           4570      3.49403e+8 
           4590      3.44273e+8 
           4610      3.39236e+8 
           4630      3.34079e+8 
           4650      3.29034e+8 
           4670      3.24477e+8 
           4690      3.19883e+8 
           4710      3.10498e+8 
           4730      3.10185e+8 
           4750      3.05474e+8 
           4770       3.0118e+8 
           4790       2.9619e+8 
           4810       2.9002e+8 
           4830      2.79888e+8 
           4850      2.37129e+8 
           4870      2.06577e+8 
           4890      2.64522e+8 
           4910      2.69076e+8 
           4930      2.60185e+8 
           4950       2.6496e+8 
           4970      2.62084e+8 
           4990      2.58475e+8 
           5010      2.51102e+8 
           5030      2.51209e+8 
           5050      2.45027e+8 
           5070      2.44725e+8 
           5090      2.41395e+8 
           5110      2.38066e+8 
           5130       2.3494e+8 
           5150      2.31755e+8 
           5170      2.28739e+8 
           5190      2.25679e+8 
           5210      2.22117e+8 
           5230      2.19788e+8 
           5250      2.16914e+8 
           5270      2.14023e+8 
           5290      2.11331e+8 
           5310      2.08553e+8 
           5330      2.05797e+8 
           5350      2.02998e+8 
           5370        2.006e+8 
           5390      1.98025e+8 
           5410      1.95443e+8 
           5430      1.92754e+8 
           5450      1.90429e+8 
           5470      1.87969e+8 
           5490      1.85777e+8 
           5510      1.83388e+8 
           5530      1.81103e+8 
           5550      1.78871e+8 
           5570      1.76617e+8 
           5590      1.74451e+8 
           5610      1.72216e+8 
           5630      1.70199e+8 
           5650      1.67745e+8 
           5670      1.65802e+8 
           5690      1.63963e+8 
           5710      1.62019e+8 
           5730      1.60064e+8 
           5750      1.58121e+8 
           5770      1.56223e+8 
           5790      1.54348e+8 
           5810      1.52473e+8 
           5830      1.50663e+8 
           5850      1.48864e+8 
           5870      1.42593e+8 
           5890      1.44949e+8 
           5910      1.43646e+8 
           5930      1.41982e+8 
           5950      1.40157e+8 
           5970      1.38659e+8 
           5990      1.36926e+8 
           6010      1.35464e+8 
           6030      1.33893e+8 
           6050      1.32351e+8 
           6070      1.30815e+8 
           6090      1.29307e+8 
           6110      1.27847e+8 
           6130      1.26392e+8 
           6150      1.24844e+8 
           6170      1.23522e+8 
           6190      1.22135e+8 
           6210      1.20754e+8 
           6230      1.19397e+8 
           6250      1.17988e+8 
           6270      1.16738e+8 
           6290      1.15435e+8 
           6310      1.14118e+8 
           6330       1.1289e+8 
           6350      1.11181e+8 
           6370      1.10131e+8 
           6390      1.09184e+8 
           6410      1.07963e+8 
           6430      1.06837e+8 
           6450      1.05623e+8 
           6470      1.04377e+8 
           6490      1.03019e+8 
           6510      1.01489e+8 
           6530      9.90396e+7 
           6550      9.01112e+7 
           6570      7.83737e+7 
           6590      9.40173e+7 
           6610      9.58376e+7 
           6630      9.54317e+7 
           6650      9.46456e+7 
           6670      9.28425e+7 
           6690      9.19936e+7 
           6710      9.19146e+7 
           6730      9.09616e+7 
           6750      9.00182e+7 
           6770      8.90843e+7 
           6790      8.81354e+7 
           6810      8.72367e+7 
           6830      8.63227e+7 
           6850       8.5442e+7 
           6870      8.45701e+7 
           6890       8.3699e+7 
           6910      8.28443e+7 
           6930      8.19746e+7 
           6950      8.11681e+7 
           6970      8.03463e+7 
           6990      7.95247e+7 
           7010       7.8719e+7 
           7030      7.79287e+7 
           7050      7.71309e+7 
           7070      7.54591e+7 
           7090      7.56185e+7 
           7110      7.48658e+7 
           7130      7.41203e+7 
           7150      7.33746e+7 
           7170      7.26603e+7 
           7190      7.19447e+7 
           7210      7.12374e+7 
           7230      7.04417e+7 
           7250      6.98393e+7 
           7270      6.91661e+7 
           7290      6.81492e+7 
           7310      6.78268e+7 
           7330      6.71704e+7 
           7350      6.65222e+7 
           7370      6.58808e+7 
           7390      6.52474e+7 
           7410      6.46212e+7 
           7430      6.39858e+7 
           7450      6.33895e+7 
           7470      6.27811e+7 
           7490      6.21864e+7 
           7510      6.15985e+7 
           7530      6.10206e+7 
           7550      6.04472e+7 
           7570      5.98797e+7 
           7590      5.93167e+7 
           7610      5.87627e+7 
           7630      5.82137e+7 
           7650      5.76715e+7 
           7670      5.71355e+7 
           7690      5.66055e+7 
           7710      5.60822e+7 
           7730      5.55641e+7 
           7750      5.50531e+7 
           7770      5.43139e+7 
           7790      5.40478e+7 
           7810      5.35472e+7 
           7830      5.30657e+7 
           7850      5.25505e+7 
           7870      5.20666e+7 
           7890      5.15524e+7 
           7910      5.11824e+7 
           7930      5.07215e+7 
           7950      5.02234e+7 
           7970       4.9811e+7 
           7990      4.92993e+7 
           8010      4.89272e+7 
           8030      4.84916e+7 
           8050      4.80596e+7 
           8070      4.76337e+7 
           8090       4.7208e+7 
           8110      4.67921e+7 
           8130      4.63786e+7 
           8150      4.59721e+7 
           8170      4.55723e+7 
           8190      4.51624e+7 
           8210      4.47001e+7 
           8230      4.43268e+7 
           8250      4.40025e+7 
           8270      4.35746e+7 
           8290      4.32648e+7 
           8310      4.29112e+7 
           8330      4.25457e+7 
           8350       4.2126e+7 
           8370      4.18137e+7 
           8390      4.14925e+7 
           8410       4.1134e+7 
           8430      4.07694e+7 
           8450      4.02601e+7 
           8470      4.00466e+7 
           8490      3.96679e+7 
           8510      3.92663e+7 
           8530      3.89876e+7 
           8550      3.82937e+7 
           8570       3.8504e+7 
           8590      3.74135e+7 
