# Kurucz ODFNEW /NOVER (2003)
# teff = 31000 K (value for the effective temperature for the model. Temperatures are given in K)
# logg = 5 log(cm/s2) (value for Log(G) for the model.)
# meta = -1  (value for the Metallicity for the model.)
# lh = 1.25  (l/Hp where l is the  mixing length of the convective element and Hp is the pressure scale height)
# vtur = 2 km/s (Microturbulence velocity)
# alpha = 0.4  (Alpha)
#
# column 1: WAVELENGTH (ANGSTROM), Wavelength in Angstrom
# column 2: FLUX (ERG/CM2/S/A), Flux in erg/cm2/s/A
          147.2      6.24978e-8 
            151        1.929e-7 
          155.2      6.30822e-7 
          158.8      1.66124e-6 
            162      3.79701e-6 
            166      1.02195e-5 
          170.3      2.81488e-5 
          173.4      5.67107e-5 
          176.8     0.000118854 
          180.2     0.000242289 
          181.7     0.000328919 
          186.1     0.000784641 
            191      0.00197086 
          193.9      0.00332458 
          198.4      0.00725722 
          201.8       0.0127867 
            205       0.0214124 
          210.5       0.0500696 
          216.2        0.115221 
          219.8        0.190688 
            223        0.294231 
          226.8        0.485422 
            230         102.137 
            234         265.959 
            240         481.429 
          246.5          895.66 
          252.4         1542.68 
          256.8            2038 
            260         3018.13 
            264         3995.78 
          268.5         5878.34 
          273.5         8605.09 
          278.5         12117.1 
            284         19663.2 
            290         29099.1 
            296         42063.9 
            301         55373.6 
            308         82133.6 
            318          162004 
            328          261166 
            338          438513 
            348          688512 
            357      1.25163e+6 
            366      1.93956e+6 
            375      2.59584e+6 
            385      3.77454e+6 
            395      5.42065e+6 
            405      7.23876e+6 
            414      9.57473e+6 
            422      1.15142e+7 
            430      1.42422e+7 
            441      1.86295e+7 
            451      2.37335e+7 
            460      2.83971e+7 
            470      3.53501e+7 
            480      4.29625e+7 
            490      5.19184e+7 
            500      6.31549e+7 
            506      2.40882e+8 
            512      1.13685e+9 
            520      1.14296e+9 
            530      1.22282e+9 
            540      1.13316e+9 
            550      1.36332e+9 
            560      1.47905e+9 
            570       1.5773e+9 
            580      1.48374e+9 
            590      1.67607e+9 
            600      1.68398e+9 
            610      1.79921e+9 
            620      1.91403e+9 
            630      1.97762e+9 
            640      1.95014e+9 
            650      2.09042e+9 
            658       2.1136e+9 
            665      2.18332e+9 
            675       2.1994e+9 
            685      2.16728e+9 
            695      2.44417e+9 
            705      2.38518e+9 
            716      2.59633e+9 
            726      2.61393e+9 
            735      2.68922e+9 
            745      2.80702e+9 
            755       2.8607e+9 
            765       2.9427e+9 
            775      3.03165e+9 
            785      3.14784e+9 
            795      3.18169e+9 
            805       3.2333e+9 
            815      3.27281e+9 
            825      3.39647e+9 
            835      3.20981e+9 
            845      3.47054e+9 
            855       3.5198e+9 
            865      3.61602e+9 
            875      3.69804e+9 
            885      3.78993e+9 
            895      3.86227e+9 
            905      3.86161e+9 
            915      4.10282e+9 
            925     1.39658e+10 
            935      2.7751e+10 
            945     5.72039e+10 
            955     7.08703e+10 
            965     9.27558e+10 
            975     3.83936e+10 
            985     9.42498e+10 
            995     8.55497e+10 
           1005     9.02077e+10 
           1015     8.58024e+10 
           1025     3.94434e+10 
           1035     7.79255e+10 
           1045     9.16584e+10 
           1055     8.85007e+10 
           1065     7.82538e+10 
           1075     8.09351e+10 
           1085     7.33282e+10 
           1095     7.95168e+10 
           1105     7.53783e+10 
           1115     7.35474e+10 
           1125     6.45065e+10 
           1135     7.08642e+10 
           1145     6.51893e+10 
           1155     6.55678e+10 
           1165     6.45663e+10 
           1175     5.13812e+10 
           1185     6.00014e+10 
           1195     5.70387e+10 
           1205      5.0196e+10 
           1215     2.62803e+10 
           1225     5.00641e+10 
           1235     5.43275e+10 
           1245     5.28336e+10 
           1255     5.23658e+10 
           1265     5.15953e+10 
           1275     5.11135e+10 
           1285      5.0061e+10 
           1295     4.50519e+10 
           1305     4.55719e+10 
           1315     4.67964e+10 
           1325      4.4891e+10 
           1335     4.34389e+10 
           1345     4.27058e+10 
           1355     4.26441e+10 
           1365     4.05072e+10 
           1375     3.99659e+10 
           1385     3.91611e+10 
           1395     3.33574e+10 
           1405     3.39243e+10 
           1415     3.62575e+10 
           1425     3.46206e+10 
           1435     3.47563e+10 
           1442     3.48436e+10 
           1447     3.43064e+10 
           1455     3.34426e+10 
           1465     3.25839e+10 
           1475     3.19357e+10 
           1485      3.1449e+10 
           1495     3.06251e+10 
           1505     2.92249e+10 
           1512     2.88033e+10 
           1517     2.86629e+10 
           1525     2.81442e+10 
           1535     2.59976e+10 
           1545     2.51413e+10 
           1555      2.4403e+10 
           1565     2.48459e+10 
           1575     2.49976e+10 
           1585     2.47102e+10 
           1595     2.44339e+10 
           1605     2.33333e+10 
           1615     2.26148e+10 
           1625     2.25528e+10 
           1635     2.23905e+10 
           1645     2.15706e+10 
           1655     2.19337e+10 
           1665      2.1508e+10 
           1672     2.09496e+10 
           1677     2.16661e+10 
           1685     2.11358e+10 
           1695     2.05737e+10 
           1705     2.00169e+10 
           1715     1.94447e+10 
           1725     1.89439e+10 
           1735     1.90691e+10 
           1745     1.87163e+10 
           1755     1.84192e+10 
           1765     1.79209e+10 
           1775     1.75677e+10 
           1785     1.73749e+10 
           1795     1.72169e+10 
           1805     1.70498e+10 
           1815      1.6524e+10 
           1825     1.63219e+10 
           1835     1.60572e+10 
           1845     1.51897e+10 
           1855     1.49815e+10 
           1865     1.49621e+10 
           1875     1.48565e+10 
           1885      1.4096e+10 
           1895     1.35731e+10 
           1905     1.38711e+10 
           1915     1.33691e+10 
           1925     1.29368e+10 
           1935     1.31374e+10 
           1945      1.3161e+10 
           1955     1.23969e+10 
           1967     1.25869e+10 
           1976     1.27234e+10 
           1984     1.22142e+10 
           1995     1.18546e+10 
           2005     1.19353e+10 
           2015     1.18747e+10 
           2025     1.17908e+10 
           2035      1.1385e+10 
           2045     1.12207e+10 
           2055     1.03027e+10 
           2065     1.01068e+10 
           2074     1.02339e+10 
           2078      9.98252e+9 
           2085     1.00213e+10 
           2095      9.94478e+9 
           2105     1.02221e+10 
           2115     1.02107e+10 
           2125     1.00948e+10 
           2135      9.93763e+9 
           2145      9.73874e+9 
           2155      9.65749e+9 
           2165      9.48007e+9 
           2175      9.37558e+9 
           2185      9.21105e+9 
           2195      9.13591e+9 
           2205        8.999e+9 
           2215      8.81887e+9 
           2225      8.72304e+9 
           2235      8.58256e+9 
           2245      8.47861e+9 
           2255      8.29245e+9 
           2265      8.23261e+9 
           2275      8.11526e+9 
           2285      7.97729e+9 
           2295      7.66616e+9 
           2305      7.70686e+9 
           2315       7.6362e+9 
           2325      7.53441e+9 
           2335      7.41336e+9 
           2345      7.33177e+9 
           2355      7.22888e+9 
           2365      7.12948e+9 
           2375      7.01815e+9 
           2385      6.87266e+9 
           2395      6.80947e+9 
           2405      6.73212e+9 
           2415      6.63062e+9 
           2425       6.5485e+9 
           2435      6.43701e+9 
           2445      6.36177e+9 
           2455       6.2788e+9 
           2465      6.20068e+9 
           2475      6.11094e+9 
           2485      6.02739e+9 
           2495       5.5254e+9 
           2505      5.84544e+9 
           2513      5.67089e+9 
           2518       5.7109e+9 
           2525      5.71302e+9 
           2535      5.64248e+9 
           2545      5.51418e+9 
           2555      5.46688e+9 
           2565      5.40934e+9 
           2575      5.34792e+9 
           2585      5.28131e+9 
           2595      5.21237e+9 
           2605      5.16882e+9 
           2615      5.09978e+9 
           2625      5.03667e+9 
           2635      4.97036e+9 
           2645      4.90409e+9 
           2655      4.83723e+9 
           2665      4.75724e+9 
           2675      4.69462e+9 
           2685      4.66296e+9 
           2695      4.56125e+9 
           2705      4.53407e+9 
           2715      4.48172e+9 
           2725      4.39415e+9 
           2735      4.35019e+9 
           2745      4.31715e+9 
           2755      4.26646e+9 
           2765      4.17909e+9 
           2775      4.16913e+9 
           2785       4.1134e+9 
           2795      4.00411e+9 
           2805      3.99625e+9 
           2815      3.97028e+9 
           2825      3.88393e+9 
           2835      3.82986e+9 
           2845      3.83012e+9 
           2855      3.77777e+9 
           2865       3.7335e+9 
           2875      3.68998e+9 
           2885      3.64924e+9 
           2895       3.6047e+9 
           2910      3.53613e+9 
           2930      3.45867e+9 
           2950      3.35028e+9 
           2970      3.30143e+9 
           2990      3.22416e+9 
           3010      3.14345e+9 
           3030      3.07727e+9 
           3050       3.0129e+9 
           3070      2.94991e+9 
           3090      2.86296e+9 
           3110      2.81894e+9 
           3130      2.75373e+9 
           3150      2.69525e+9 
           3170      2.63769e+9 
           3190         2.56e+9 
           3210      2.52385e+9 
           3230      2.47059e+9 
           3250      2.42123e+9 
           3270      2.37067e+9 
           3290      2.31897e+9 
           3310      2.27439e+9 
           3330      2.22551e+9 
           3350      2.17753e+9 
           3370      2.13544e+9 
           3390      2.09468e+9 
           3410      2.05246e+9 
           3430      2.00438e+9 
           3450      1.95728e+9 
           3470      1.92249e+9 
           3490      1.88434e+9 
           3510       1.8499e+9 
           3530      1.81591e+9 
           3550      1.78101e+9 
           3570      1.75718e+9 
           3590      1.70769e+9 
           3610      1.68414e+9 
           3630      1.64436e+9 
           3640      1.64279e+9 
           3650      1.60889e+9 
           3670      1.58636e+9 
           3690      1.55812e+9 
           3710      1.50672e+9 
           3730      1.46409e+9 
           3750      1.43842e+9 
           3770      1.39112e+9 
           3790      1.42508e+9 
           3810      1.46855e+9 
           3830        1.299e+9 
           3850      1.49474e+9 
           3870      1.51208e+9 
           3890      1.21528e+9 
           3910      1.48586e+9 
           3930      1.47371e+9 
           3950      1.43279e+9 
           3970      1.12573e+9 
           3990      1.37427e+9 
           4010       1.3777e+9 
           4030       1.2938e+9 
           4050      1.34621e+9 
           4070       1.2987e+9 
           4090       1.1816e+9 
           4110      1.04612e+9 
           4130       1.2236e+9 
           4150      1.21798e+9 
           4170      1.21163e+9 
           4190      1.19007e+9 
           4210      1.17337e+9 
           4230        1.153e+9 
           4250      1.12782e+9 
           4270      1.10247e+9 
           4290      1.08492e+9 
           4310      1.05588e+9 
           4330      9.47585e+8 
           4350      8.68215e+8 
           4370      1.00177e+9 
           4390      9.70574e+8 
           4410      9.80638e+8 
           4430      9.68003e+8 
           4450      9.52796e+8 
           4470      8.91722e+8 
           4490      9.20572e+8 
           4510      9.09684e+8 
           4530      8.95244e+8 
           4550      8.78456e+8 
           4570       8.6438e+8 
           4590      8.49676e+8 
           4610      8.36381e+8 
           4630        8.236e+8 
           4650      8.00275e+8 
           4670      7.96285e+8 
           4690      7.82726e+8 
           4710       7.5962e+8 
           4730      7.62387e+8 
           4750      7.49719e+8 
           4770      7.40018e+8 
           4790      7.28104e+8 
           4810      7.14001e+8 
           4830       6.9628e+8 
           4850       6.3664e+8 
           4870      5.72729e+8 
           4890      6.62882e+8 
           4910      6.59664e+8 
           4930      6.34359e+8 
           4950      6.42435e+8 
           4970       6.3514e+8 
           4990       6.2561e+8 
           5010      6.07147e+8 
           5030      6.06915e+8 
           5050      5.94716e+8 
           5070      5.89652e+8 
           5090      5.80796e+8 
           5110      5.72378e+8 
           5130      5.63944e+8 
           5150      5.55794e+8 
           5170      5.47767e+8 
           5190      5.40225e+8 
           5210      5.32421e+8 
           5230      5.25038e+8 
           5250      5.17587e+8 
           5270       5.1022e+8 
           5290      5.03112e+8 
           5310      4.96056e+8 
           5330      4.89144e+8 
           5350      4.82269e+8 
           5370      4.75679e+8 
           5390      4.68978e+8 
           5410       4.6217e+8 
           5430       4.5628e+8 
           5450      4.49957e+8 
           5470      4.43852e+8 
           5490        4.379e+8 
           5510      4.31997e+8 
           5530       4.2613e+8 
           5550       4.2046e+8 
           5570       4.1481e+8 
           5590      4.09268e+8 
           5610      4.03829e+8 
           5630      3.98505e+8 
           5650      3.93127e+8 
           5670      3.87757e+8 
           5690      3.82232e+8 
           5710       3.7771e+8 
           5730      3.72933e+8 
           5750      3.67654e+8 
           5770      3.63389e+8 
           5790      3.58681e+8 
           5810      3.54062e+8 
           5830      3.49431e+8 
           5850      3.45009e+8 
           5870      3.29345e+8 
           5890      3.34975e+8 
           5910      3.31892e+8 
           5930      3.27707e+8 
           5950       3.2356e+8 
           5970      3.19715e+8 
           5990      3.15599e+8 
           6010       3.1174e+8 
           6030      3.07821e+8 
           6050       3.0406e+8 
           6070      3.00331e+8 
           6090      2.96625e+8 
           6110      2.93001e+8 
           6130      2.89418e+8 
           6150      2.85775e+8 
           6170      2.82342e+8 
           6190      2.78977e+8 
           6210       2.7562e+8 
           6230        2.723e+8 
           6250      2.69008e+8 
           6270      2.65809e+8 
           6290      2.62636e+8 
           6310      2.59479e+8 
           6330      2.56431e+8 
           6350      2.53333e+8 
           6370      2.50398e+8 
           6390       2.4745e+8 
           6410      2.44542e+8 
           6430      2.41711e+8 
           6450      2.38892e+8 
           6470      2.35995e+8 
           6490      2.33273e+8 
           6510      2.30171e+8 
           6530      2.26289e+8 
           6550        2.146e+8 
           6570      1.91215e+8 
           6590      2.16687e+8 
           6610      2.16922e+8 
           6630      2.15161e+8 
           6650      2.12846e+8 
           6670      2.08032e+8 
           6690      2.05771e+8 
           6710       2.0581e+8 
           6730      2.03383e+8 
           6750      2.01261e+8 
           6770      1.99022e+8 
           6790      1.96658e+8 
           6810      1.94611e+8 
           6830      1.92423e+8 
           6850      1.90354e+8 
           6870      1.88257e+8 
           6890      1.86126e+8 
           6910      1.84049e+8 
           6930      1.82164e+8 
           6950      1.80189e+8 
           6970      1.78241e+8 
           6990      1.76313e+8 
           7010      1.74411e+8 
           7030      1.72529e+8 
           7050      1.70687e+8 
           7070      1.66218e+8 
           7090      1.67065e+8 
           7110       1.6527e+8 
           7130      1.63529e+8 
           7150      1.61804e+8 
           7170       1.6009e+8 
           7190       1.5842e+8 
           7210       1.5676e+8 
           7230      1.54633e+8 
           7250      1.53422e+8 
           7270      1.51902e+8 
           7290      1.49106e+8 
           7310       1.4875e+8 
           7330      1.47231e+8 
           7350      1.45713e+8 
           7370      1.44222e+8 
           7390      1.42739e+8 
           7410      1.41284e+8 
           7430      1.39842e+8 
           7450      1.38433e+8 
           7470       1.3689e+8 
           7490      1.35636e+8 
           7510       1.3424e+8 
           7530      1.32916e+8 
           7550      1.31592e+8 
           7570      1.30273e+8 
           7590      1.28972e+8 
           7610      1.27638e+8 
           7630       1.2642e+8 
           7650      1.25161e+8 
           7670      1.23927e+8 
           7690      1.22703e+8 
           7710      1.21497e+8 
           7730      1.20295e+8 
           7750      1.19123e+8 
           7770      1.17924e+8 
           7790      1.16817e+8 
           7810      1.15626e+8 
           7830      1.14557e+8 
           7850      1.13534e+8 
           7870      1.12392e+8 
           7890      1.11266e+8 
           7910      1.10289e+8 
           7930      1.09224e+8 
           7950      1.08168e+8 
           7970      1.07075e+8 
           7990      1.06091e+8 
           8010      1.05109e+8 
           8030      1.04049e+8 
           8050      1.03044e+8 
           8070      1.02095e+8 
           8090      1.00946e+8 
           8110      9.99501e+7 
           8130      9.92196e+7 
           8150      9.82398e+7 
           8170      9.73982e+7 
           8190      9.63052e+7 
           8210      9.52665e+7 
           8230      9.45315e+7 
           8250       9.3725e+7 
           8270       9.2446e+7 
           8290       9.1984e+7 
           8310      9.11927e+7 
           8330      9.03101e+7 
           8350      8.91539e+7 
           8370      8.85724e+7 
           8390      8.78938e+7 
           8410      8.70927e+7 
           8430      8.62771e+7 
           8450      8.49986e+7 
           8470      8.47447e+7 
           8490      8.38232e+7 
           8510      8.31904e+7 
           8530      8.22726e+7 
           8550       8.1512e+7 
           8570      8.11063e+7 
           8590       7.9131e+7 
