# Kurucz ODFNEW /NOVER (2003)
# teff = 29000 K (value for the effective temperature for the model. Temperatures are given in K)
# logg = 4 log(cm/s2) (value for Log(G) for the model.)
# meta = -1.5  (value for the Metallicity for the model.)
# lh = 1.25  (l/Hp where l is the  mixing length of the convective element and Hp is the pressure scale height)
# vtur = 2 km/s (Microturbulence velocity)
# alpha = 0  (Alpha)
#
# column 1: WAVELENGTH (ANGSTROM), Wavelength in Angstrom
# column 2: FLUX (ERG/CM2/S/A), Flux in erg/cm2/s/A
          147.2     9.26165e-10 
            151      3.26518e-9 
          155.2      1.22351e-8 
          158.8      3.59259e-8 
            162      8.99663e-8 
            166      2.69669e-7 
          170.3      8.28745e-7 
          173.4      1.79898e-6 
          176.8       4.0799e-6 
          180.2      8.97202e-6 
          181.7      1.25839e-5 
          186.1       3.2929e-5 
            191      9.12542e-5 
          193.9     0.000162837 
          198.4     0.000386917 
          201.8     0.000725257 
            205      0.00128541 
          210.5      0.00330348 
          216.2      0.00835225 
          219.8       0.0146397 
            223       0.0237459 
          226.8       0.0414329 
            230         12.7825 
            234         35.7575 
            240         68.2168 
          246.5         135.806 
          252.4         246.123 
          256.8         312.078 
            260         502.131 
            264         691.773 
          268.5         1031.02 
          273.5         1551.24 
          278.5         2267.65 
            284          3576.4 
            290         5457.87 
            296         8145.07 
            301         10637.7 
            308         15214.7 
            318         32645.9 
            328         55743.9 
            338           95940 
            348          156277 
            357          245152 
            366          371510 
            375          521782 
            385          779993 
            395      1.12329e+6 
            405      1.57065e+6 
            414      2.12048e+6 
            422      2.66759e+6 
            430      3.37304e+6 
            441      4.58841e+6 
            451      5.99745e+6 
            460       7.4372e+6 
            470      9.53233e+6 
            480      1.19312e+7 
            490      1.48031e+7 
            500      1.83377e+7 
            506      1.12925e+8 
            512      3.93064e+8 
            520      4.02142e+8 
            530      4.30778e+8 
            540      4.10591e+8 
            550      4.89512e+8 
            560      5.34917e+8 
            570       5.7902e+8 
            580      5.52675e+8 
            590       6.3346e+8 
            600      6.60312e+8 
            610      7.08142e+8 
            620      7.58467e+8 
            630      7.98023e+8 
            640      8.07457e+8 
            650      8.65096e+8 
            658      8.98222e+8 
            665      9.35296e+8 
            675      9.56903e+8 
            685      9.70195e+8 
            695      1.07936e+9 
            705      1.08526e+9 
            716      1.17342e+9 
            726      1.20307e+9 
            735      1.25106e+9 
            745      1.31422e+9 
            755      1.35722e+9 
            765       1.4081e+9 
            775      1.46339e+9 
            785      1.53137e+9 
            795      1.56807e+9 
            805       1.6136e+9 
            815      1.64729e+9 
            825      1.71802e+9 
            835      1.67318e+9 
            845      1.79151e+9 
            855      1.83468e+9 
            865      1.89451e+9 
            875      1.95705e+9 
            885      2.01538e+9 
            895      2.06503e+9 
            905      2.08975e+9 
            915      2.76752e+9 
            925     1.62615e+10 
            935     3.03732e+10 
            945     5.10152e+10 
            955     5.66937e+10 
            965     6.66379e+10 
            975     3.48178e+10 
            985     6.31904e+10 
            995     5.90461e+10 
           1005     6.11667e+10 
           1015      5.9353e+10 
           1025     3.74282e+10 
           1035     5.55797e+10 
           1045       6.081e+10 
           1055     5.90332e+10 
           1065     5.40204e+10 
           1075     5.51292e+10 
           1085     5.11384e+10 
           1095      5.3957e+10 
           1105     5.19512e+10 
           1115     5.09235e+10 
           1125     4.70575e+10 
           1135     4.91096e+10 
           1145     4.66549e+10 
           1155     4.66836e+10 
           1165     4.58718e+10 
           1175     3.80816e+10 
           1185     4.30084e+10 
           1195     4.17772e+10 
           1205      3.8845e+10 
           1215     2.49844e+10 
           1225     3.86137e+10 
           1235     3.95767e+10 
           1245     3.83529e+10 
           1255     3.81077e+10 
           1265     3.75594e+10 
           1275     3.70212e+10 
           1285       3.634e+10 
           1295     3.38602e+10 
           1305     3.39892e+10 
           1315     3.41692e+10 
           1325     3.30095e+10 
           1335     3.19567e+10 
           1345     3.18789e+10 
           1355     3.14594e+10 
           1365     3.05472e+10 
           1375     2.99989e+10 
           1385     2.94278e+10 
           1395     2.70522e+10 
           1405     2.69662e+10 
           1415     2.74801e+10 
           1425     2.65355e+10 
           1435     2.64889e+10 
           1442     2.63556e+10 
           1447     2.60154e+10 
           1455     2.54917e+10 
           1465      2.4964e+10 
           1475     2.44934e+10 
           1485      2.4127e+10 
           1495     2.35508e+10 
           1505     2.28946e+10 
           1512     2.25315e+10 
           1517     2.23783e+10 
           1525     2.19659e+10 
           1535     2.06686e+10 
           1545     2.01162e+10 
           1555      1.9581e+10 
           1565     1.97946e+10 
           1575     1.98265e+10 
           1585     1.96206e+10 
           1595     1.93042e+10 
           1605     1.84575e+10 
           1615     1.80289e+10 
           1625     1.79261e+10 
           1635     1.77526e+10 
           1645     1.70501e+10 
           1655     1.73591e+10 
           1665     1.70656e+10 
           1672     1.66737e+10 
           1677      1.7066e+10 
           1685        1.67e+10 
           1695     1.63305e+10 
           1705     1.59451e+10 
           1715     1.54984e+10 
           1725     1.52382e+10 
           1735     1.52458e+10 
           1745     1.49552e+10 
           1755     1.47241e+10 
           1765     1.43751e+10 
           1775      1.4161e+10 
           1785       1.403e+10 
           1795     1.38192e+10 
           1805      1.3678e+10 
           1815     1.33264e+10 
           1825     1.31435e+10 
           1835     1.29637e+10 
           1845     1.24152e+10 
           1855     1.21744e+10 
           1865     1.21297e+10 
           1875     1.20586e+10 
           1885     1.15323e+10 
           1895     1.11812e+10 
           1905     1.13402e+10 
           1915     1.09683e+10 
           1925      1.0689e+10 
           1935      1.0773e+10 
           1945     1.07491e+10 
           1955     1.02156e+10 
           1967     1.03318e+10 
           1976     1.03634e+10 
           1984     1.00359e+10 
           1995      9.72675e+9 
           2005      9.79865e+9 
           2015      9.73968e+9 
           2025      9.65475e+9 
           2035       9.3827e+9 
           2045      9.24072e+9 
           2055      8.47908e+9 
           2065      8.29547e+9 
           2074      8.43435e+9 
           2078      8.28998e+9 
           2085      8.41449e+9 
           2095      8.43546e+9 
           2105      8.48703e+9 
           2115      8.42524e+9 
           2125       8.3337e+9 
           2135       8.2054e+9 
           2145      8.05571e+9 
           2155      7.98704e+9 
           2165      7.84302e+9 
           2175      7.76414e+9 
           2185      7.62545e+9 
           2195      7.56481e+9 
           2205      7.45513e+9 
           2215      7.31425e+9 
           2225       7.2396e+9 
           2235      7.12933e+9 
           2245      7.04114e+9 
           2255      6.90171e+9 
           2265      6.84472e+9 
           2275      6.75076e+9 
           2285      6.65406e+9 
           2295      6.43012e+9 
           2305      6.43862e+9 
           2315       6.3758e+9 
           2325      6.28992e+9 
           2335      6.19774e+9 
           2345      6.12458e+9 
           2355      6.04123e+9 
           2365      5.96041e+9 
           2375      5.87573e+9 
           2385      5.76821e+9 
           2395      5.71416e+9 
           2405      5.64323e+9 
           2415      5.56604e+9 
           2425      5.49537e+9 
           2435      5.41684e+9 
           2445      5.34887e+9 
           2455      5.28082e+9 
           2465      5.21214e+9 
           2475      5.14255e+9 
           2485      5.07508e+9 
           2495      4.79295e+9 
           2505      4.93931e+9 
           2513      4.81527e+9 
           2518      4.84625e+9 
           2525      4.81841e+9 
           2535      4.75808e+9 
           2545      4.67772e+9 
           2555      4.62923e+9 
           2565        4.577e+9 
           2575      4.51993e+9 
           2585      4.46366e+9 
           2595      4.40778e+9 
           2605      4.37273e+9 
           2615      4.31704e+9 
           2625      4.26338e+9 
           2635      4.20645e+9 
           2645      4.15236e+9 
           2655      4.09789e+9 
           2665      4.03913e+9 
           2675      3.98751e+9 
           2685      3.95906e+9 
           2695      3.88295e+9 
           2705      3.85893e+9 
           2715      3.81369e+9 
           2725      3.74526e+9 
           2735      3.70871e+9 
           2745      3.67774e+9 
           2755      3.63505e+9 
           2765      3.56643e+9 
           2775      3.55046e+9 
           2785      3.50738e+9 
           2795       3.4449e+9 
           2805      3.41986e+9 
           2815      3.38614e+9 
           2825      3.31859e+9 
           2835      3.28576e+9 
           2845      3.26917e+9 
           2855      3.22976e+9 
           2865      3.19284e+9 
           2875      3.15636e+9 
           2885      3.12066e+9 
           2895      3.08458e+9 
           2910      3.03079e+9 
           2930      2.96336e+9 
           2950      2.87886e+9 
           2970      2.83202e+9 
           2990      2.76855e+9 
           3010      2.70564e+9 
           3030       2.6483e+9 
           3050      2.59132e+9 
           3070      2.53581e+9 
           3090      2.47515e+9 
           3110      2.42749e+9 
           3130      2.37638e+9 
           3150      2.32598e+9 
           3170      2.27659e+9 
           3190      2.21334e+9 
           3210      2.17915e+9 
           3230      2.13633e+9 
           3250      2.09253e+9 
           3270      2.05119e+9 
           3290      2.00691e+9 
           3310      1.96891e+9 
           3330      1.92875e+9 
           3350      1.88729e+9 
           3370      1.85238e+9 
           3390      1.81604e+9 
           3410      1.78025e+9 
           3430      1.73809e+9 
           3450      1.69863e+9 
           3470      1.66984e+9 
           3490      1.63724e+9 
           3510      1.60992e+9 
           3530      1.58161e+9 
           3550      1.55149e+9 
           3570      1.52934e+9 
           3590      1.49138e+9 
           3610      1.46672e+9 
           3630      1.43611e+9 
           3640       1.4315e+9 
           3650      1.40195e+9 
           3670      1.38145e+9 
           3690      1.35183e+9 
           3710       1.3076e+9 
           3730      1.25903e+9 
           3750      1.29488e+9 
           3770      1.28359e+9 
           3790      1.32418e+9 
           3810      1.36331e+9 
           3830      1.21667e+9 
           3850      1.37262e+9 
           3870      1.36664e+9 
           3890      1.15326e+9 
           3910       1.3351e+9 
           3930      1.30955e+9 
           3950      1.28838e+9 
           3970       1.0685e+9 
           3990      1.23908e+9 
           4010      1.22237e+9 
           4030      1.16643e+9 
           4050      1.19008e+9 
           4070      1.16185e+9 
           4090      1.09586e+9 
           4110      9.80245e+8 
           4130      1.09452e+9 
           4150      1.08098e+9 
           4170      1.06927e+9 
           4190       1.0522e+9 
           4210      1.03449e+9 
           4230      1.01774e+9 
           4250      9.99509e+8 
           4270       9.8025e+8 
           4290      9.65809e+8 
           4310        9.463e+8 
           4330      8.81378e+8 
           4350      8.12509e+8 
           4370       8.9903e+8 
           4390      8.71485e+8 
           4410       8.7309e+8 
           4430      8.58026e+8 
           4450      8.46469e+8 
           4470      8.06595e+8 
           4490      8.19177e+8 
           4510       8.0663e+8 
           4530      7.93759e+8 
           4550      7.79936e+8 
           4570      7.68218e+8 
           4590      7.55887e+8 
           4610      7.44273e+8 
           4630      7.32585e+8 
           4650      7.16905e+8 
           4670      7.09586e+8 
           4690      6.96148e+8 
           4710      6.80518e+8 
           4730      6.77924e+8 
           4750      6.67285e+8 
           4770      6.57777e+8 
           4790      6.47747e+8 
           4810      6.37747e+8 
           4830       6.2571e+8 
           4850      5.90883e+8 
           4870      5.36195e+8 
           4890      5.97184e+8 
           4910      5.91032e+8 
           4930      5.72048e+8 
           4950      5.73954e+8 
           4970      5.65958e+8 
           4990      5.57648e+8 
           5010      5.43659e+8 
           5030      5.41533e+8 
           5050       5.3121e+8 
           5070       5.2606e+8 
           5090      5.18474e+8 
           5110      5.11061e+8 
           5130      5.03692e+8 
           5150      4.96506e+8 
           5170      4.89543e+8 
           5190      4.82686e+8 
           5210      4.75893e+8 
           5230       4.6923e+8 
           5250      4.62682e+8 
           5270      4.56233e+8 
           5290      4.49922e+8 
           5310      4.43694e+8 
           5330      4.37625e+8 
           5350      4.31595e+8 
           5370      4.25721e+8 
           5390      4.19884e+8 
           5410      4.13824e+8 
           5430      4.08609e+8 
           5450      4.03079e+8 
           5470      3.97682e+8 
           5490       3.9234e+8 
           5510      3.87127e+8 
           5530      3.81966e+8 
           5550      3.76907e+8 
           5570      3.71922e+8 
           5590      3.67023e+8 
           5610      3.62208e+8 
           5630      3.57464e+8 
           5650      3.52802e+8 
           5670      3.48115e+8 
           5690      3.43356e+8 
           5710      3.39199e+8 
           5730      3.34861e+8 
           5750      3.30462e+8 
           5770      3.26376e+8 
           5790      3.22192e+8 
           5810      3.18103e+8 
           5830      3.14051e+8 
           5850      3.10102e+8 
           5870      2.98535e+8 
           5890      3.02006e+8 
           5910      2.98563e+8 
           5930      2.94806e+8 
           5950      2.91147e+8 
           5970      2.87603e+8 
           5990      2.84027e+8 
           6010      2.80544e+8 
           6030       2.7708e+8 
           6050      2.73717e+8 
           6070      2.70383e+8 
           6090      2.67096e+8 
           6110      2.63857e+8 
           6130      2.60665e+8 
           6150      2.57488e+8 
           6170      2.54406e+8 
           6190      2.51378e+8 
           6210      2.48375e+8 
           6230      2.45414e+8 
           6250      2.42505e+8 
           6270      2.39629e+8 
           6290      2.36803e+8 
           6310      2.34017e+8 
           6330      2.31271e+8 
           6350      2.28556e+8 
           6370      2.25897e+8 
           6390      2.23267e+8 
           6410      2.20675e+8 
           6430      2.18129e+8 
           6450       2.1561e+8 
           6470        2.131e+8 
           6490      2.10662e+8 
           6510      2.08276e+8 
           6530      2.05403e+8 
           6550      1.98654e+8 
           6570       1.7924e+8 
           6590       1.9769e+8 
           6610       1.9665e+8 
           6630      1.94523e+8 
           6650      1.92418e+8 
           6670      1.88708e+8 
           6690      1.86622e+8 
           6710      1.86072e+8 
           6730      1.83986e+8 
           6750      1.81979e+8 
           6770      1.79977e+8 
           6790      1.77946e+8 
           6810      1.76041e+8 
           6830      1.74107e+8 
           6850      1.72217e+8 
           6870      1.70346e+8 
           6890      1.68485e+8 
           6910      1.66659e+8 
           6930      1.64883e+8 
           6950      1.63108e+8 
           6970      1.61359e+8 
           6990      1.59628e+8 
           7010      1.57929e+8 
           7030      1.56246e+8 
           7050      1.54595e+8 
           7070      1.50783e+8 
           7090      1.51342e+8 
           7110      1.49747e+8 
           7130      1.48174e+8 
           7150      1.46624e+8 
           7170      1.45067e+8 
           7190      1.43583e+8 
           7210      1.42092e+8 
           7230      1.40399e+8 
           7250      1.39145e+8 
           7270      1.37732e+8 
           7290      1.35304e+8 
           7310      1.34896e+8 
           7330      1.33537e+8 
           7350       1.3217e+8 
           7370      1.30829e+8 
           7390      1.29501e+8 
           7410      1.28186e+8 
           7430      1.26896e+8 
           7450      1.25625e+8 
           7470      1.24346e+8 
           7490      1.23118e+8 
           7510      1.21849e+8 
           7530      1.20671e+8 
           7550      1.19471e+8 
           7570      1.18282e+8 
           7590       1.1711e+8 
           7610      1.15949e+8 
           7630      1.14811e+8 
           7650      1.13683e+8 
           7670      1.12573e+8 
           7690      1.11465e+8 
           7710      1.10381e+8 
           7730      1.09306e+8 
           7750      1.08241e+8 
           7770      1.07191e+8 
           7790      1.06164e+8 
           7810      1.05083e+8 
           7830      1.04129e+8 
           7850      1.03214e+8 
           7870      1.02216e+8 
           7890      1.01196e+8 
           7910      1.00288e+8 
           7930      9.93331e+7 
           7950      9.83809e+7 
           7970      9.73303e+7 
           7990      9.64364e+7 
           8010       9.5474e+7 
           8030      9.45725e+7 
           8050      9.37253e+7 
           8070      9.28795e+7 
           8090      9.18682e+7 
           8110       9.1072e+7 
           8130      9.03281e+7 
           8150      8.93692e+7 
           8170      8.86895e+7 
           8190      8.77514e+7 
           8210      8.66928e+7 
           8230       8.6094e+7 
           8250       8.5356e+7 
           8270      8.42001e+7 
           8290       8.3734e+7 
           8310      8.30041e+7 
           8330      8.22205e+7 
           8350      8.11247e+7 
           8370      8.06191e+7 
           8390      7.99891e+7 
           8410      7.92628e+7 
           8430       7.8479e+7 
           8450      7.73271e+7 
           8470      7.69781e+7 
           8490        7.625e+7 
           8510      7.54082e+7 
           8530      7.49618e+7 
           8550      7.34159e+7 
           8570      7.43663e+7 
           8590      7.16565e+7 
