# Kurucz ODFNEW /NOVER (2003)
# teff = 8000 K (value for the effective temperature for the model. Temperatures are given in K)
# logg = 2 log(cm/s2) (value for Log(G) for the model.)
# meta = 0.5  (value for the Metallicity for the model.)
# lh = 1.25  (l/Hp where l is the  mixing length of the convective element and Hp is the pressure scale height)
# vtur = 2 km/s (Microturbulence velocity)
# alpha = 0.4  (Alpha)
#
# column 1: WAVELENGTH (ANGSTROM), Wavelength in Angstrom
# column 2: FLUX (ERG/CM2/S/A), Flux in erg/cm2/s/A
            366     1.51028e-23 
            375     1.38848e-22 
            385     1.10293e-21 
            395       7.742e-21 
            405     4.91442e-20 
            414     2.39605e-19 
            422     9.23842e-19 
            430      3.3816e-18 
            441     1.85938e-17 
            451     8.12557e-17 
            460     2.89455e-16 
            470     6.36415e-17 
            480     2.15328e-16 
            490     6.90916e-16 
            500     2.10682e-15 
            506     6.54284e-14 
            512     1.77066e-13 
            520     4.23068e-13 
            530     1.22894e-12 
            540      3.3168e-12 
            550     4.26047e-13 
            560     1.01369e-12 
            570     2.32972e-12 
            580     5.12359e-12 
            590     1.12056e-11 
            600     2.35309e-11 
            610     4.83198e-11 
            620     9.63257e-11 
            630     1.87567e-10 
            640     3.56329e-10 
            650     6.64907e-10 
            658      1.07721e-9 
            665      1.61392e-9 
            675      2.86533e-9 
            685      4.99678e-9 
            695        8.545e-9 
            705      1.41437e-8 
            716      2.48889e-8 
            726      4.04329e-8 
            735      6.17453e-8 
            745      9.71918e-8 
            755      1.51386e-7 
            765       2.3307e-7 
            775      3.54196e-7 
            785      5.34314e-7 
            795      7.79716e-7 
            805      1.14427e-6 
            815      1.68336e-6 
            825       2.4238e-6 
            835      3.44431e-6 
            845      4.86439e-6 
            855      6.79584e-6 
            865      9.40986e-6 
            875       1.2758e-5 
            885      1.75694e-5 
            895      2.37327e-5 
            905      3.14152e-5 
            915       0.0131815 
            925       0.0394137 
            935       0.0516297 
            945       0.0692142 
            955       0.0985335 
            965        0.131322 
            975        0.166857 
            985        0.213179 
            995        0.263852 
           1005        0.361498 
           1015        0.464373 
           1025        0.566228 
           1035        0.728226 
           1045        0.922414 
           1055         1.15507 
           1065         1.40262 
           1075          1.7656 
           1085         2.18336 
           1095         2.61056 
           1105         8.96203 
           1115         30.5268 
           1125         45.0721 
           1135         62.4039 
           1145         78.7094 
           1155         86.9963 
           1165         119.759 
           1175         142.421 
           1185         145.256 
           1195         57.8196 
           1205         92.3594 
           1215         19.9409 
           1225         112.643 
           1235         251.766 
           1245         622.784 
           1255         1424.18 
           1265         1019.38 
           1275         2274.04 
           1285         3309.11 
           1295         3873.72 
           1305         2004.89 
           1315         4711.66 
           1325         5853.86 
           1335         6070.67 
           1345         7963.27 
           1355         8086.65 
           1365         8483.37 
           1375         9246.75 
           1385         10449.2 
           1395         12105.1 
           1405         13489.9 
           1415         13564.5 
           1425         15543.4 
           1435         15426.8 
           1442         17829.6 
           1447         19444.5 
           1455           21849 
           1465         21953.7 
           1475         23804.2 
           1485         26573.4 
           1495         30304.9 
           1505         33213.4 
           1512           33452 
           1517           36298 
           1525         40181.8 
           1535         76982.3 
           1545          253481 
           1555          226207 
           1565          204529 
           1575          389103 
           1585          524390 
           1595          756872 
           1605          626892 
           1615          531680 
           1625          425133 
           1635          471457 
           1645          688047 
           1655          380357 
           1665          573881 
           1672          188083 
           1677          969282 
           1685      2.29005e+6 
           1695       3.2379e+6 
           1705      3.70311e+6 
           1715      6.13903e+6 
           1725      6.72868e+6 
           1735      9.14908e+6 
           1745      7.59725e+6 
           1755      1.07941e+7 
           1765      7.29303e+6 
           1775      1.06571e+7 
           1785      8.29704e+6 
           1795      1.36438e+7 
           1805      1.00146e+7 
           1815      1.18283e+7 
           1825      9.39905e+6 
           1835      8.10535e+6 
           1845       7.7986e+6 
           1855      9.83529e+6 
           1865      1.13206e+7 
           1875      1.02752e+7 
           1885       1.0788e+7 
           1895      1.23687e+7 
           1905      1.03569e+7 
           1915      1.12806e+7 
           1925      1.12146e+7 
           1935      7.29427e+6 
           1945       1.2701e+7 
           1955      1.30603e+7 
           1967      1.50114e+7 
           1976      1.43925e+7 
           1984      1.36087e+7 
           1995      1.34685e+7 
           2005      1.24423e+7 
           2015      1.06815e+7 
           2025       1.0533e+7 
           2035      1.27513e+7 
           2045       1.4588e+7 
           2055      1.16747e+7 
           2065      1.15822e+7 
           2074      1.53723e+7 
           2078      1.67946e+7 
           2085      1.57998e+7 
           2095       1.4367e+7 
           2105      1.31196e+7 
           2115      1.31903e+7 
           2125      1.34961e+7 
           2135      9.71035e+6 
           2145       1.2711e+7 
           2155       1.3424e+7 
           2165      1.11768e+7 
           2175      1.16619e+7 
           2185      1.22356e+7 
           2195      1.38618e+7 
           2205      1.26601e+7 
           2215      9.81556e+6 
           2225      9.29225e+6 
           2235      1.28203e+7 
           2245      1.14042e+7 
           2255      8.96738e+6 
           2265      9.13657e+6 
           2275      1.10006e+7 
           2285      1.16564e+7 
           2295      1.03334e+7 
           2305      1.09501e+7 
           2315      9.89058e+6 
           2325      9.19448e+6 
           2335      5.78869e+6 
           2345       4.2813e+6 
           2355      7.78657e+6 
           2365      4.20212e+6 
           2375      6.01278e+6 
           2385      3.21605e+6 
           2395      4.49111e+6 
           2405      4.23076e+6 
           2415      5.78314e+6 
           2425      9.73242e+6 
           2435      9.12211e+6 
           2445      1.01001e+7 
           2455      1.00748e+7 
           2465      9.39619e+6 
           2475      8.83456e+6 
           2485      9.25592e+6 
           2495      8.75038e+6 
           2505      1.18998e+7 
           2513      8.36776e+6 
           2518      9.16226e+6 
           2525       6.8886e+6 
           2535      6.72004e+6 
           2545      7.09135e+6 
           2555      9.41474e+6 
           2565       7.5664e+6 
           2575      9.12758e+6 
           2585      8.33716e+6 
           2595      7.22743e+6 
           2605      6.18331e+6 
           2615      5.75874e+6 
           2625       7.8357e+6 
           2635      1.00037e+7 
           2645       1.5081e+7 
           2655      1.56463e+7 
           2665      1.16649e+7 
           2675      1.33889e+7 
           2685      1.27673e+7 
           2695      1.21629e+7 
           2705      1.31384e+7 
           2715      1.09934e+7 
           2725      1.10919e+7 
           2735      1.20142e+7 
           2745      6.34763e+6 
           2755      7.50478e+6 
           2765       8.6219e+6 
           2775      1.00456e+7 
           2785      6.37595e+6 
           2795      2.14487e+6 
           2805      2.79094e+6 
           2815       8.3925e+6 
           2825      1.26303e+7 
           2835      1.28657e+7 
           2845        1.268e+7 
           2855      1.08817e+7 
           2865      1.41325e+7 
           2875      1.35817e+7 
           2885      1.41128e+7 
           2895       1.3174e+7 
           2910      1.64237e+7 
           2930      1.50356e+7 
           2950      1.51319e+7 
           2970      1.67568e+7 
           2990      1.68894e+7 
           3010      1.79069e+7 
           3030      1.75962e+7 
           3050      1.73164e+7 
           3070      1.71946e+7 
           3090       1.8317e+7 
           3110      1.74477e+7 
           3130      1.73416e+7 
           3150      1.82683e+7 
           3170      1.78473e+7 
           3190      1.63507e+7 
           3210      1.76382e+7 
           3230      1.62512e+7 
           3250      1.76703e+7 
           3270      1.83198e+7 
           3290       1.8498e+7 
           3310      1.91379e+7 
           3330      1.83681e+7 
           3350      1.79894e+7 
           3370      1.76113e+7 
           3390       1.8242e+7 
           3410      1.89711e+7 
           3430      1.93147e+7 
           3450      1.91101e+7 
           3470      1.87328e+7 
           3490      1.84203e+7 
           3510      1.92852e+7 
           3530      1.94234e+7 
           3550      2.02811e+7 
           3570      1.89504e+7 
           3590      1.90409e+7 
           3610      1.92069e+7 
           3630      1.94685e+7 
           3640      1.89468e+7 
           3650      2.00975e+7 
           3670      1.97235e+7 
           3690      1.99898e+7 
           3710      2.47653e+7 
           3730      3.02296e+7 
           3750      4.55478e+7 
           3770      4.93942e+7 
           3790      6.34776e+7 
           3810      7.19819e+7 
           3830      5.56328e+7 
           3850      7.45148e+7 
           3870      8.15569e+7 
           3890      5.15448e+7 
           3910      7.52296e+7 
           3930      4.28686e+7 
           3950       6.7798e+7 
           3970      3.66597e+7 
           3990      7.56507e+7 
           4010      7.94875e+7 
           4030       7.7434e+7 
           4050      7.69582e+7 
           4070      7.53395e+7 
           4090      6.95666e+7 
           4110      5.36433e+7 
           4130      7.28815e+7 
           4150      7.53371e+7 
           4170      7.24735e+7 
           4190      7.21653e+7 
           4210      7.15195e+7 
           4230      6.97394e+7 
           4250        6.975e+7 
           4270      6.67219e+7 
           4290      6.79804e+7 
           4310      6.31225e+7 
           4330      5.60667e+7 
           4350      4.78057e+7 
           4370      6.52361e+7 
           4390      6.35131e+7 
           4410       6.1871e+7 
           4430      6.11927e+7 
           4450      6.21011e+7 
           4470      6.20576e+7 
           4490      6.12818e+7 
           4510      6.26157e+7 
           4530      5.93837e+7 
           4550      5.83369e+7 
           4570      6.07063e+7 
           4590      5.75534e+7 
           4610      5.99747e+7 
           4630       5.7398e+7 
           4650      5.82975e+7 
           4670       5.7756e+7 
           4690      5.56648e+7 
           4710      5.35458e+7 
           4730      5.57275e+7 
           4750      5.57468e+7 
           4770       5.4358e+7 
           4790      5.40216e+7 
           4810      5.29106e+7 
           4830      5.23457e+7 
           4850      4.38494e+7 
           4870      3.46979e+7 
           4890      4.97772e+7 
           4910      5.00679e+7 
           4930      4.86952e+7 
           4950      4.95664e+7 
           4970      4.98393e+7 
           4990      4.71772e+7 
           5010      4.45334e+7 
           5030      4.57985e+7 
           5050      4.53287e+7 
           5070      4.60973e+7 
           5090      4.55235e+7 
           5110       4.5302e+7 
           5130      4.38987e+7 
           5150       4.2719e+7 
           5170      4.19733e+7 
           5190       4.1435e+7 
           5210      4.14021e+7 
           5230      4.09028e+7 
           5250      4.14925e+7 
           5270      3.83079e+7 
           5290      4.06251e+7 
           5310       3.9355e+7 
           5330      3.80006e+7 
           5350      3.96176e+7 
           5370      3.92486e+7 
           5390      3.83562e+7 
           5410      3.74167e+7 
           5430      3.73754e+7 
           5450      3.79792e+7 
           5470       3.7386e+7 
           5490      3.69141e+7 
           5510      3.64555e+7 
           5530      3.63192e+7 
           5550      3.62854e+7 
           5570      3.56792e+7 
           5590      3.52809e+7 
           5610       3.5268e+7 
           5630      3.51486e+7 
           5650      3.43857e+7 
           5670       3.3724e+7 
           5690      3.39144e+7 
           5710      3.36033e+7 
           5730      3.38395e+7 
           5750      3.30417e+7 
           5770       3.2968e+7 
           5790       3.2453e+7 
           5810      3.22656e+7 
           5830      3.19981e+7 
           5850       3.1696e+7 
           5870      3.14257e+7 
           5890      3.05644e+7 
           5910      3.07645e+7 
           5930      3.04748e+7 
           5950      3.00021e+7 
           5970      2.99272e+7 
           5990      2.93539e+7 
           6010       2.8944e+7 
           6030      2.89679e+7 
           6050      2.84988e+7 
           6070      2.85792e+7 
           6090      2.81652e+7 
           6110       2.7744e+7 
           6130      2.72124e+7 
           6150      2.63066e+7 
           6170      2.65628e+7 
           6190      2.69647e+7 
           6210      2.66848e+7 
           6230      2.61983e+7 
           6250      2.51542e+7 
           6270      2.60797e+7 
           6290       2.5856e+7 
           6310      2.51862e+7 
           6330      2.51617e+7 
           6350      2.45158e+7 
           6370       2.4467e+7 
           6390      2.45272e+7 
           6410      2.40223e+7 
           6430      2.40517e+7 
           6450       2.3182e+7 
           6470      2.36265e+7 
           6490      2.29543e+7 
           6510      2.29886e+7 
           6530      2.27429e+7 
           6550      2.04669e+7 
           6570      1.60659e+7 
           6590      2.17893e+7 
           6610      2.20672e+7 
           6630       2.2098e+7 
           6650      2.19431e+7 
           6670      2.16737e+7 
           6690      2.15426e+7 
           6710      2.13776e+7 
           6730      2.10844e+7 
           6750      2.07678e+7 
           6770      2.09173e+7 
           6790      2.06382e+7 
           6810      2.05301e+7 
           6830      2.02284e+7 
           6850      2.00992e+7 
           6870      2.00238e+7 
           6890      1.98562e+7 
           6910      1.96672e+7 
           6930       1.9459e+7 
           6950      1.93448e+7 
           6970      1.91292e+7 
           6990        1.903e+7 
           7010      1.84546e+7 
           7030      1.86501e+7 
           7050      1.85202e+7 
           7070      1.83975e+7 
           7090      1.82699e+7 
           7110      1.76388e+7 
           7130      1.77868e+7 
           7150      1.76285e+7 
           7170      1.75017e+7 
           7190       1.7336e+7 
           7210      1.72399e+7 
           7230      1.70524e+7 
           7250      1.68058e+7 
           7270      1.68924e+7 
           7290      1.66148e+7 
           7310       1.6512e+7 
           7330      1.64199e+7 
           7350      1.63349e+7 
           7370      1.62921e+7 
           7390      1.60571e+7 
           7410      1.57977e+7 
           7430       1.5538e+7 
           7450      1.55246e+7 
           7470      1.53302e+7 
           7490      1.53297e+7 
           7510      1.52548e+7 
           7530      1.52051e+7 
           7550      1.51829e+7 
           7570       1.4941e+7 
           7590      1.49219e+7 
           7610      1.48071e+7 
           7630       1.4705e+7 
           7650      1.44872e+7 
           7670      1.43061e+7 
           7690       1.4221e+7 
           7710      1.41486e+7 
           7730       1.4107e+7 
           7750      1.39747e+7 
           7770      1.34666e+7 
           7790      1.38421e+7 
           7810      1.36848e+7 
           7830      1.35124e+7 
           7850      1.33018e+7 
           7870      1.32653e+7 
           7890      1.30867e+7 
           7910      1.30158e+7 
           7930      1.28892e+7 
           7950      1.26813e+7 
           7970      1.29019e+7 
           7990      1.24856e+7 
           8010      1.26735e+7 
           8030      1.25222e+7 
           8050      1.24781e+7 
           8070      1.23654e+7 
           8090      1.22877e+7 
           8110      1.22197e+7 
           8130      1.21727e+7 
           8150       1.2083e+7 
           8170      1.19946e+7 
           8190      1.16564e+7 
           8210      1.15292e+7 
           8230       1.1436e+7 
           8250      1.14791e+7 
           8270       1.1622e+7 
           8290      1.14996e+7 
           8310      1.13636e+7 
           8330      1.11571e+7 
           8350      1.11994e+7 
           8370        1.104e+7 
           8390      1.09221e+7 
           8410      1.08148e+7 
           8430      1.08855e+7 
           8450      1.05765e+7 
           8470      1.02982e+7 
           8490      1.10322e+7 
           8510      9.71057e+6 
           8530      1.11619e+7 
           8550      8.58563e+6 
           8570      1.16089e+7 
           8590       1.0665e+7 
           8610      1.02948e+7 
           8630      1.18613e+7 
           8650      1.13911e+7 
           8670      8.41126e+6 
           8690      1.13534e+7 
           8710      1.20581e+7 
           8730      1.16218e+7 
           8750      8.99132e+6 
           8770      1.12662e+7 
           8790      1.18752e+7 
           8810      1.17864e+7 
           8830      1.13334e+7 
           8850       1.0543e+7 
           8870      8.72526e+6 
           8890      1.11123e+7 
           8910      1.13221e+7 
           8930      1.12039e+7 
           8950      1.13161e+7 
           8970      1.11351e+7 
           8990      1.08334e+7 
           9010      8.65019e+6 
           9030       9.6302e+6 
           9050      1.07454e+7 
           9070      1.04618e+7 
           9090       1.0316e+7 
           9110      1.05095e+7 
           9130      1.05593e+7 
           9150      1.05811e+7 
           9170      1.04297e+7 
           9190      1.01993e+7 
           9210      9.69225e+6 
           9230      7.48215e+6 
           9250      9.24757e+6 
           9270       9.5593e+6 
           9290      1.00132e+7 
           9310      9.98282e+6 
           9330      9.83577e+6 
           9350      9.85665e+6 
           9370      9.82621e+6 
           9390      9.61007e+6 
           9410      9.18976e+6 
           9430      9.39738e+6 
           9450      9.40489e+6 
