# Kurucz ODFNEW /NOVER (2003)
# teff = 8250 K (value for the effective temperature for the model. Temperatures are given in K)
# logg = 5 log(cm/s2) (value for Log(G) for the model.)
# meta = 0  (value for the Metallicity for the model.)
# lh = 1.25  (l/Hp where l is the  mixing length of the convective element and Hp is the pressure scale height)
# vtur = 2 km/s (Microturbulence velocity)
# alpha = 0  (Alpha)
#
# column 1: WAVELENGTH (ANGSTROM), Wavelength in Angstrom
# column 2: FLUX (ERG/CM2/S/A), Flux in erg/cm2/s/A
            318     6.22145e-23 
            328     7.86627e-22 
            338     7.94191e-21 
            348      6.9716e-20 
            357     4.42177e-19 
            366     2.55293e-18 
            375       1.351e-17 
            385     6.22566e-18 
            395     2.99452e-17 
            405     1.32614e-16 
            414     4.74088e-16 
            422     1.40039e-15 
            430     3.96147e-15 
            441     1.54939e-14 
            451     5.02841e-14 
            460     1.38396e-13 
            470     4.05943e-13 
            480     1.13398e-12 
            490     3.02827e-12 
            500     7.74194e-12 
            506     1.76258e-11 
            512     3.38022e-11 
            520     6.69252e-11 
            530     1.53401e-10 
            540     3.33915e-10 
            550      7.1525e-10 
            560      1.47676e-9 
            570      2.96363e-9 
            580      5.72082e-9 
            590      1.10281e-8 
            600      2.05066e-8 
            610      3.73145e-8 
            620      6.63824e-8 
            630      1.15714e-7 
            640      1.97857e-7 
            650      3.32262e-7 
            658      4.96506e-7 
            665       6.9852e-7 
            675      1.12401e-6 
            685      1.78046e-6 
            695       2.7779e-6 
            705      4.25531e-6 
            716      6.74563e-6 
            726       1.0083e-5 
            735       1.4323e-5 
            745      2.09079e-5 
            755      3.01853e-5 
            765      4.31064e-5 
            775      6.09008e-5 
            785      8.52345e-5 
            795     0.000116936 
            805     0.000161272 
            815     0.000219932 
            825     0.000296463 
            835     0.000396276 
            845     0.000525477 
            855     0.000691386 
            865     0.000902771 
            875      0.00116691 
            885      0.00150639 
            895      0.00192643 
            905       0.0024385 
            915        0.793079 
            925         2.84375 
            935         3.76499 
            945         4.95683 
            955         6.68057 
            965         8.49722 
            975         10.0695 
            985         12.8998 
            995         15.4733 
           1005         19.9218 
           1015         24.3321 
           1025          27.487 
           1035         35.6112 
           1045         43.2918 
           1055         52.1655 
           1065         61.6498 
           1075         74.7672 
           1085         89.7385 
           1095         104.957 
           1105         261.496 
           1115         750.413 
           1125          1038.4 
           1135         1428.22 
           1145         1746.23 
           1155         1888.47 
           1165          2472.4 
           1175         2876.58 
           1185          2988.4 
           1195          1921.1 
           1205         1848.85 
           1215          503.99 
           1225         2077.95 
           1235         4332.37 
           1245         7743.24 
           1255         14371.2 
           1265         14570.6 
           1275         20029.2 
           1285           27344 
           1295         32148.4 
           1305           30295 
           1315           39570 
           1325         45245.1 
           1335         49613.4 
           1345         58372.5 
           1355         59867.6 
           1365         66100.6 
           1375         71279.9 
           1385         75007.1 
           1395         84368.1 
           1405         92394.9 
           1415         97462.6 
           1425          106585 
           1435          107928 
           1442          123654 
           1447          128418 
           1455          141120 
           1465          142886 
           1475          155090 
           1485          168371 
           1495          185463 
           1505          201885 
           1512          205194 
           1517          218037 
           1525          231096 
           1535          312403 
           1545          441607 
           1555          454922 
           1565          412749 
           1575          568262 
           1585          668095 
           1595          732483 
           1605          774730 
           1615          932484 
           1625      1.07738e+6 
           1635      1.85544e+6 
           1645      4.33652e+6 
           1655      2.44782e+6 
           1665      5.83272e+6 
           1672      3.54806e+6 
           1677       8.2911e+6 
           1685      1.18017e+7 
           1695      7.09735e+6 
           1705      9.78335e+6 
           1715      1.49848e+7 
           1725      1.60383e+7 
           1735      2.09313e+7 
           1745        1.993e+7 
           1755      2.51171e+7 
           1765      1.56679e+7 
           1775      2.27762e+7 
           1785      2.42315e+7 
           1795      3.01779e+7 
           1805      2.44676e+7 
           1815      2.54018e+7 
           1825      2.27624e+7 
           1835      2.22655e+7 
           1845      1.80804e+7 
           1855      2.21109e+7 
           1865      2.66759e+7 
           1875      2.57781e+7 
           1885      2.67172e+7 
           1895      2.82519e+7 
           1905      2.58404e+7 
           1915      2.90794e+7 
           1925      2.78875e+7 
           1935      1.98516e+7 
           1945      3.06341e+7 
           1955      3.13022e+7 
           1967      3.46176e+7 
           1976      3.34829e+7 
           1984      3.13969e+7 
           1995      3.13128e+7 
           2005      2.83173e+7 
           2015      2.89073e+7 
           2025       2.5916e+7 
           2035      3.07244e+7 
           2045      3.35199e+7 
           2055      3.20651e+7 
           2065      3.09222e+7 
           2074      3.57683e+7 
           2078      3.81669e+7 
           2085      3.65661e+7 
           2095      3.40153e+7 
           2105       3.1399e+7 
           2115      3.26525e+7 
           2125      3.36966e+7 
           2135      2.72425e+7 
           2145      3.28779e+7 
           2155      3.24721e+7 
           2165      2.96306e+7 
           2175      2.93563e+7 
           2185       3.2112e+7 
           2195      3.47507e+7 
           2205      3.27099e+7 
           2215      2.86228e+7 
           2225      2.89132e+7 
           2235      3.44162e+7 
           2245      3.06674e+7 
           2255      2.82157e+7 
           2265      2.76476e+7 
           2275      3.00852e+7 
           2285      3.25022e+7 
           2295      2.88443e+7 
           2305      3.04403e+7 
           2315      2.95958e+7 
           2325      2.89215e+7 
           2335      2.55132e+7 
           2345      2.06717e+7 
           2355      2.89896e+7 
           2365      2.19724e+7 
           2375      2.55226e+7 
           2385      1.90589e+7 
           2395      2.21439e+7 
           2405      2.16931e+7 
           2415      2.19175e+7 
           2425      2.70307e+7 
           2435      2.56337e+7 
           2445      2.83674e+7 
           2455      2.81086e+7 
           2465       2.8351e+7 
           2475      2.56777e+7 
           2485      2.56935e+7 
           2495      2.41705e+7 
           2505       3.0445e+7 
           2513      2.45252e+7 
           2518      2.42931e+7 
           2525      2.20142e+7 
           2535      2.08618e+7 
           2545      1.91127e+7 
           2555      2.17155e+7 
           2565      2.22268e+7 
           2575      2.67953e+7 
           2585      2.74216e+7 
           2595      2.68677e+7 
           2605      2.49892e+7 
           2615      2.34415e+7 
           2625      2.85512e+7 
           2635      2.93544e+7 
           2645      3.50434e+7 
           2655       3.6373e+7 
           2665      3.00859e+7 
           2675      3.30687e+7 
           2685      3.34975e+7 
           2695      2.99157e+7 
           2705      3.19233e+7 
           2715      2.86502e+7 
           2725      2.93373e+7 
           2735      3.21953e+7 
           2745      2.41426e+7 
           2755      2.61163e+7 
           2765      2.81359e+7 
           2775      3.14025e+7 
           2785      2.76229e+7 
           2795      1.37888e+7 
           2805      1.76715e+7 
           2815       3.2883e+7 
           2825      3.53508e+7 
           2835      3.35438e+7 
           2845      3.15388e+7 
           2855      2.77608e+7 
           2865       3.3326e+7 
           2875      3.28124e+7 
           2885        3.287e+7 
           2895      3.13978e+7 
           2910      3.65776e+7 
           2930      3.43462e+7 
           2950      3.40985e+7 
           2970      3.55426e+7 
           2990      3.54863e+7 
           3010      3.60413e+7 
           3030      3.57095e+7 
           3050      3.57003e+7 
           3070      3.61148e+7 
           3090      3.63819e+7 
           3110      3.53916e+7 
           3130       3.5235e+7 
           3150       3.6095e+7 
           3170      3.58562e+7 
           3190      3.34725e+7 
           3210      3.45126e+7 
           3230      3.26652e+7 
           3250      3.41601e+7 
           3270      3.51814e+7 
           3290      3.52154e+7 
           3310      3.57539e+7 
           3330      3.49112e+7 
           3350       3.4405e+7 
           3370      3.38618e+7 
           3390      3.39552e+7 
           3410      3.39047e+7 
           3430       3.3994e+7 
           3450      3.37909e+7 
           3470      3.34119e+7 
           3490      3.34754e+7 
           3510       3.3939e+7 
           3530      3.34497e+7 
           3550      3.43443e+7 
           3570      3.26807e+7 
           3590      3.23263e+7 
           3610      3.24085e+7 
           3630      3.25956e+7 
           3640      3.21921e+7 
           3650      3.37013e+7 
           3670      3.34133e+7 
           3690        3.246e+7 
           3710      3.19304e+7 
           3730      3.00075e+7 
           3750      3.36639e+7 
           3770      3.51207e+7 
           3790      4.15831e+7 
           3810      4.76696e+7 
           3830      3.81226e+7 
           3850      5.25731e+7 
           3870      5.87095e+7 
           3890      3.56711e+7 
           3910      5.88106e+7 
           3930      5.27717e+7 
           3950      5.85503e+7 
           3970      3.34663e+7 
           3990      5.82767e+7 
           4010      6.71104e+7 
           4030      6.78934e+7 
           4050       6.6795e+7 
           4070      6.27469e+7 
           4090      4.93993e+7 
           4110      3.85603e+7 
           4130        6.008e+7 
           4150      6.47631e+7 
           4170      6.55148e+7 
           4190      6.47664e+7 
           4210      6.48518e+7 
           4230      6.28356e+7 
           4250      6.33364e+7 
           4270      6.09469e+7 
           4290      6.06891e+7 
           4310      5.49394e+7 
           4330      4.25699e+7 
           4350      3.66466e+7 
           4370      5.54533e+7 
           4390      5.82547e+7 
           4410      5.81557e+7 
           4430      5.73764e+7 
           4450      5.83648e+7 
           4470      5.81736e+7 
           4490      5.74472e+7 
           4510      5.86743e+7 
           4530      5.67401e+7 
           4550      5.60131e+7 
           4570      5.71618e+7 
           4590       5.5481e+7 
           4610      5.59915e+7 
           4630      5.46758e+7 
           4650      5.47919e+7 
           4670      5.46726e+7 
           4690      5.25699e+7 
           4710      5.04007e+7 
           4730       5.2769e+7 
           4750      5.24073e+7 
           4770       5.1583e+7 
           4790      5.06934e+7 
           4810      4.91769e+7 
           4830      4.60074e+7 
           4850      3.55196e+7 
           4870      2.88827e+7 
           4890      4.29207e+7 
           4910      4.62284e+7 
           4930      4.62803e+7 
           4950      4.71156e+7 
           4970      4.74067e+7 
           4990      4.59911e+7 
           5010      4.47751e+7 
           5030      4.56973e+7 
           5050      4.48633e+7 
           5070      4.53587e+7 
           5090      4.47295e+7 
           5110       4.4647e+7 
           5130      4.38386e+7 
           5150      4.29505e+7 
           5170      4.18422e+7 
           5190      4.14868e+7 
           5210      4.17768e+7 
           5230      4.13463e+7 
           5250      4.18834e+7 
           5270      3.95396e+7 
           5290      4.09132e+7 
           5310      4.04826e+7 
           5330      3.89342e+7 
           5350      3.98269e+7 
           5370      3.92996e+7 
           5390      3.89799e+7 
           5410      3.80693e+7 
           5430      3.83285e+7 
           5450       3.8219e+7 
           5470      3.78078e+7 
           5490      3.75528e+7 
           5510      3.73825e+7 
           5530      3.68637e+7 
           5550      3.68248e+7 
           5570      3.62086e+7 
           5590      3.57764e+7 
           5610      3.56738e+7 
           5630      3.56121e+7 
           5650      3.52684e+7 
           5670      3.47388e+7 
           5690        3.463e+7 
           5710      3.42896e+7 
           5730      3.43674e+7 
           5750      3.38256e+7 
           5770      3.36413e+7 
           5790      3.33048e+7 
           5810      3.30904e+7 
           5830      3.28726e+7 
           5850      3.24754e+7 
           5870      3.22107e+7 
           5890      3.14896e+7 
           5910      3.16802e+7 
           5930      3.14176e+7 
           5950      3.11599e+7 
           5970       3.0923e+7 
           5990      3.05877e+7 
           6010      3.01925e+7 
           6030       3.0004e+7 
           6050      2.98533e+7 
           6070      2.96916e+7 
           6090      2.93669e+7 
           6110      2.90428e+7 
           6130      2.85327e+7 
           6150      2.81562e+7 
           6170      2.79532e+7 
           6190       2.8174e+7 
           6210      2.79586e+7 
           6230      2.75785e+7 
           6250      2.70088e+7 
           6270      2.72795e+7 
           6290      2.70672e+7 
           6310      2.66528e+7 
           6330       2.6494e+7 
           6350      2.60966e+7 
           6370      2.59302e+7 
           6390      2.58456e+7 
           6410      2.54352e+7 
           6430      2.53274e+7 
           6450      2.48473e+7 
           6470        2.472e+7 
           6490      2.42414e+7 
           6510       2.3834e+7 
           6530      2.27022e+7 
           6550      1.93438e+7 
           6570      1.56321e+7 
           6590      2.12055e+7 
           6610      2.26708e+7 
           6630      2.30305e+7 
           6650      2.30617e+7 
           6670      2.29397e+7 
           6690      2.28877e+7 
           6710       2.2718e+7 
           6730      2.25657e+7 
           6750      2.22933e+7 
           6770      2.22727e+7 
           6790      2.20943e+7 
           6810      2.19176e+7 
           6830      2.17248e+7 
           6850      2.15396e+7 
           6870      2.14223e+7 
           6890      2.12632e+7 
           6910      2.10882e+7 
           6930      2.09149e+7 
           6950      2.07635e+7 
           6970      2.05895e+7 
           6990      2.04556e+7 
           7010      2.01497e+7 
           7030      2.00748e+7 
           7050      1.99641e+7 
           7070      1.98189e+7 
           7090      1.96683e+7 
           7110      1.92016e+7 
           7130      1.92697e+7 
           7150      1.91443e+7 
           7170        1.899e+7 
           7190      1.88131e+7 
           7210      1.87241e+7 
           7230      1.85875e+7 
           7250      1.84134e+7 
           7270      1.83486e+7 
           7290       1.8107e+7 
           7310      1.80426e+7 
           7330      1.78945e+7 
           7350      1.78154e+7 
           7370      1.76827e+7 
           7390      1.74754e+7 
           7410      1.72673e+7 
           7430      1.71397e+7 
           7450      1.70661e+7 
           7470       1.6885e+7 
           7490      1.67883e+7 
           7510       1.6731e+7 
           7530      1.66257e+7 
           7550      1.65476e+7 
           7570      1.64064e+7 
           7590      1.62932e+7 
           7610      1.61641e+7 
           7630      1.60562e+7 
           7650      1.59176e+7 
           7670      1.57188e+7 
           7690      1.56435e+7 
           7710      1.55466e+7 
           7730      1.54757e+7 
           7750      1.53232e+7 
           7770      1.49455e+7 
           7790      1.51638e+7 
           7810      1.50349e+7 
           7830      1.48685e+7 
           7850      1.47348e+7 
           7870       1.4635e+7 
           7890      1.45137e+7 
           7910      1.44188e+7 
           7930      1.42616e+7 
           7950      1.41661e+7 
           7970      1.42019e+7 
           7990      1.39999e+7 
           8010      1.39664e+7 
           8030      1.38496e+7 
           8050      1.37704e+7 
           8070      1.36786e+7 
           8090      1.35673e+7 
           8110       1.3509e+7 
           8130      1.34312e+7 
           8150      1.33325e+7 
           8170      1.32385e+7 
           8190      1.29644e+7 
           8210      1.29243e+7 
           8230      1.28276e+7 
           8250      1.27655e+7 
           8270      1.28118e+7 
           8290      1.27139e+7 
           8310      1.25955e+7 
           8330      1.24123e+7 
           8350      1.24448e+7 
           8370      1.23967e+7 
           8390      1.22718e+7 
           8410      1.22258e+7 
           8430      1.21127e+7 
           8450      1.18739e+7 
           8470      1.19104e+7 
           8490      1.18412e+7 
           8510        1.146e+7 
           8530      1.16818e+7 
           8550      1.07583e+7 
           8570      1.16274e+7 
           8590      1.12486e+7 
           8610       1.1111e+7 
           8630       1.1449e+7 
           8650      1.11379e+7 
           8670      9.89374e+6 
           8690      1.09832e+7 
           8710      1.12879e+7 
           8730      1.09208e+7 
           8750       9.4942e+6 
           8770      1.05442e+7 
           8790      1.10828e+7 
           8810      1.10763e+7 
           8830      1.07662e+7 
           8850      9.83592e+6 
           8870      8.74585e+6 
           8890      1.03425e+7 
           8910      1.07446e+7 
           8930       1.0799e+7 
           8950      1.08416e+7 
           8970      1.05966e+7 
           8990      1.00559e+7 
           9010      8.30446e+6 
           9030      8.94041e+6 
           9050      1.00555e+7 
           9070      1.01618e+7 
           9090      1.00976e+7 
           9110      1.03365e+7 
           9130       1.0383e+7 
           9150      1.03076e+7 
           9170      1.01094e+7 
           9190      9.76749e+6 
           9210      8.98697e+6 
           9230      7.26503e+6 
           9250      8.65184e+6 
           9270      9.31029e+6 
           9290      9.72422e+6 
           9310      9.80679e+6 
           9330      9.79725e+6 
           9350      9.77995e+6 
