# Kurucz ODFNEW /NOVER (2003)
# teff = 29000 K (value for the effective temperature for the model. Temperatures are given in K)
# logg = 4.5 log(cm/s2) (value for Log(G) for the model.)
# meta = -2  (value for the Metallicity for the model.)
# lh = 1.25  (l/Hp where l is the  mixing length of the convective element and Hp is the pressure scale height)
# vtur = 2 km/s (Microturbulence velocity)
# alpha = 0.4  (Alpha)
#
# column 1: WAVELENGTH (ANGSTROM), Wavelength in Angstrom
# column 2: FLUX (ERG/CM2/S/A), Flux in erg/cm2/s/A
          147.2      6.9402e-10 
            151      2.49622e-9 
          155.2      9.54624e-9 
          158.8      2.85011e-8 
            162      7.23629e-8 
            166      2.20315e-7 
          170.3      6.87573e-7 
          173.4      1.50779e-6 
          176.8      3.45439e-6 
          180.2      7.66753e-6 
          181.7      1.07974e-5 
          186.1      2.85518e-5 
            191      7.98876e-5 
          193.9     0.000143298 
          198.4     0.000342968 
          201.8      0.00064581 
            205      0.00114888 
          210.5      0.00296952 
          216.2      0.00754137 
          219.8       0.0132462 
            223       0.0215194 
          226.8       0.0376149 
            230         3.66104 
            234          9.2593 
            240         18.3387 
          246.5         37.3318 
          252.4         69.5497 
          256.8         95.9101 
            260         144.634 
            264         204.121 
          268.5         308.413 
          273.5         473.396 
          278.5         713.609 
            284         1116.65 
            290         1753.96 
            296         2696.09 
            301         3733.61 
            308         5514.09 
            318         11489.2 
            328         20419.6 
            338         35861.2 
            348         60010.3 
            357         94418.1 
            366          144906 
            375          210674 
            385          320623 
            395          470305 
            405          675368 
            414          927668 
            422      1.19477e+6 
            430      1.53239e+6 
            441      2.13314e+6 
            451      2.84935e+6 
            460      3.60564e+6 
            470      4.68209e+6 
            480      5.96554e+6 
            490      7.52235e+6 
            500      9.42321e+6 
            506       5.2823e+7 
            512      1.83835e+8 
            520      1.96055e+8 
            530       2.2538e+8 
            540      2.20573e+8 
            550      2.66724e+8 
            560      2.86175e+8 
            570      3.12631e+8 
            580      3.03814e+8 
            590      3.53212e+8 
            600      3.77211e+8 
            610      4.07771e+8 
            620      4.31465e+8 
            630      4.63285e+8 
            640      4.78711e+8 
            650      5.18139e+8 
            658      5.42492e+8 
            665       5.6364e+8 
            675      5.82923e+8 
            685       6.0369e+8 
            695      6.64983e+8 
            705      6.79474e+8 
            716      7.32462e+8 
            726      7.62285e+8 
            735      8.01472e+8 
            745      8.42207e+8 
            755      8.77807e+8 
            765      9.14875e+8 
            775      9.58594e+8 
            785      1.00274e+9 
            795      1.03424e+9 
            805      1.07608e+9 
            815      1.11012e+9 
            825      1.15666e+9 
            835      1.14841e+9 
            845      1.22855e+9 
            855      1.26471e+9 
            865      1.30935e+9 
            875       1.3535e+9 
            885       1.3961e+9 
            895      1.43567e+9 
            905      1.46239e+9 
            915      1.81726e+9 
            925      9.65748e+9 
            935     2.11108e+10 
            945     4.51978e+10 
            955     5.47647e+10 
            965     6.98622e+10 
            975     3.39828e+10 
            985     7.13795e+10 
            995     6.63027e+10 
           1005     6.91076e+10 
           1015     6.47138e+10 
           1025     3.06353e+10 
           1035     5.99933e+10 
           1045     6.59848e+10 
           1055     6.42761e+10 
           1065     5.95506e+10 
           1075     5.99931e+10 
           1085     5.51898e+10 
           1095     5.82834e+10 
           1105     5.58202e+10 
           1115     5.45295e+10 
           1125     5.08646e+10 
           1135     5.24375e+10 
           1145     4.97296e+10 
           1155     4.96263e+10 
           1165     4.87669e+10 
           1175     4.24529e+10 
           1185     4.59381e+10 
           1195     4.38982e+10 
           1205     3.97323e+10 
           1215      2.0179e+10 
           1225     3.91886e+10 
           1235     4.10686e+10 
           1245       3.994e+10 
           1255     3.95739e+10 
           1265     3.86423e+10 
           1275       3.802e+10 
           1285     3.71682e+10 
           1295     3.45611e+10 
           1305     3.46241e+10 
           1315     3.46964e+10 
           1325     3.35653e+10 
           1335     3.25084e+10 
           1345     3.22038e+10 
           1355     3.17918e+10 
           1365     3.07838e+10 
           1375     3.02699e+10 
           1385     2.96851e+10 
           1395     2.75748e+10 
           1405     2.73669e+10 
           1415     2.76325e+10 
           1425     2.70141e+10 
           1435     2.66078e+10 
           1442     2.63519e+10 
           1447      2.6046e+10 
           1455     2.55753e+10 
           1465     2.50255e+10 
           1475     2.45124e+10 
           1485     2.40416e+10 
           1495     2.35188e+10 
           1505     2.27848e+10 
           1512     2.25957e+10 
           1517     2.23947e+10 
           1525     2.19886e+10 
           1535     2.11243e+10 
           1545     2.06007e+10 
           1555     2.01263e+10 
           1565     2.00853e+10 
           1575     1.98584e+10 
           1585     1.95216e+10 
           1595     1.91843e+10 
           1605     1.85511e+10 
           1615     1.81574e+10 
           1625     1.79189e+10 
           1635     1.76018e+10 
           1645     1.68552e+10 
           1655      1.7106e+10 
           1665     1.67884e+10 
           1672     1.65362e+10 
           1677     1.65677e+10 
           1685     1.62847e+10 
           1695     1.59489e+10 
           1705      1.5612e+10 
           1715     1.52345e+10 
           1725     1.49495e+10 
           1735     1.48303e+10 
           1745      1.4547e+10 
           1755      1.4307e+10 
           1765     1.39616e+10 
           1775     1.37473e+10 
           1785     1.35429e+10 
           1795     1.33596e+10 
           1805     1.31623e+10 
           1815     1.28884e+10 
           1825     1.26786e+10 
           1835     1.24703e+10 
           1845     1.20898e+10 
           1855     1.17956e+10 
           1865     1.16824e+10 
           1875     1.16042e+10 
           1885     1.12365e+10 
           1895     1.09252e+10 
           1905     1.09623e+10 
           1915     1.06355e+10 
           1925     1.04287e+10 
           1935     1.03786e+10 
           1945      1.0302e+10 
           1955      9.92974e+9 
           1967      9.92677e+9 
           1976       9.8655e+9 
           1984      9.63296e+9 
           1995      9.35731e+9 
           2005      9.37694e+9 
           2015      9.27343e+9 
           2025      9.15543e+9 
           2035      8.95996e+9 
           2045      8.81976e+9 
           2055      8.31815e+9 
           2065      8.14475e+9 
           2074      8.16811e+9 
           2078      8.03339e+9 
           2085      8.07374e+9 
           2095      8.02663e+9 
           2105      8.05445e+9 
           2115      7.97594e+9 
           2125      7.86767e+9 
           2135      7.74472e+9 
           2145      7.61725e+9 
           2155      7.52092e+9 
           2165      7.40185e+9 
           2175      7.30416e+9 
           2185      7.18617e+9 
           2195       7.1009e+9 
           2205      6.99782e+9 
           2215      6.88072e+9 
           2225      6.79504e+9 
           2235      6.69507e+9 
           2245      6.60454e+9 
           2255      6.49075e+9 
           2265      6.41807e+9 
           2275      6.32785e+9 
           2285      6.23694e+9 
           2295      6.07399e+9 
           2305      6.04721e+9 
           2315      5.97793e+9 
           2325      5.89602e+9 
           2335      5.81129e+9 
           2345      5.73587e+9 
           2355      5.65778e+9 
           2365      5.58093e+9 
           2375      5.50325e+9 
           2385      5.41415e+9 
           2395      5.35379e+9 
           2405      5.28383e+9 
           2415      5.21148e+9 
           2425       5.1438e+9 
           2435      5.07228e+9 
           2445       5.0068e+9 
           2455       4.9414e+9 
           2465      4.87709e+9 
           2475      4.81242e+9 
           2485      4.74973e+9 
           2495      4.55692e+9 
           2505      4.62514e+9 
           2513      4.54014e+9 
           2518      4.54114e+9 
           2525      4.50802e+9 
           2535      4.45095e+9 
           2545      4.37713e+9 
           2555      4.33266e+9 
           2565      4.28119e+9 
           2575       4.2284e+9 
           2585      4.17551e+9 
           2595      4.12309e+9 
           2605      4.09321e+9 
           2615      4.04175e+9 
           2625      3.99133e+9 
           2635      3.93852e+9 
           2645      3.88806e+9 
           2655       3.8359e+9 
           2665      3.78144e+9 
           2675      3.73138e+9 
           2685      3.70541e+9 
           2695      3.63491e+9 
           2705      3.61488e+9 
           2715      3.57128e+9 
           2725       3.5023e+9 
           2735       3.4784e+9 
           2745      3.44345e+9 
           2755      3.40261e+9 
           2765      3.33532e+9 
           2775      3.32292e+9 
           2785      3.28312e+9 
           2795      3.22432e+9 
           2805       3.2009e+9 
           2815      3.16912e+9 
           2825      3.10093e+9 
           2835      3.07633e+9 
           2845      3.05977e+9 
           2855      3.02372e+9 
           2865      2.98888e+9 
           2875      2.95463e+9 
           2885      2.92119e+9 
           2895      2.88756e+9 
           2910      2.83789e+9 
           2930      2.77409e+9 
           2950       2.6925e+9 
           2970      2.65178e+9 
           2990      2.59291e+9 
           3010      2.53524e+9 
           3030      2.48038e+9 
           3050      2.42682e+9 
           3070      2.37456e+9 
           3090      2.31958e+9 
           3110      2.27364e+9 
           3130      2.22664e+9 
           3150      2.17954e+9 
           3170      2.13361e+9 
           3190      2.07151e+9 
           3210      2.04366e+9 
           3230      2.00211e+9 
           3250      1.96095e+9 
           3270      1.92281e+9 
           3290      1.88112e+9 
           3310      1.84584e+9 
           3330      1.80858e+9 
           3350      1.76946e+9 
           3370      1.73718e+9 
           3390        1.703e+9 
           3410      1.66954e+9 
           3430      1.63025e+9 
           3450      1.59298e+9 
           3470      1.56641e+9 
           3490      1.53607e+9 
           3510      1.50929e+9 
           3530      1.48338e+9 
           3550      1.45508e+9 
           3570      1.43587e+9 
           3590       1.3989e+9 
           3610       1.3774e+9 
           3630      1.34731e+9 
           3640      1.34492e+9 
           3650      1.32832e+9 
           3670      1.30937e+9 
           3690      1.28446e+9 
           3710      1.24111e+9 
           3730      1.19264e+9 
           3750      1.20085e+9 
           3770       1.1809e+9 
           3790      1.22817e+9 
           3810      1.27287e+9 
           3830      1.11908e+9 
           3850      1.29688e+9 
           3870      1.30791e+9 
           3890      1.05455e+9 
           3910      1.28052e+9 
           3930      1.26533e+9 
           3950      1.23762e+9 
           3970      9.77959e+8 
           3990      1.18631e+9 
           4010      1.17976e+9 
           4030      1.11261e+9 
           4050      1.15073e+9 
           4070      1.12324e+9 
           4090      1.03467e+9 
           4110      9.09971e+8 
           4130      1.05402e+9 
           4150      1.04436e+9 
           4170      1.03539e+9 
           4190      1.01926e+9 
           4210      1.00223e+9 
           4230      9.85359e+8 
           4250      9.67952e+8 
           4270      9.50125e+8 
           4290       9.3406e+8 
           4310      9.12899e+8 
           4330      8.28331e+8 
           4350      7.57859e+8 
           4370      8.66066e+8 
           4390      8.35713e+8 
           4410      8.44712e+8 
           4430      8.29327e+8 
           4450      8.18655e+8 
           4470      7.70168e+8 
           4490      7.91688e+8 
           4510      7.79959e+8 
           4530      7.67452e+8 
           4550      7.54496e+8 
           4570      7.42603e+8 
           4590      7.30764e+8 
           4610      7.19544e+8 
           4630       7.0835e+8 
           4650      6.94743e+8 
           4670      6.85903e+8 
           4690      6.73883e+8 
           4710      6.56471e+8 
           4730       6.5504e+8 
           4750      6.44827e+8 
           4770      6.35275e+8 
           4790      6.25581e+8 
           4810      6.15049e+8 
           4830      6.02069e+8 
           4850      5.56145e+8 
           4870      4.99263e+8 
           4890      5.73379e+8 
           4910      5.68889e+8 
           4930      5.48535e+8 
           4950      5.54105e+8 
           4970      5.46268e+8 
           4990      5.38252e+8 
           5010      5.23967e+8 
           5030      5.22623e+8 
           5050      5.12228e+8 
           5070      5.07638e+8 
           5090      5.00297e+8 
           5110      4.93143e+8 
           5130      4.86084e+8 
           5150      4.79134e+8 
           5170      4.72319e+8 
           5190      4.65665e+8 
           5210      4.59085e+8 
           5230      4.52661e+8 
           5250      4.46335e+8 
           5270      4.40105e+8 
           5290      4.33983e+8 
           5310      4.27968e+8 
           5330       4.2207e+8 
           5350      4.16261e+8 
           5370      4.10554e+8 
           5390      4.04932e+8 
           5410      3.99292e+8 
           5430      3.94018e+8 
           5450      3.88684e+8 
           5470      3.83454e+8 
           5490      3.78303e+8 
           5510      3.73254e+8 
           5530      3.68267e+8 
           5550       3.6338e+8 
           5570      3.58565e+8 
           5590      3.53834e+8 
           5610      3.49173e+8 
           5630      3.44604e+8 
           5650      3.40092e+8 
           5670      3.35635e+8 
           5690       3.3122e+8 
           5710      3.26997e+8 
           5730      3.22802e+8 
           5750      3.18578e+8 
           5770      3.14574e+8 
           5790       3.1055e+8 
           5810      3.06597e+8 
           5830      3.02701e+8 
           5850      2.98874e+8 
           5870      2.86235e+8 
           5890      2.90919e+8 
           5910      2.87745e+8 
           5930      2.84147e+8 
           5950      2.80601e+8 
           5970      2.77139e+8 
           5990      2.73706e+8 
           6010      2.70333e+8 
           6030      2.67009e+8 
           6050      2.63734e+8 
           6070      2.60516e+8 
           6090      2.57345e+8 
           6110       2.5422e+8 
           6130       2.5114e+8 
           6150      2.48105e+8 
           6170      2.45124e+8 
           6190      2.42185e+8 
           6210       2.3929e+8 
           6230      2.36436e+8 
           6250      2.33623e+8 
           6270      2.30851e+8 
           6290      2.28128e+8 
           6310      2.25435e+8 
           6330      2.22791e+8 
           6350      2.20166e+8 
           6370      2.17606e+8 
           6390      2.15074e+8 
           6410       2.1257e+8 
           6430      2.10111e+8 
           6450      2.07687e+8 
           6470      2.05289e+8 
           6490      2.02925e+8 
           6510      2.00489e+8 
           6530      1.97355e+8 
           6550      1.88617e+8 
           6570      1.68261e+8 
           6590      1.89622e+8 
           6610      1.89089e+8 
           6630      1.87358e+8 
           6650      1.85347e+8 
           6670      1.81383e+8 
           6690        1.794e+8 
           6710      1.79227e+8 
           6730      1.77224e+8 
           6750      1.75282e+8 
           6770      1.73352e+8 
           6790      1.71425e+8 
           6810      1.69559e+8 
           6830      1.67703e+8 
           6850      1.65874e+8 
           6870      1.64072e+8 
           6890      1.62287e+8 
           6910      1.60529e+8 
           6930      1.58803e+8 
           6950      1.57095e+8 
           6970      1.55412e+8 
           6990      1.53745e+8 
           7010       1.5211e+8 
           7030      1.50491e+8 
           7050      1.48895e+8 
           7070      1.44979e+8 
           7090      1.45759e+8 
           7110      1.44224e+8 
           7130      1.42712e+8 
           7150      1.41215e+8 
           7170      1.39725e+8 
           7190      1.38285e+8 
           7210      1.36845e+8 
           7230       1.3534e+8 
           7250      1.34021e+8 
           7270      1.32643e+8 
           7290      1.30201e+8 
           7310      1.29919e+8 
           7330      1.28601e+8 
           7350      1.27288e+8 
           7370      1.25995e+8 
           7390      1.24714e+8 
           7410      1.23452e+8 
           7430      1.22201e+8 
           7450      1.20989e+8 
           7470      1.19755e+8 
           7490      1.18565e+8 
           7510       1.1734e+8 
           7530      1.16213e+8 
           7550      1.15056e+8 
           7570       1.1391e+8 
           7590      1.12781e+8 
           7610      1.11662e+8 
           7630      1.10566e+8 
           7650       1.0948e+8 
           7670       1.0841e+8 
           7690       1.0735e+8 
           7710        1.063e+8 
           7730      1.05265e+8 
           7750      1.04239e+8 
           7770      1.03223e+8 
           7790      1.02234e+8 
           7810      1.01198e+8 
           7830      1.00277e+8 
           7850      9.94056e+7 
           7870      9.84509e+7 
           7890      9.74683e+7 
           7910      9.65906e+7 
           7930      9.56727e+7 
           7950      9.47568e+7 
           7970      9.37421e+7 
           7990       9.2884e+7 
           8010      9.19392e+7 
           8030      9.10261e+7 
           8050      9.02139e+7 
           8070      8.94318e+7 
           8090      8.84261e+7 
           8110      8.77155e+7 
           8130      8.69767e+7 
           8150      8.60739e+7 
           8170      8.53991e+7 
           8190      8.44882e+7 
           8210      8.36188e+7 
           8230      8.30571e+7 
           8250      8.23284e+7 
           8270      8.12035e+7 
           8290      8.07793e+7 
           8310        8.008e+7 
           8330      7.93159e+7 
           8350      7.82393e+7 
           8370      7.77798e+7 
           8390        7.719e+7 
           8410      7.64931e+7 
           8430      7.57542e+7 
           8450      7.45835e+7 
           8470      7.43787e+7 
           8490      7.35531e+7 
           8510      7.29477e+7 
           8530      7.22332e+7 
           8550      7.12102e+7 
           8570      7.14938e+7 
