# Kurucz ODFNEW /NOVER (2003)
# teff = 7750 K (value for the effective temperature for the model. Temperatures are given in K)
# logg = 1.5 log(cm/s2) (value for Log(G) for the model.)
# meta = 0.2  (value for the Metallicity for the model.)
# lh = 1.25  (l/Hp where l is the  mixing length of the convective element and Hp is the pressure scale height)
# vtur = 2 km/s (Microturbulence velocity)
# alpha = 0.4  (Alpha)
#
# column 1: WAVELENGTH (ANGSTROM), Wavelength in Angstrom
# column 2: FLUX (ERG/CM2/S/A), Flux in erg/cm2/s/A
            375     7.95117e-25 
            385     6.69255e-23 
            395     5.29413e-22 
            405     3.60158e-21 
            414      1.8591e-20 
            422     7.52426e-20 
            430     2.88568e-19 
            441     1.09985e-19 
            451     4.67483e-19 
            460     1.62387e-18 
            470     6.10442e-18 
            480     2.16325e-17 
            490     7.25702e-17 
            500      2.3095e-16 
            506     8.06912e-15 
            512     2.24117e-14 
            520     3.02094e-15 
            530     8.40647e-15 
            540     2.20418e-14 
            550     5.66203e-14 
            560     1.39231e-13 
            570     3.30604e-13 
            580     7.50749e-13 
            590     1.69241e-12 
            600      3.6615e-12 
            610     7.72391e-12 
            620     1.58326e-11 
            630     3.16637e-11 
            640     6.18007e-11 
            650     1.18146e-10 
            658     1.95185e-10 
            665     2.98317e-10 
            675     5.41523e-10 
            685     9.64736e-10 
            695      1.68529e-9 
            705      2.86285e-9 
            716      5.13181e-9 
            726      8.50485e-9 
            735       1.3224e-8 
            745      2.12527e-8 
            755      3.37416e-8 
            765      5.28841e-8 
            775      8.18032e-8 
            785      1.25272e-7 
            795      1.86313e-7 
            805       2.7892e-7 
            815      4.15152e-7 
            825      6.06697e-7 
            835      8.76086e-7 
            845       1.2543e-6 
            855      1.77752e-6 
            865      2.49594e-6 
            875      3.44483e-6 
            885      4.79045e-6 
            895      6.55611e-6 
            905      8.82458e-6 
            915      0.00638693 
            925       0.0196417 
            935       0.0259385 
            945       0.0349277 
            955       0.0502623 
            965       0.0674227 
            975       0.0858656 
            985        0.111272 
            995        0.137975 
           1005        0.190889 
           1015        0.246499 
           1025        0.302079 
           1035        0.391104 
           1045        0.499155 
           1055         0.62885 
           1065         0.76613 
           1075        0.970002 
           1085         1.20639 
           1095         1.44653 
           1105         5.14853 
           1115         17.9382 
           1125         26.5557 
           1135         36.7452 
           1145         46.2641 
           1155         50.7643 
           1165         68.9936 
           1175          79.926 
           1185         82.0194 
           1195         29.0879 
           1205         36.1545 
           1215         7.51889 
           1225         43.1176 
           1235         113.274 
           1245         278.605 
           1255          623.83 
           1265          510.35 
           1275         1140.65 
           1285         1743.81 
           1295         2137.87 
           1305         1164.66 
           1315         2772.27 
           1325         3529.48 
           1335          3727.5 
           1345         4979.47 
           1355            5134 
           1365         5458.38 
           1375         6003.96 
           1385         6868.32 
           1395          8023.3 
           1405         9000.17 
           1415         9109.92 
           1425         10506.4 
           1435         10479.9 
           1442         12164.3 
           1447         13295.8 
           1455         14993.5 
           1465         15127.6 
           1475         16502.2 
           1485         18508.3 
           1495         21204.5 
           1505         23307.1 
           1512         23553.2 
           1517         25573.8 
           1525         28082.7 
           1535         58211.6 
           1545          227487 
           1555          197462 
           1565          171166 
           1575          335159 
           1585          437519 
           1595          643440 
           1605          517281 
           1615          440337 
           1625          357637 
           1635          400698 
           1645          582324 
           1655          311380 
           1665          471145 
           1672          137777 
           1677          811360 
           1685      1.91415e+6 
           1695      2.71209e+6 
           1705      2.76758e+6 
           1715      4.29792e+6 
           1725      4.77491e+6 
           1735      6.25687e+6 
           1745      5.25103e+6 
           1755      7.28403e+6 
           1765      5.21518e+6 
           1775      7.32827e+6 
           1785      5.75424e+6 
           1795      9.25424e+6 
           1805      6.78131e+6 
           1815      8.18238e+6 
           1825      6.40659e+6 
           1835      5.69062e+6 
           1845      5.49352e+6 
           1855      6.80878e+6 
           1865      7.77693e+6 
           1875      7.14437e+6 
           1885      7.56422e+6 
           1895      8.56726e+6 
           1905      7.21189e+6 
           1915      7.90826e+6 
           1925      7.92696e+6 
           1935      5.40771e+6 
           1945      8.96765e+6 
           1955      9.22498e+6 
           1967      1.03825e+7 
           1976      9.98996e+6 
           1984       9.5407e+6 
           1995      9.41496e+6 
           2005      8.77043e+6 
           2015      7.64588e+6 
           2025      7.39352e+6 
           2035      8.99353e+6 
           2045      1.01893e+7 
           2055      8.24527e+6 
           2065       8.1292e+6 
           2074      1.08268e+7 
           2078      1.16777e+7 
           2085      1.10145e+7 
           2095      1.01465e+7 
           2105      9.29448e+6 
           2115       9.3626e+6 
           2125      9.54166e+6 
           2135      6.92006e+6 
           2145      8.98627e+6 
           2155      9.44414e+6 
           2165      7.98464e+6 
           2175      8.29253e+6 
           2185       8.6942e+6 
           2195      9.86622e+6 
           2205      9.11832e+6 
           2215      7.18126e+6 
           2225      6.83613e+6 
           2235        9.339e+6 
           2245      8.28875e+6 
           2255      6.65567e+6 
           2265      6.70542e+6 
           2275      8.10871e+6 
           2285      8.54874e+6 
           2295      7.62539e+6 
           2305      8.14081e+6 
           2315      7.42813e+6 
           2325      6.90719e+6 
           2335      4.35778e+6 
           2345      3.25353e+6 
           2355      5.88846e+6 
           2365      3.19672e+6 
           2375      4.60674e+6 
           2385      2.43003e+6 
           2395      3.39974e+6 
           2405      3.20167e+6 
           2415      4.43066e+6 
           2425      7.44794e+6 
           2435      7.05713e+6 
           2445       7.7463e+6 
           2455      7.70333e+6 
           2465      7.26957e+6 
           2475      6.82472e+6 
           2485      7.14082e+6 
           2495      6.80591e+6 
           2505       9.0883e+6 
           2513      6.54233e+6 
           2518      7.17829e+6 
           2525      5.50521e+6 
           2535      5.41549e+6 
           2545      5.71403e+6 
           2555      7.24139e+6 
           2565      5.94134e+6 
           2575      7.06514e+6 
           2585      6.38479e+6 
           2595      5.55436e+6 
           2605      4.74646e+6 
           2615       4.4232e+6 
           2625       5.9812e+6 
           2635      7.63689e+6 
           2645      1.14968e+7 
           2655      1.17946e+7 
           2665      9.07156e+6 
           2675      1.02379e+7 
           2685      9.86552e+6 
           2695      9.38267e+6 
           2705      1.00425e+7 
           2715      8.44511e+6 
           2725      8.53341e+6 
           2735      9.20592e+6 
           2745      4.99031e+6 
           2755      5.93285e+6 
           2765      6.77748e+6 
           2775      7.82066e+6 
           2785      5.04364e+6 
           2795      1.69721e+6 
           2805      2.20191e+6 
           2815      6.56358e+6 
           2825      9.69837e+6 
           2835      9.91412e+6 
           2845      9.79196e+6 
           2855      8.53427e+6 
           2865      1.08481e+7 
           2875      1.04442e+7 
           2885      1.08662e+7 
           2895      1.01961e+7 
           2910      1.25835e+7 
           2930      1.16614e+7 
           2950      1.17103e+7 
           2970      1.28511e+7 
           2990      1.29987e+7 
           3010      1.37209e+7 
           3030      1.35334e+7 
           3050      1.33683e+7 
           3070      1.32326e+7 
           3090      1.40976e+7 
           3110      1.34779e+7 
           3130      1.34312e+7 
           3150      1.41451e+7 
           3170      1.38914e+7 
           3190      1.27937e+7 
           3210      1.37704e+7 
           3230      1.27738e+7 
           3250      1.38126e+7 
           3270      1.42829e+7 
           3290       1.4493e+7 
           3310      1.49707e+7 
           3330      1.43953e+7 
           3350      1.41061e+7 
           3370      1.38894e+7 
           3390      1.43462e+7 
           3410      1.49641e+7 
           3430      1.52935e+7 
           3450      1.51277e+7 
           3470      1.48378e+7 
           3490      1.46162e+7 
           3510      1.52938e+7 
           3530      1.54614e+7 
           3550      1.60682e+7 
           3570      1.51234e+7 
           3590      1.52135e+7 
           3610      1.53639e+7 
           3630      1.55936e+7 
           3640      1.51947e+7 
           3650      1.60284e+7 
           3670      1.57929e+7 
           3690       1.6684e+7 
           3710      2.15211e+7 
           3730      2.85128e+7 
           3750       4.4361e+7 
           3770      4.65793e+7 
           3790      5.80722e+7 
           3810       6.4819e+7 
           3830       5.0861e+7 
           3850      6.64731e+7 
           3870      7.11104e+7 
           3890      4.80718e+7 
           3910      6.55527e+7 
           3930      3.69414e+7 
           3950      5.92288e+7 
           3970      3.36575e+7 
           3990      6.61047e+7 
           4010       6.8659e+7 
           4030      6.70676e+7 
           4050      6.66434e+7 
           4070      6.53123e+7 
           4090        6.211e+7 
           4110      4.86699e+7 
           4130        6.353e+7 
           4150       6.5159e+7 
           4170      6.25553e+7 
           4190      6.24059e+7 
           4210      6.18463e+7 
           4230      6.05133e+7 
           4250      6.04936e+7 
           4270      5.83001e+7 
           4290      5.88898e+7 
           4310      5.49678e+7 
           4330      5.04526e+7 
           4350      4.34078e+7 
           4370       5.6919e+7 
           4390      5.51681e+7 
           4410       5.3679e+7 
           4430      5.35237e+7 
           4450      5.40063e+7 
           4470      5.38842e+7 
           4490       5.3409e+7 
           4510      5.42069e+7 
           4530       5.1675e+7 
           4550       5.0623e+7 
           4570      5.25367e+7 
           4590      5.01076e+7 
           4610      5.21041e+7 
           4630      5.00416e+7 
           4650      5.07202e+7 
           4670      5.02625e+7 
           4690      4.87043e+7 
           4710      4.68991e+7 
           4730      4.86098e+7 
           4750      4.86956e+7 
           4770      4.74768e+7 
           4790      4.71402e+7 
           4810      4.63745e+7 
           4830      4.58653e+7 
           4850      3.96677e+7 
           4870      3.17133e+7 
           4890      4.38518e+7 
           4910      4.39235e+7 
           4930      4.27385e+7 
           4950      4.33902e+7 
           4970      4.35816e+7 
           4990       4.1487e+7 
           5010      3.94138e+7 
           5030      4.04843e+7 
           5050      4.00668e+7 
           5070      4.05354e+7 
           5090      4.00735e+7 
           5110      3.98138e+7 
           5130      3.86207e+7 
           5150      3.77986e+7 
           5170      3.70205e+7 
           5190      3.65483e+7 
           5210      3.65736e+7 
           5230      3.61099e+7 
           5250      3.65952e+7 
           5270      3.41178e+7 
           5290      3.58419e+7 
           5310      3.48376e+7 
           5330      3.37995e+7 
           5350       3.5032e+7 
           5370      3.46304e+7 
           5390       3.3911e+7 
           5410      3.31948e+7 
           5430       3.3058e+7 
           5450      3.34969e+7 
           5470      3.30359e+7 
           5490      3.26556e+7 
           5510      3.22825e+7 
           5530      3.20691e+7 
           5550      3.21258e+7 
           5570      3.15944e+7 
           5590      3.12204e+7 
           5610      3.11466e+7 
           5630      3.10434e+7 
           5650      3.04169e+7 
           5670      2.99144e+7 
           5690      3.00338e+7 
           5710      2.97509e+7 
           5730      2.98339e+7 
           5750       2.9269e+7 
           5770      2.91501e+7 
           5790       2.8748e+7 
           5810      2.85548e+7 
           5830      2.83005e+7 
           5850      2.80314e+7 
           5870      2.77991e+7 
           5890      2.70916e+7 
           5910       2.7244e+7 
           5930      2.69909e+7 
           5950      2.66118e+7 
           5970      2.65247e+7 
           5990      2.60528e+7 
           6010      2.57754e+7 
           6030      2.57083e+7 
           6050      2.53575e+7 
           6070      2.53502e+7 
           6090      2.50113e+7 
           6110      2.46692e+7 
           6130      2.42458e+7 
           6150      2.35146e+7 
           6170      2.37128e+7 
           6190      2.39511e+7 
           6210      2.37267e+7 
           6230      2.33135e+7 
           6250      2.24856e+7 
           6270      2.31713e+7 
           6290      2.29671e+7 
           6310      2.24442e+7 
           6330      2.24163e+7 
           6350      2.19409e+7 
           6370       2.1846e+7 
           6390      2.18516e+7 
           6410      2.14505e+7 
           6430      2.14348e+7 
           6450      2.07741e+7 
           6470      2.10752e+7 
           6490       2.0526e+7 
           6510      2.05334e+7 
           6530      2.03689e+7 
           6550      1.85596e+7 
           6570      1.46023e+7 
           6590      1.95764e+7 
           6610      1.97168e+7 
           6630      1.97428e+7 
           6650      1.96047e+7 
           6670      1.93874e+7 
           6690      1.92573e+7 
           6710      1.91008e+7 
           6730      1.88677e+7 
           6750      1.86221e+7 
           6770      1.86914e+7 
           6790      1.84622e+7 
           6810      1.83637e+7 
           6830      1.81069e+7 
           6850      1.80005e+7 
           6870      1.79158e+7 
           6890      1.77691e+7 
           6910      1.76111e+7 
           6930      1.74375e+7 
           6950      1.73271e+7 
           6970      1.71503e+7 
           6990      1.70469e+7 
           7010       1.6617e+7 
           7030      1.67246e+7 
           7050      1.66169e+7 
           7070       1.6499e+7 
           7090      1.63813e+7 
           7110      1.58928e+7 
           7130      1.59964e+7 
           7150      1.58518e+7 
           7170      1.57532e+7 
           7190      1.56001e+7 
           7210      1.54905e+7 
           7230      1.53393e+7 
           7250      1.51753e+7 
           7270      1.51874e+7 
           7290      1.49681e+7 
           7310      1.48517e+7 
           7330      1.47687e+7 
           7350       1.4687e+7 
           7370      1.46483e+7 
           7390      1.44643e+7 
           7410      1.42477e+7 
           7430      1.40633e+7 
           7450      1.40266e+7 
           7470      1.38517e+7 
           7490      1.38302e+7 
           7510      1.37559e+7 
           7530      1.37049e+7 
           7550      1.36714e+7 
           7570      1.34763e+7 
           7590      1.34479e+7 
           7610      1.33461e+7 
           7630      1.32535e+7 
           7650      1.30749e+7 
           7670      1.29402e+7 
           7690      1.28615e+7 
           7710      1.27651e+7 
           7730      1.27344e+7 
           7750      1.26242e+7 
           7770       1.2198e+7 
           7790      1.24881e+7 
           7810      1.23631e+7 
           7830       1.2225e+7 
           7850      1.20619e+7 
           7870      1.20031e+7 
           7890      1.18577e+7 
           7910      1.18116e+7 
           7930      1.16964e+7 
           7950      1.15363e+7 
           7970      1.16665e+7 
           7990       1.1339e+7 
           8010       1.1471e+7 
           8030      1.13537e+7 
           8050      1.13032e+7 
           8070      1.12079e+7 
           8090      1.11341e+7 
           8110      1.10695e+7 
           8130      1.10169e+7 
           8150      1.09356e+7 
           8170      1.08573e+7 
           8190      1.05943e+7 
           8210      1.05059e+7 
           8230      1.04276e+7 
           8250      1.04225e+7 
           8270      1.05198e+7 
           8290      1.04154e+7 
           8310      1.02927e+7 
           8330      1.00941e+7 
           8350      1.01441e+7 
           8370      9.93435e+6 
           8390      9.88437e+6 
           8410      9.80972e+6 
           8430      9.98322e+6 
           8450      9.72498e+6 
           8470      9.44857e+6 
           8490      1.02168e+7 
           8510      9.00414e+6 
           8530      1.03661e+7 
           8550      8.03988e+6 
           8570       1.0781e+7 
           8590      1.00054e+7 
           8610       9.6774e+6 
           8630      1.10479e+7 
           8650      1.06918e+7 
           8670      7.97273e+6 
           8690      1.06405e+7 
           8710      1.11583e+7 
           8730      1.08398e+7 
           8750      8.55093e+6 
           8770      1.05413e+7 
           8790      1.09312e+7 
           8810      1.08244e+7 
           8830      1.05029e+7 
           8850      9.92394e+6 
           8870      8.29862e+6 
           8890      1.03249e+7 
           8910      1.04167e+7 
           8930      1.03138e+7 
           8950       1.0384e+7 
           8970      1.02553e+7 
           8990      1.00321e+7 
           9010      8.19912e+6 
           9030      9.09472e+6 
           9050      9.92806e+6 
           9070      9.64848e+6 
           9090      9.50804e+6 
           9110       9.6806e+6 
           9130      9.70919e+6 
           9150      9.71314e+6 
           9170      9.59062e+6 
           9190       9.4209e+6 
           9210      9.05759e+6 
           9230       7.1359e+6 
           9250       8.6787e+6 
           9270      8.86707e+6 
           9290      9.20739e+6 
           9310      9.17483e+6 
           9330      9.05936e+6 
           9350      9.05211e+6 
           9370      9.01308e+6 
           9390      8.84782e+6 
           9410      8.50138e+6 
           9430      8.65896e+6 
           9450      8.66749e+6 
