# Kurucz ODFNEW /NOVER (2003)
# teff = 8500 K (value for the effective temperature for the model. Temperatures are given in K)
# logg = 2 log(cm/s2) (value for Log(G) for the model.)
# meta = -4  (value for the Metallicity for the model.)
# lh = 1.25  (l/Hp where l is the  mixing length of the convective element and Hp is the pressure scale height)
# vtur = 2 km/s (Microturbulence velocity)
# alpha = 0.4  (Alpha)
#
# column 1: WAVELENGTH (ANGSTROM), Wavelength in Angstrom
# column 2: FLUX (ERG/CM2/S/A), Flux in erg/cm2/s/A
          147.2     1.73866e-35 
            151     1.65225e-35 
          155.2     1.56403e-35 
          158.8     1.49392e-35 
            162     1.43549e-35 
            166     1.36714e-35 
          170.3     1.29897e-35 
          173.4     1.25294e-35 
          176.8     1.20522e-35 
          180.2     1.16017e-35 
          181.7     1.14109e-35 
          186.1     1.08777e-35 
            191     1.03267e-35 
          193.9     1.00201e-35 
          198.4     9.57076e-36 
          201.8     9.25097e-36 
            205     8.96441e-36 
          210.5     8.50208e-36 
          216.2     8.05969e-36 
          219.8     7.79784e-36 
            223     7.57565e-36 
          226.8     7.32392e-36 
            230     7.12154e-36 
            234     6.88015e-36 
            240     6.54044e-36 
          246.5     6.20006e-36 
          252.4     5.91358e-36 
          256.8     5.71267e-36 
            260     5.57292e-36 
            264     5.40532e-36 
          268.5     5.22566e-36 
          273.5     2.12423e-23 
          278.5     1.07736e-22 
            284     5.10287e-22 
            290     2.51764e-21 
            296     1.15316e-20 
            301     3.91499e-20 
            308     2.01859e-19 
            318      1.8458e-18 
            328     1.46911e-17 
            338     1.02756e-16 
            348      6.4185e-16 
            357     3.04164e-15 
            366     1.33513e-14 
            375     5.43669e-14 
            385     2.39269e-13 
            395       9.734e-13 
            405     3.69024e-12 
            414     1.15784e-11 
            422     3.06572e-11 
            430     7.82636e-11 
            441     2.68172e-10 
            451     7.77792e-10 
            460      1.94863e-9 
            470      5.18399e-9 
            480      1.32182e-8 
            490      3.24527e-8 
            500      7.66705e-8 
            506      3.51589e-7 
            512      7.31618e-7 
            520       1.3653e-6 
            530      2.94329e-6 
            540      5.97044e-6 
            550      1.21238e-5 
            560      2.36153e-5 
            570      4.48585e-5 
            580      8.15982e-5 
            590     0.000150887 
            600     0.000267876 
            610     0.000465753 
            620     0.000794415 
            630      0.00133056 
            640      0.00219002 
            650      0.00354464 
            658      0.00515127 
            665      0.00708794 
            675       0.0110433 
            685       0.0169648 
            695        0.025713 
            705       0.0384737 
            716       0.0590855 
            726       0.0861921 
            735        0.119931 
            745        0.171394 
            755        0.242411 
            765        0.339428 
            775        0.470779 
            785        0.647053 
            795        0.881584 
            805         1.19107 
            815         1.59619 
            825         2.12264 
            835          2.8017 
            845         3.67066 
            855         4.77585 
            865         6.17238 
            875         7.92651 
            885         10.1154 
            895         12.8324 
            905         16.1865 
            915         41.1204 
            925         156.284 
            935         240.166 
            945         418.065 
            955         738.939 
            965         825.247 
            975         527.788 
            985         18491.6 
            995          229731 
           1005         36237.1 
           1015         1362.69 
           1025         1164.91 
           1035          2182.6 
           1045          128616 
           1055      2.43765e+6 
           1065      7.54605e+6 
           1075      1.19993e+7 
           1085      1.44378e+7 
           1095      1.43239e+7 
           1105      1.34497e+7 
           1115      1.19035e+7 
           1125      9.13884e+6 
           1135      7.23294e+6 
           1145      4.69538e+6 
           1155      2.25745e+6 
           1165          747422 
           1175         95059.3 
           1185      2.80168e+6 
           1195         11327.8 
           1205         8731.31 
           1215         5507.68 
           1225         10026.9 
           1235         16757.4 
           1245           12173 
           1255         32541.7 
           1265          317703 
           1275      1.23615e+6 
           1285      3.05039e+6 
           1295      4.97356e+6 
           1305      7.16151e+6 
           1315      9.44991e+6 
           1325      1.17633e+7 
           1335      1.36872e+7 
           1345      1.60948e+7 
           1355      1.75542e+7 
           1365      1.93065e+7 
           1375      2.01354e+7 
           1385       2.0482e+7 
           1395       2.1018e+7 
           1405      2.38745e+7 
           1415      2.66842e+7 
           1425      2.78546e+7 
           1435      2.84812e+7 
           1442      2.96367e+7 
           1447      2.97741e+7 
           1455      3.04103e+7 
           1465      3.05898e+7 
           1475       3.1418e+7 
           1485      3.16916e+7 
           1495      3.21118e+7 
           1505      3.27277e+7 
           1512      3.30186e+7 
           1517      3.30092e+7 
           1525      3.29068e+7 
           1535      3.29191e+7 
           1545      3.35407e+7 
           1555      3.31294e+7 
           1565      3.18029e+7 
           1575       3.2951e+7 
           1585      3.30808e+7 
           1595      3.35677e+7 
           1605      3.31478e+7 
           1615      3.33567e+7 
           1625      3.30816e+7 
           1635       3.3418e+7 
           1645      3.39026e+7 
           1655      3.24529e+7 
           1665      3.43391e+7 
           1672       3.3338e+7 
           1677      3.39861e+7 
           1685      3.42506e+7 
           1695      3.40037e+7 
           1705      3.36125e+7 
           1715      3.39274e+7 
           1725        3.372e+7 
           1735      3.40533e+7 
           1745      3.35948e+7 
           1755      3.37659e+7 
           1765      3.36081e+7 
           1775      3.36753e+7 
           1785      3.32955e+7 
           1795      3.34763e+7 
           1805      3.29514e+7 
           1815      3.29061e+7 
           1825      3.28643e+7 
           1835      3.28573e+7 
           1845      3.26006e+7 
           1855      3.26069e+7 
           1865      3.24878e+7 
           1875      3.24187e+7 
           1885      3.23131e+7 
           1895      3.22111e+7 
           1905      3.20161e+7 
           1915      3.19456e+7 
           1925      3.18687e+7 
           1935      3.14476e+7 
           1945      3.16608e+7 
           1955      3.15418e+7 
           1967      3.14093e+7 
           1976      3.12792e+7 
           1984       3.1193e+7 
           1995        3.108e+7 
           2005      3.09169e+7 
           2015       3.0724e+7 
           2025      3.06354e+7 
           2035      3.06261e+7 
           2045      3.05111e+7 
           2055      3.01212e+7 
           2065      3.01359e+7 
           2074       3.0255e+7 
           2078      3.02224e+7 
           2085      3.01533e+7 
           2095      3.00523e+7 
           2105      2.99664e+7 
           2115      2.98614e+7 
           2125      2.97596e+7 
           2135      2.96525e+7 
           2145      2.96158e+7 
           2155      2.95079e+7 
           2165      2.92327e+7 
           2175      2.92297e+7 
           2185      2.92397e+7 
           2195      2.92312e+7 
           2205      2.90612e+7 
           2215      2.88163e+7 
           2225      2.87526e+7 
           2235       2.8916e+7 
           2245       2.8798e+7 
           2255      2.85691e+7 
           2265      2.84099e+7 
           2275      2.85457e+7 
           2285       2.8492e+7 
           2295      2.83536e+7 
           2305      2.83819e+7 
           2315      2.82968e+7 
           2325      2.82316e+7 
           2335      2.78562e+7 
           2345       2.7291e+7 
           2355      2.78613e+7 
           2365      2.72436e+7 
           2375      2.76238e+7 
           2385      2.69171e+7 
           2395      2.74343e+7 
           2405       2.7402e+7 
           2415      2.73415e+7 
           2425       2.7743e+7 
           2435      2.76256e+7 
           2445      2.75652e+7 
           2455      2.76117e+7 
           2465        2.747e+7 
           2475      2.74551e+7 
           2485      2.74023e+7 
           2495      2.72049e+7 
           2505      2.74006e+7 
           2513      2.72359e+7 
           2518      2.73008e+7 
           2525      2.71496e+7 
           2535      2.69335e+7 
           2545      2.71079e+7 
           2555      2.72216e+7 
           2565      2.69193e+7 
           2575      2.70112e+7 
           2585      2.69255e+7 
           2595      2.68375e+7 
           2605      2.67474e+7 
           2615      2.66776e+7 
           2625       2.6659e+7 
           2635      2.66958e+7 
           2645      2.70597e+7 
           2655      2.70257e+7 
           2665      2.69314e+7 
           2675      2.69274e+7 
           2685      2.69424e+7 
           2695      2.68959e+7 
           2705      2.68771e+7 
           2715      2.67515e+7 
           2725      2.66874e+7 
           2735      2.66971e+7 
           2745      2.61915e+7 
           2755       2.6305e+7 
           2765      2.65787e+7 
           2775      2.67045e+7 
           2785      2.66719e+7 
           2795      2.58989e+7 
           2805      2.62604e+7 
           2815      2.66285e+7 
           2825      2.65998e+7 
           2835      2.65334e+7 
           2845      2.65264e+7 
           2855      2.64297e+7 
           2865      2.64566e+7 
           2875      2.64593e+7 
           2885      2.64405e+7 
           2895      2.64416e+7 
           2910      2.64148e+7 
           2930      2.63108e+7 
           2950      2.62674e+7 
           2970      2.62659e+7 
           2990      2.62119e+7 
           3010      2.61886e+7 
           3030      2.61457e+7 
           3050      2.60987e+7 
           3070      2.60352e+7 
           3090      2.60066e+7 
           3110      2.59603e+7 
           3130      2.59095e+7 
           3150       2.5861e+7 
           3170      2.58187e+7 
           3190        2.575e+7 
           3210      2.57196e+7 
           3230      2.56415e+7 
           3250      2.56208e+7 
           3270      2.55832e+7 
           3290      2.55352e+7 
           3310      2.54851e+7 
           3330      2.54265e+7 
           3350      2.53605e+7 
           3370      2.53134e+7 
           3390      2.52641e+7 
           3410      2.52217e+7 
           3430      2.51663e+7 
           3450      2.51112e+7 
           3470      2.50531e+7 
           3490      2.49963e+7 
           3510      2.49386e+7 
           3530      2.48805e+7 
           3550      2.48209e+7 
           3570        2.476e+7 
           3590      2.46989e+7 
           3610      2.46375e+7 
           3630      2.45741e+7 
           3640      2.45416e+7 
           3650      2.46867e+7 
           3670      2.43361e+7 
           3690      2.51194e+7 
           3710      3.20453e+7 
           3730      4.24226e+7 
           3750      6.63392e+7 
           3770      6.90008e+7 
           3790       8.0242e+7 
           3810      8.98061e+7 
           3830      7.27268e+7 
           3850      9.55034e+7 
           3870      1.00518e+8 
           3890      6.50235e+7 
           3910      9.82748e+7 
           3930       9.8143e+7 
           3950      9.60892e+7 
           3970      6.16453e+7 
           3990      9.28258e+7 
           4010      9.41373e+7 
           4030      9.30707e+7 
           4050      9.19861e+7 
           4070       9.0386e+7 
           4090      7.99307e+7 
           4110      6.24147e+7 
           4130      8.66039e+7 
           4150      8.62983e+7 
           4170      8.54032e+7 
           4190      8.43516e+7 
           4210      8.33077e+7 
           4230      8.22733e+7 
           4250       8.1263e+7 
           4270      8.02639e+7 
           4290      7.91385e+7 
           4310      7.76615e+7 
           4330      6.59164e+7 
           4350       5.6267e+7 
           4370      7.46598e+7 
           4390      7.43759e+7 
           4410      7.36796e+7 
           4430      7.27951e+7 
           4450      7.19291e+7 
           4470      7.09777e+7 
           4490      7.02085e+7 
           4510       6.9389e+7 
           4530      6.85684e+7 
           4550      6.77576e+7 
           4570      6.69638e+7 
           4590      6.61795e+7 
           4610      6.54079e+7 
           4630      6.46437e+7 
           4650      6.38937e+7 
           4670      6.31542e+7 
           4690      6.24249e+7 
           4710      6.16904e+7 
           4730      6.09963e+7 
           4750      6.02984e+7 
           4770        5.961e+7 
           4790      5.89294e+7 
           4810      5.80903e+7 
           4830      5.70159e+7 
           4850       4.9575e+7 
           4870      4.02861e+7 
           4890      5.47777e+7 
           4910      5.48496e+7 
           4930        5.439e+7 
           4950      5.38376e+7 
           4970      5.32405e+7 
           4990      5.26526e+7 
           5010      5.20575e+7 
           5030      5.15014e+7 
           5050      5.09333e+7 
           5070      5.03813e+7 
           5090       4.9832e+7 
           5110      4.92912e+7 
           5130      4.87587e+7 
           5150      4.82316e+7 
           5170      4.77083e+7 
           5190      4.71987e+7 
           5210      4.66968e+7 
           5230      4.61971e+7 
           5250      4.57064e+7 
           5270      4.52218e+7 
           5290      4.47445e+7 
           5310      4.42732e+7 
           5330      4.38076e+7 
           5350      4.33491e+7 
           5370      4.28961e+7 
           5390      4.24487e+7 
           5410       4.2008e+7 
           5430      4.15726e+7 
           5450      4.11438e+7 
           5470      4.07188e+7 
           5490      4.03014e+7 
           5510      3.98878e+7 
           5530      3.94803e+7 
           5550      3.90776e+7 
           5570      3.86809e+7 
           5590      3.82889e+7 
           5610      3.79027e+7 
           5630      3.75209e+7 
           5650      3.71437e+7 
           5670      3.67719e+7 
           5690      3.64045e+7 
           5710      3.60413e+7 
           5730      3.56834e+7 
           5750      3.53308e+7 
           5770      3.49811e+7 
           5790      3.46364e+7 
           5810      3.42968e+7 
           5830      3.39611e+7 
           5850      3.36291e+7 
           5870      3.32789e+7 
           5890      3.29784e+7 
           5910      3.26585e+7 
           5930      3.23432e+7 
           5950      3.20314e+7 
           5970      3.17231e+7 
           5990      3.14192e+7 
           6010      3.11187e+7 
           6030      3.08225e+7 
           6050      3.05295e+7 
           6070      3.02407e+7 
           6090       2.9955e+7 
           6110      2.96725e+7 
           6130      2.93939e+7 
           6150      2.91184e+7 
           6170      2.88458e+7 
           6190      2.85771e+7 
           6210      2.83113e+7 
           6230      2.80492e+7 
           6250       2.7789e+7 
           6270      2.75325e+7 
           6290      2.72796e+7 
           6310      2.70284e+7 
           6330      2.67808e+7 
           6350      2.65357e+7 
           6370      2.62942e+7 
           6390       2.6056e+7 
           6410      2.58194e+7 
           6430      2.55861e+7 
           6450      2.53553e+7 
           6470      2.51268e+7 
           6490      2.48675e+7 
           6510      2.45754e+7 
           6530      2.41627e+7 
           6550      2.20519e+7 
           6570       1.7657e+7 
           6590      2.32181e+7 
           6610      2.34537e+7 
           6630      2.33304e+7 
           6650      2.31869e+7 
           6670       2.2982e+7 
           6690      2.27817e+7 
           6710      2.25841e+7 
           6730      2.23869e+7 
           6750      2.21924e+7 
           6770      2.19998e+7 
           6790        2.181e+7 
           6810      2.16211e+7 
           6830      2.14349e+7 
           6850      2.12513e+7 
           6870      2.10687e+7 
           6890      2.08886e+7 
           6910      2.07103e+7 
           6930      2.05344e+7 
           6950      2.03603e+7 
           6970      2.01878e+7 
           6990      2.00169e+7 
           7010      1.98484e+7 
           7030      1.96815e+7 
           7050      1.95169e+7 
           7070      1.93524e+7 
           7090      1.91917e+7 
           7110      1.90317e+7 
           7130      1.88732e+7 
           7150      1.87169e+7 
           7170      1.85621e+7 
           7190      1.84087e+7 
           7210      1.82567e+7 
           7230      1.81068e+7 
           7250      1.79583e+7 
           7270      1.78112e+7 
           7290      1.76661e+7 
           7310      1.75223e+7 
           7330      1.73798e+7 
           7350      1.72387e+7 
           7370      1.70987e+7 
           7390      1.69608e+7 
           7410      1.68241e+7 
           7430      1.66893e+7 
           7450       1.6555e+7 
           7470      1.64226e+7 
           7490      1.62913e+7 
           7510      1.61613e+7 
           7530       1.6033e+7 
           7550      1.59059e+7 
           7570      1.57799e+7 
           7590       1.5655e+7 
           7610      1.55318e+7 
           7630      1.54097e+7 
           7650      1.52887e+7 
           7670      1.51687e+7 
           7690      1.50504e+7 
           7710      1.49331e+7 
           7730      1.48169e+7 
           7750      1.47016e+7 
           7770      1.45855e+7 
           7790      1.44747e+7 
           7810       1.4363e+7 
           7830      1.42528e+7 
           7850       1.4143e+7 
           7870      1.40347e+7 
           7890      1.39273e+7 
           7910      1.38209e+7 
           7930      1.37153e+7 
           7950      1.36112e+7 
           7970       1.3508e+7 
           7990       1.3405e+7 
           8010      1.33041e+7 
           8030      1.32035e+7 
           8050      1.31042e+7 
           8070      1.30058e+7 
           8090      1.29082e+7 
           8110      1.28114e+7 
           8130      1.27154e+7 
           8150      1.26207e+7 
           8170      1.25268e+7 
           8190      1.24337e+7 
           8210      1.23939e+7 
           8230      1.23103e+7 
           8250      1.22297e+7 
           8270      1.21464e+7 
           8290       1.2056e+7 
           8310      1.19512e+7 
           8330      1.18292e+7 
           8350       1.1731e+7 
           8370      1.15003e+7 
           8390      1.14332e+7 
           8410      1.12947e+7 
           8430      1.14692e+7 
           8450       1.1455e+7 
           8470      1.08097e+7 
           8490      1.18867e+7 
           8510      1.06917e+7 
           8530      1.20918e+7 
           8550      1.03296e+7 
           8570      1.23362e+7 
           8590      1.13451e+7 
