# Kurucz ODFNEW /NOVER (2003)
# teff = 25000 K (value for the effective temperature for the model. Temperatures are given in K)
# logg = 3 log(cm/s2) (value for Log(G) for the model.)
# meta = 0  (value for the Metallicity for the model.)
# lh = 1.25  (l/Hp where l is the  mixing length of the convective element and Hp is the pressure scale height)
# vtur = 2 km/s (Microturbulence velocity)
# alpha = 0.4  (Alpha)
#
# column 1: WAVELENGTH (ANGSTROM), Wavelength in Angstrom
# column 2: FLUX (ERG/CM2/S/A), Flux in erg/cm2/s/A
          147.2     5.30343e-14 
            151     2.24722e-13 
          155.2     1.02768e-12 
          158.8     3.57063e-12 
            162     1.03413e-11 
            166     3.70427e-11 
          170.3     1.36808e-10 
          173.4     3.39548e-10 
          176.8     8.86593e-10 
          180.2       2.2375e-9 
          181.7      3.32981e-9 
          186.1      1.03419e-8 
            191      3.44913e-8 
          193.9      6.84306e-8 
          198.4      1.90726e-7 
          201.8      4.01844e-7 
            205      7.92759e-7 
          210.5      2.43381e-6 
          216.2      7.33399e-6 
          219.8      1.43028e-5 
            223      2.54368e-5 
          226.8       5.0379e-5 
            230      0.00263461 
            234      0.00603774 
            240       0.0138141 
          246.5       0.0329942 
          252.4       0.0705018 
          256.8        0.115687 
            260        0.187484 
            264        0.288882 
          268.5        0.493161 
          273.5        0.849832 
          278.5         1.40716 
            284         2.86284 
            290         5.04396 
            296          8.6834 
            301          13.274 
            308         26.7103 
            318         64.5541 
            328         131.336 
            338         278.646 
            348         543.487 
            357         3975.42 
            366         10870.8 
            375         16005.7 
            385         28346.5 
            395         91349.5 
            405          132253 
            414          228219 
            422          294874 
            430          407801 
            441          588491 
            451          758641 
            460          941859 
            470      1.30873e+6 
            480      1.72226e+6 
            490      2.25002e+6 
            500      2.88771e+6 
            506      1.10047e+7 
            512      1.01088e+8 
            520      1.02363e+8 
            530      1.04446e+8 
            540      1.03225e+8 
            550      1.61813e+8 
            560      2.07778e+8 
            570      2.31232e+8 
            580      2.02486e+8 
            590      2.61005e+8 
            600      2.33897e+8 
            610       3.1492e+8 
            620      3.60862e+8 
            630      3.76701e+8 
            640      3.38689e+8 
            650      2.65967e+8 
            658      3.41669e+8 
            665      4.22174e+8 
            675      4.39243e+8 
            685      3.80025e+8 
            695      5.62429e+8 
            705      4.58927e+8 
            716       6.3089e+8 
            726      5.98527e+8 
            735      6.57928e+8 
            745      7.08219e+8 
            755      7.31153e+8 
            765      7.91149e+8 
            775      8.58426e+8 
            785      9.12991e+8 
            795      9.18778e+8 
            805      9.21556e+8 
            815      9.22164e+8 
            825      1.02454e+9 
            835      7.32359e+8 
            845      1.01159e+9 
            855       1.0159e+9 
            865      1.07597e+9 
            875       1.1301e+9 
            885      1.21207e+9 
            895      1.25638e+9 
            905      1.22679e+9 
            915      2.59657e+9 
            925     1.44233e+10 
            935     2.09397e+10 
            945     2.34768e+10 
            955     2.40456e+10 
            965     2.38621e+10 
            975      6.29636e+9 
            985     1.63971e+10 
            995     1.84205e+10 
           1005     2.17229e+10 
           1015     2.28943e+10 
           1025     2.01857e+10 
           1035     2.01295e+10 
           1045     2.66257e+10 
           1055     2.47082e+10 
           1065     1.99664e+10 
           1075     2.26271e+10 
           1085     2.13344e+10 
           1095     2.33533e+10 
           1105     2.13142e+10 
           1115     2.03043e+10 
           1125     1.44069e+10 
           1135     2.12783e+10 
           1145     2.00763e+10 
           1155     2.00561e+10 
           1165     1.99631e+10 
           1175     1.10856e+10 
           1185     1.84045e+10 
           1195     1.77637e+10 
           1205      1.2648e+10 
           1215     1.47752e+10 
           1225     1.75184e+10 
           1235     1.88754e+10 
           1245     1.79245e+10 
           1255     1.81157e+10 
           1265     1.84593e+10 
           1275     1.90902e+10 
           1285     1.88663e+10 
           1295     1.40091e+10 
           1305     1.55607e+10 
           1315     1.86109e+10 
           1325      1.7665e+10 
           1335     1.71887e+10 
           1345      1.7205e+10 
           1355      1.7119e+10 
           1365     1.61277e+10 
           1375     1.54426e+10 
           1385     1.41925e+10 
           1395      7.44138e+9 
           1405      9.34121e+9 
           1415     1.36486e+10 
           1425      1.3224e+10 
           1435     1.40134e+10 
           1442     1.42609e+10 
           1447     1.40729e+10 
           1455     1.34979e+10 
           1465     1.27408e+10 
           1475     1.31061e+10 
           1485     1.29923e+10 
           1495     1.26541e+10 
           1505     1.18343e+10 
           1512     1.09671e+10 
           1517      1.1297e+10 
           1525      1.1292e+10 
           1535       9.6092e+9 
           1545      8.88785e+9 
           1555      8.68806e+9 
           1565      9.72716e+9 
           1575      1.0439e+10 
           1585     1.03996e+10 
           1595     1.03595e+10 
           1605     1.01097e+10 
           1615      9.77881e+9 
           1625      9.80392e+9 
           1635     1.02702e+10 
           1645      1.0342e+10 
           1655     1.01676e+10 
           1665     1.01433e+10 
           1672      9.54847e+9 
           1677     1.09149e+10 
           1685     1.03813e+10 
           1695      9.83618e+9 
           1705      9.72477e+9 
           1715      9.16403e+9 
           1725      9.01365e+9 
           1735       9.3089e+9 
           1745      9.18086e+9 
           1755      9.15885e+9 
           1765      9.16638e+9 
           1775      8.60793e+9 
           1785        8.761e+9 
           1795      8.83074e+9 
           1805      8.91494e+9 
           1815      8.17404e+9 
           1825      8.40447e+9 
           1835      8.25136e+9 
           1845      7.55058e+9 
           1855      7.77123e+9 
           1865      7.86781e+9 
           1875      7.93156e+9 
           1885       7.2189e+9 
           1895      6.77479e+9 
           1905      7.27906e+9 
           1915      6.93378e+9 
           1925      6.55704e+9 
           1935      6.99584e+9 
           1945      7.15462e+9 
           1955      6.40633e+9 
           1967      6.92897e+9 
           1976      7.25522e+9 
           1984      6.77657e+9 
           1995      6.65387e+9 
           2005      6.87574e+9 
           2015      6.85582e+9 
           2025      6.97468e+9 
           2035      6.41733e+9 
           2045        6.493e+9 
           2055      5.97768e+9 
           2065       5.9413e+9 
           2074      6.36218e+9 
           2078      5.90541e+9 
           2085      6.28898e+9 
           2095      5.95502e+9 
           2105      6.14879e+9 
           2115      6.20077e+9 
           2125      6.22598e+9 
           2135      6.14473e+9 
           2145      5.84832e+9 
           2155      6.05692e+9 
           2165      5.99001e+9 
           2175      5.91905e+9 
           2185      5.78585e+9 
           2195      5.83685e+9 
           2205      5.80944e+9 
           2215      5.72209e+9 
           2225      5.58859e+9 
           2235       5.4865e+9 
           2245      5.51472e+9 
           2255      5.38628e+9 
           2265      5.39544e+9 
           2275      5.33581e+9 
           2285      5.27103e+9 
           2295      4.63989e+9 
           2305      5.09742e+9 
           2315      4.99056e+9 
           2325      4.95121e+9 
           2335      4.84117e+9 
           2345      4.88746e+9 
           2355      4.82641e+9 
           2365      4.78117e+9 
           2375      4.67968e+9 
           2385      4.62098e+9 
           2395      4.56178e+9 
           2405       4.5264e+9 
           2415      4.44649e+9 
           2425      4.43321e+9 
           2435      4.33264e+9 
           2445      4.31699e+9 
           2455      4.28752e+9 
           2465      4.21939e+9 
           2475      4.12546e+9 
           2485      3.91443e+9 
           2495      2.63225e+9 
           2505      3.64198e+9 
           2513      3.76874e+9 
           2518      3.85884e+9 
           2525      3.90437e+9 
           2535      3.89883e+9 
           2545      3.73797e+9 
           2555      3.78298e+9 
           2565      3.72806e+9 
           2575      3.72916e+9 
           2585      3.68204e+9 
           2595      3.64476e+9 
           2605      3.62183e+9 
           2615      3.55523e+9 
           2625      3.53109e+9 
           2635      3.49583e+9 
           2645      3.44925e+9 
           2655      3.41685e+9 
           2665      3.31174e+9 
           2675       3.2945e+9 
           2685      3.29844e+9 
           2695      3.20071e+9 
           2705      3.15567e+9 
           2715       3.1457e+9 
           2725      3.12352e+9 
           2735      3.08687e+9 
           2745      3.05962e+9 
           2755      3.03452e+9 
           2765        2.993e+9 
           2775      2.99559e+9 
           2785      2.94002e+9 
           2795       2.8394e+9 
           2805      2.87157e+9 
           2815      2.86547e+9 
           2825      2.83389e+9 
           2835      2.75567e+9 
           2845      2.77101e+9 
           2855      2.71632e+9 
           2865      2.70345e+9 
           2875      2.67041e+9 
           2885      2.64862e+9 
           2895      2.61085e+9 
           2910      2.54672e+9 
           2930       2.5233e+9 
           2950      2.45449e+9 
           2970      2.41279e+9 
           2990      2.35407e+9 
           3010       2.2648e+9 
           3030       2.2412e+9 
           3050      2.21717e+9 
           3070      2.18757e+9 
           3090      2.09401e+9 
           3110      2.09556e+9 
           3130       2.0366e+9 
           3150      2.00839e+9 
           3170      1.96153e+9 
           3190      1.92513e+9 
           3210      1.89189e+9 
           3230      1.84236e+9 
           3250      1.82185e+9 
           3270      1.77466e+9 
           3290      1.74326e+9 
           3310      1.70995e+9 
           3330      1.67079e+9 
           3350      1.64223e+9 
           3370      1.60754e+9 
           3390      1.58873e+9 
           3410      1.55968e+9 
           3430      1.53264e+9 
           3450      1.49758e+9 
           3470       1.4702e+9 
           3490      1.44115e+9 
           3510      1.41832e+9 
           3530      1.40075e+9 
           3550      1.37174e+9 
           3570      1.34752e+9 
           3590      1.31442e+9 
           3610      1.29348e+9 
           3630      1.27086e+9 
           3640      1.26468e+9 
           3650      1.23893e+9 
           3670      1.22345e+9 
           3690      1.19055e+9 
           3710      1.16248e+9 
           3730      1.14688e+9 
           3750      1.19313e+9 
           3770      1.17059e+9 
           3790      1.17529e+9 
           3810      1.19361e+9 
           3830      1.10564e+9 
           3850      1.16774e+9 
           3870      1.12856e+9 
           3890      1.06132e+9 
           3910      1.11941e+9 
           3930      1.08119e+9 
           3950      1.06819e+9 
           3970      9.81042e+8 
           3990      1.04246e+9 
           4010      1.02675e+9 
           4030      9.98788e+8 
           4050      9.93174e+8 
           4070      9.52461e+8 
           4090      9.21414e+8 
           4110      8.71923e+8 
           4130      9.12885e+8 
           4150      9.04676e+8 
           4170      8.99203e+8 
           4190      8.84738e+8 
           4210      8.75226e+8 
           4230      8.58526e+8 
           4250      8.36345e+8 
           4270       8.1609e+8 
           4290       8.0248e+8 
           4310      7.83652e+8 
           4330      7.63108e+8 
           4350      7.17125e+8 
           4370      7.51549e+8 
           4390      7.47239e+8 
           4410      7.34026e+8 
           4430      7.29294e+8 
           4450      7.14763e+8 
           4470      6.98464e+8 
           4490      6.96049e+8 
           4510      6.86759e+8 
           4530      6.78616e+8 
           4550      6.67513e+8 
           4570      6.57102e+8 
           4590      6.45505e+8 
           4610      6.33304e+8 
           4630       6.2512e+8 
           4650      5.99457e+8 
           4670      6.04594e+8 
           4690      5.99055e+8 
           4710      5.80698e+8 
           4730      5.84604e+8 
           4750      5.74048e+8 
           4770       5.7186e+8 
           4790      5.63056e+8 
           4810      5.52684e+8 
           4830      5.43207e+8 
           4850      5.31737e+8 
           4870      4.94864e+8 
           4890      5.22018e+8 
           4910      5.14368e+8 
           4930      5.02189e+8 
           4950      4.96709e+8 
           4970      4.95145e+8 
           4990       4.8781e+8 
           5010      4.71885e+8 
           5030      4.72697e+8 
           5050      4.64883e+8 
           5070      4.61237e+8 
           5090      4.53897e+8 
           5110      4.47422e+8 
           5130      4.40276e+8 
           5150      4.34718e+8 
           5170      4.28979e+8 
           5190      4.23973e+8 
           5210      4.18101e+8 
           5230      4.12843e+8 
           5250      4.07093e+8 
           5270      4.01039e+8 
           5290      3.96571e+8 
           5310      3.90984e+8 
           5330      3.86199e+8 
           5350      3.80961e+8 
           5370      3.76091e+8 
           5390      3.70296e+8 
           5410      3.65761e+8 
           5430      3.61449e+8 
           5450      3.56442e+8 
           5470      3.51851e+8 
           5490      3.47392e+8 
           5510      3.43225e+8 
           5530      3.38492e+8 
           5550      3.34589e+8 
           5570      3.30114e+8 
           5590      3.25779e+8 
           5610      3.21868e+8 
           5630      3.17981e+8 
           5650      3.13409e+8 
           5670       3.0853e+8 
           5690      3.02921e+8 
           5710      3.00156e+8 
           5730      2.96905e+8 
           5750      2.92051e+8 
           5770      2.89985e+8 
           5790      2.86255e+8 
           5810      2.82792e+8 
           5830      2.78904e+8 
           5850      2.76098e+8 
           5870      2.68053e+8 
           5890       2.6856e+8 
           5910      2.66033e+8 
           5930      2.62656e+8 
           5950      2.59531e+8 
           5970      2.57478e+8 
           5990      2.53578e+8 
           6010      2.51058e+8 
           6030      2.47686e+8 
           6050      2.44971e+8 
           6070      2.42336e+8 
           6090      2.39528e+8 
           6110      2.36651e+8 
           6130      2.33966e+8 
           6150      2.30575e+8 
           6170      2.28004e+8 
           6190      2.25726e+8 
           6210      2.23259e+8 
           6230      2.20663e+8 
           6250      2.17893e+8 
           6270      2.15499e+8 
           6290      2.13121e+8 
           6310      2.10429e+8 
           6330      2.08321e+8 
           6350      2.05619e+8 
           6370      2.03605e+8 
           6390      2.01244e+8 
           6410      1.98927e+8 
           6430      1.96826e+8 
           6450      1.94565e+8 
           6470      1.91798e+8 
           6490      1.89706e+8 
           6510      1.87786e+8 
           6530      1.85489e+8 
           6550      1.82637e+8 
           6570       1.6806e+8 
           6590      1.78813e+8 
           6610      1.77681e+8 
           6630      1.75917e+8 
           6650      1.73676e+8 
           6670      1.70925e+8 
           6690      1.69147e+8 
           6710      1.68308e+8 
           6730      1.65987e+8 
           6750      1.64822e+8 
           6770      1.63094e+8 
           6790      1.60639e+8 
           6810      1.59494e+8 
           6830        1.576e+8 
           6850      1.56167e+8 
           6870      1.54469e+8 
           6890      1.52534e+8 
           6910      1.50627e+8 
           6930      1.49704e+8 
           6950      1.48157e+8 
           6970      1.46602e+8 
           6990       1.4504e+8 
           7010      1.43493e+8 
           7030      1.41938e+8 
           7050      1.40512e+8 
           7070      1.37329e+8 
           7090      1.37672e+8 
           7110      1.35639e+8 
           7130       1.3439e+8 
           7150      1.33477e+8 
           7170      1.32074e+8 
           7190      1.30779e+8 
           7210      1.29446e+8 
           7230      1.26807e+8 
           7250      1.26438e+8 
           7270      1.25543e+8 
           7290       1.2348e+8 
           7310      1.22996e+8 
           7330      1.21751e+8 
           7350      1.20552e+8 
           7370      1.19385e+8 
           7390      1.18195e+8 
           7410      1.17023e+8 
           7430      1.15848e+8 
           7450       1.1469e+8 
           7470      1.12882e+8 
           7490      1.12334e+8 
           7510      1.11315e+8 
           7530       1.1016e+8 
           7550        1.092e+8 
           7570      1.08138e+8 
           7590      1.07019e+8 
           7610        1.058e+8 
           7630      1.04988e+8 
           7650       1.0395e+8 
           7670      1.03005e+8 
           7690      1.01967e+8 
           7710      1.00995e+8 
           7730      9.99372e+7 
           7750      9.91022e+7 
           7770      9.80373e+7 
           7790      9.72552e+7 
           7810      9.62945e+7 
           7830      9.54284e+7 
           7850      9.45576e+7 
           7870      9.34511e+7 
           7890      9.24817e+7 
           7910      9.18641e+7 
           7930       9.0958e+7 
           7950      9.01492e+7 
           7970      8.92466e+7 
           7990      8.84463e+7 
           8010         8.76e+7 
           8030      8.68137e+7 
           8050      8.60631e+7 
           8070      8.52842e+7 
           8090      8.44198e+7 
           8110      8.31218e+7 
           8130       8.2987e+7 
           8150      8.21264e+7 
           8170      8.15104e+7 
           8190      8.03321e+7 
           8210      7.96226e+7 
           8230       7.8869e+7 
           8250      7.84704e+7 
           8270      7.69897e+7 
           8290      7.69366e+7 
           8310       7.6343e+7 
           8330      7.56511e+7 
           8350       7.4711e+7 
           8370       7.4064e+7 
           8390      7.35615e+7 
           8410      7.28072e+7 
           8430      7.22183e+7 
           8450      7.12964e+7 
           8470      7.06031e+7 
           8490      7.05792e+7 
           8510      6.89889e+7 
           8530      6.95926e+7 
           8550      6.71545e+7 
           8570      6.89855e+7 
           8590      6.65561e+7 
