# Kurucz ODFNEW /NOVER (2003)
# teff = 35000 K (value for the effective temperature for the model. Temperatures are given in K)
# logg = 4.5 log(cm/s2) (value for Log(G) for the model.)
# meta = 0.5  (value for the Metallicity for the model.)
# lh = 1.25  (l/Hp where l is the  mixing length of the convective element and Hp is the pressure scale height)
# vtur = 2 km/s (Microturbulence velocity)
# alpha = 0.4  (Alpha)
#
# column 1: WAVELENGTH (ANGSTROM), Wavelength in Angstrom
# column 2: FLUX (ERG/CM2/S/A), Flux in erg/cm2/s/A
          147.2       6.5956e-5 
            151     0.000168133 
          155.2     0.000444405 
          158.8     0.000982957 
            162      0.00192499 
            166      0.00434806 
          170.3      0.00988025 
          173.4       0.0176427 
          176.8       0.0330603 
          180.2       0.0591186 
          181.7       0.0782468 
          186.1        0.159249 
            191        0.339502 
          193.9        0.519584 
          198.4         1.00062 
          201.8         1.58488 
            205         2.41134 
          210.5         4.82595 
          216.2         9.38712 
          219.8         14.3823 
            223         20.5255 
          226.8         35.1585 
            230         7069.12 
            234         14475.8 
            240         21620.7 
          246.5         33882.1 
          252.4         56011.7 
          256.8         79520.4 
            260          127603 
            264          217510 
          268.5          338398 
          273.5          445202 
          278.5          511892 
            284      1.09675e+6 
            290      1.53442e+6 
            296      1.90953e+6 
            301      3.56504e+6 
            308       8.0557e+6 
            318      1.62372e+7 
            328      2.24912e+7 
            338      4.07648e+7 
            348      6.09622e+7 
            357      1.22827e+8 
            366      2.89193e+8 
            375      3.21235e+8 
            385       4.7406e+8 
            395      1.28333e+9 
            405      1.80111e+9 
            414      2.53848e+9 
            422      2.87237e+9 
            430      2.83576e+9 
            441      3.33627e+9 
            451       3.4939e+9 
            460      3.00066e+9 
            470      3.55105e+9 
            480      4.17591e+9 
            490      3.35134e+9 
            500      4.60288e+9 
            506      3.97835e+9 
            512     2.43029e+10 
            520     2.23906e+10 
            530     2.06282e+10 
            540     1.92977e+10 
            550     1.86397e+10 
            560     2.71759e+10 
            570     3.37967e+10 
            580     3.15707e+10 
            590     3.21925e+10 
            600      1.8578e+10 
            610     2.54275e+10 
            620     3.52032e+10 
            630     3.34586e+10 
            640     3.49643e+10 
            650      3.1318e+10 
            658     1.90103e+10 
            665     2.94432e+10 
            675      3.7331e+10 
            685     2.54407e+10 
            695     3.64543e+10 
            705     2.23949e+10 
            716     3.98859e+10 
            726     3.90134e+10 
            735     3.88016e+10 
            745     3.20124e+10 
            755      3.2618e+10 
            765     3.33609e+10 
            775     3.61196e+10 
            785     3.34024e+10 
            795     3.65157e+10 
            805     3.31788e+10 
            815     3.27893e+10 
            825      3.6021e+10 
            835     2.47778e+10 
            845     3.34291e+10 
            855     3.21982e+10 
            865     3.39287e+10 
            875     3.38548e+10 
            885     3.40214e+10 
            895     3.37687e+10 
            905     3.22073e+10 
            915     2.99431e+10 
            925     6.31518e+10 
            935     9.41624e+10 
            945     1.13265e+11 
            955     1.25883e+11 
            965     1.39336e+11 
            975     6.42199e+10 
            985      1.0909e+11 
            995     9.50057e+10 
           1005     9.62949e+10 
           1015     1.05099e+11 
           1025     8.95114e+10 
           1035     1.04435e+11 
           1045     1.19674e+11 
           1055     1.12431e+11 
           1065     9.41437e+10 
           1075      9.8992e+10 
           1085     9.02986e+10 
           1095     9.69013e+10 
           1105     9.20454e+10 
           1115     9.03381e+10 
           1125     6.83821e+10 
           1135     8.53166e+10 
           1145     8.39479e+10 
           1155     7.56099e+10 
           1165     7.46089e+10 
           1175      5.0126e+10 
           1185     6.82753e+10 
           1195     6.45784e+10 
           1205     6.23461e+10 
           1215      5.1726e+10 
           1225     6.04524e+10 
           1235     6.43408e+10 
           1245        6.17e+10 
           1255     6.16343e+10 
           1265     6.33452e+10 
           1275     6.62835e+10 
           1285     6.62894e+10 
           1295     6.17742e+10 
           1305     6.11739e+10 
           1315     6.49245e+10 
           1325     6.28346e+10 
           1335     6.07299e+10 
           1345     5.97552e+10 
           1355     5.85646e+10 
           1365     5.59344e+10 
           1375     5.35078e+10 
           1385      5.1534e+10 
           1395     3.79009e+10 
           1405     3.93576e+10 
           1415     5.03617e+10 
           1425     4.45925e+10 
           1435     4.82322e+10 
           1442     4.67541e+10 
           1447     4.67194e+10 
           1455      4.4125e+10 
           1465     4.29525e+10 
           1475     4.37348e+10 
           1485     4.37149e+10 
           1495     4.21545e+10 
           1505     4.06714e+10 
           1512     4.03039e+10 
           1517     4.05887e+10 
           1525     3.88356e+10 
           1535     3.35331e+10 
           1545     2.65649e+10 
           1555     2.71358e+10 
           1565     3.16553e+10 
           1575     3.33306e+10 
           1585     3.30433e+10 
           1595     3.35233e+10 
           1605     3.16649e+10 
           1615     3.00289e+10 
           1625     3.08503e+10 
           1635     3.10871e+10 
           1645     3.12087e+10 
           1655     3.09028e+10 
           1665      2.9981e+10 
           1672     2.75946e+10 
           1677     3.31127e+10 
           1685     3.14071e+10 
           1695     3.03138e+10 
           1705     2.99009e+10 
           1715      2.8184e+10 
           1725     2.69201e+10 
           1735     2.80123e+10 
           1745     2.79161e+10 
           1755     2.74362e+10 
           1765     2.68795e+10 
           1775     2.57548e+10 
           1785     2.63172e+10 
           1795     2.55313e+10 
           1805     2.53383e+10 
           1815      2.4727e+10 
           1825     2.41559e+10 
           1835     2.41328e+10 
           1845      2.3168e+10 
           1855     2.35638e+10 
           1865     2.35565e+10 
           1875     2.26908e+10 
           1885     2.17446e+10 
           1895     2.15503e+10 
           1905     2.19257e+10 
           1915     2.13029e+10 
           1925     1.98764e+10 
           1935     2.11898e+10 
           1945     2.13001e+10 
           1955     1.92296e+10 
           1967     2.01486e+10 
           1976     2.04749e+10 
           1984     1.99282e+10 
           1995     1.94308e+10 
           2005     1.97697e+10 
           2015      1.9625e+10 
           2025     1.95024e+10 
           2035     1.87345e+10 
           2045     1.84094e+10 
           2055     1.43162e+10 
           2065     1.37317e+10 
           2074     1.42644e+10 
           2078     1.42182e+10 
           2085     1.51542e+10 
           2095     1.62218e+10 
           2105     1.67959e+10 
           2115     1.70366e+10 
           2125     1.65296e+10 
           2135     1.64991e+10 
           2145      1.6208e+10 
           2155     1.61569e+10 
           2165     1.52292e+10 
           2175     1.57457e+10 
           2185     1.51497e+10 
           2195     1.55828e+10 
           2205     1.53085e+10 
           2215     1.45494e+10 
           2225     1.48169e+10 
           2235     1.45903e+10 
           2245     1.43239e+10 
           2255     1.37756e+10 
           2265     1.39406e+10 
           2275     1.38496e+10 
           2285     1.32099e+10 
           2295     1.19291e+10 
           2305     1.26873e+10 
           2315     1.26082e+10 
           2325     1.26819e+10 
           2335     1.25113e+10 
           2345     1.22938e+10 
           2355      1.1958e+10 
           2365     1.17049e+10 
           2375     1.13748e+10 
           2385      1.0808e+10 
           2395     1.09688e+10 
           2405     1.10133e+10 
           2415     1.08402e+10 
           2425     1.08209e+10 
           2435     1.06324e+10 
           2445     1.05103e+10 
           2455      1.0338e+10 
           2465      1.0227e+10 
           2475     1.00842e+10 
           2485      9.51032e+9 
           2495      6.36837e+9 
           2505      8.85115e+9 
           2513      8.88139e+9 
           2518      9.00123e+9 
           2525      9.36856e+9 
           2535      9.35928e+9 
           2545      9.13174e+9 
           2555      9.05925e+9 
           2565       8.8977e+9 
           2575      8.85032e+9 
           2585      8.74815e+9 
           2595      8.51023e+9 
           2605      8.53773e+9 
           2615      8.30452e+9 
           2625       8.2955e+9 
           2635      8.22506e+9 
           2645      8.05797e+9 
           2655      8.00059e+9 
           2665      7.79957e+9 
           2675      7.53867e+9 
           2685      7.63521e+9 
           2695      7.48425e+9 
           2705      7.44807e+9 
           2715      7.32993e+9 
           2725      7.24325e+9 
           2735       7.0408e+9 
           2745      7.12859e+9 
           2755      7.00645e+9 
           2765      6.91299e+9 
           2775      6.88527e+9 
           2785      6.71206e+9 
           2795       6.4635e+9 
           2805      6.56306e+9 
           2815      6.53172e+9 
           2825      6.44874e+9 
           2835      6.32552e+9 
           2845      6.32162e+9 
           2855      6.20717e+9 
           2865      6.08818e+9 
           2875      6.01445e+9 
           2885      5.96695e+9 
           2895      5.88129e+9 
           2910      5.70826e+9 
           2930      5.67361e+9 
           2950      5.52248e+9 
           2970      5.37831e+9 
           2990      5.18777e+9 
           3010       5.0018e+9 
           3030      4.85843e+9 
           3050      4.83663e+9 
           3070      4.74584e+9 
           3090      4.60727e+9 
           3110      4.57898e+9 
           3130      4.43451e+9 
           3150      4.38027e+9 
           3170      4.26144e+9 
           3190      4.19485e+9 
           3210      4.04329e+9 
           3230      3.98507e+9 
           3250      3.93118e+9 
           3270      3.78565e+9 
           3290      3.74046e+9 
           3310      3.64588e+9 
           3330      3.55465e+9 
           3350      3.44956e+9 
           3370      3.39149e+9 
           3390      3.35749e+9 
           3410      3.28194e+9 
           3430      3.24602e+9 
           3450      3.13367e+9 
           3470      3.09699e+9 
           3490       3.0397e+9 
           3510      2.97913e+9 
           3530      2.92588e+9 
           3550      2.86108e+9 
           3570       2.8052e+9 
           3590      2.74436e+9 
           3610      2.68632e+9 
           3630      2.63381e+9 
           3640      2.58694e+9 
           3650      2.41511e+9 
           3670        2.377e+9 
           3690      2.32914e+9 
           3710      2.24287e+9 
           3730      2.23107e+9 
           3750      2.23163e+9 
           3770      2.19217e+9 
           3790      2.26592e+9 
           3810      2.29794e+9 
           3830      2.10725e+9 
           3850      2.27369e+9 
           3870      2.17882e+9 
           3890      1.97124e+9 
           3910      2.20975e+9 
           3930      2.13341e+9 
           3950      2.06236e+9 
           3970      1.80476e+9 
           3990      2.04027e+9 
           4010       2.0016e+9 
           4030      1.92657e+9 
           4050      1.93642e+9 
           4070      1.84306e+9 
           4090      1.73903e+9 
           4110      1.61956e+9 
           4130       1.7653e+9 
           4150      1.74344e+9 
           4170      1.74355e+9 
           4190      1.70643e+9 
           4210      1.66494e+9 
           4230      1.65488e+9 
           4250      1.60155e+9 
           4270      1.57094e+9 
           4290       1.5316e+9 
           4310      1.48862e+9 
           4330      1.41415e+9 
           4350        1.327e+9 
           4370      1.42997e+9 
           4390      1.40319e+9 
           4410      1.37885e+9 
           4430       1.3742e+9 
           4450      1.34578e+9 
           4470       1.3125e+9 
           4490      1.31189e+9 
           4510      1.27478e+9 
           4530       1.2659e+9 
           4550      1.23305e+9 
           4570      1.23247e+9 
           4590      1.20559e+9 
           4610      1.18219e+9 
           4630       1.1543e+9 
           4650      1.08843e+9 
           4670      1.12071e+9 
           4690      1.09684e+9 
           4710      1.08578e+9 
           4730      1.09955e+9 
           4750      1.07967e+9 
           4770      1.06911e+9 
           4790       1.0518e+9 
           4810      1.03113e+9 
           4830      1.01053e+9 
           4850      9.63409e+8 
           4870       8.7941e+8 
           4890      9.61734e+8 
           4910      9.49461e+8 
           4930      9.27777e+8 
           4950      9.18296e+8 
           4970      9.15861e+8 
           4990      9.02104e+8 
           5010       8.6811e+8 
           5030      8.65256e+8 
           5050      8.54856e+8 
           5070      8.49209e+8 
           5090       8.3538e+8 
           5110      8.22347e+8 
           5130      8.09505e+8 
           5150      7.98102e+8 
           5170      7.84991e+8 
           5190      7.75232e+8 
           5210      7.64684e+8 
           5230       7.5455e+8 
           5250      7.39859e+8 
           5270      7.27865e+8 
           5290      7.22776e+8 
           5310      7.11529e+8 
           5330      7.01943e+8 
           5350      6.92479e+8 
           5370      6.82484e+8 
           5390      6.71723e+8 
           5410      6.53044e+8 
           5430      6.54593e+8 
           5450      6.45231e+8 
           5470      6.35913e+8 
           5490      6.27339e+8 
           5510      6.17966e+8 
           5530      6.10067e+8 
           5550      6.02547e+8 
           5570       5.9365e+8 
           5590      5.82996e+8 
           5610      5.78403e+8 
           5630       5.7064e+8 
           5650      5.62666e+8 
           5670      5.54051e+8 
           5690      5.37131e+8 
           5710      5.18492e+8 
           5730      5.12458e+8 
           5750       5.0457e+8 
           5770      4.99856e+8 
           5790       4.9315e+8 
           5810      4.84805e+8 
           5830      4.79312e+8 
           5850      4.76282e+8 
           5870       4.6271e+8 
           5890       4.6547e+8 
           5910      4.61645e+8 
           5930      4.57412e+8 
           5950      4.53491e+8 
           5970      4.50774e+8 
           5990      4.46247e+8 
           6010      4.42572e+8 
           6030      4.36927e+8 
           6050      4.32396e+8 
           6070      4.27486e+8 
           6090       4.2255e+8 
           6110      4.16559e+8 
           6130      4.11629e+8 
           6150      4.05321e+8 
           6170      4.00322e+8 
           6190      3.96973e+8 
           6210      3.92466e+8 
           6230       3.8667e+8 
           6250      3.81672e+8 
           6270      3.77967e+8 
           6290      3.73386e+8 
           6310      3.67219e+8 
           6330      3.64592e+8 
           6350      3.59487e+8 
           6370      3.56063e+8 
           6390       3.5179e+8 
           6410      3.46572e+8 
           6430      3.43536e+8 
           6450      3.38973e+8 
           6470      3.34063e+8 
           6490      3.29888e+8 
           6510      3.24708e+8 
           6530      3.20531e+8 
           6550      3.12281e+8 
           6570      2.82672e+8 
           6590      3.09855e+8 
           6610      3.08181e+8 
           6630      3.05236e+8 
           6650      3.01409e+8 
           6670      2.94269e+8 
           6690      2.90139e+8 
           6710      2.90102e+8 
           6730      2.86343e+8 
           6750      2.84111e+8 
           6770      2.81555e+8 
           6790      2.77946e+8 
           6810      2.75439e+8 
           6830      2.72156e+8 
           6850      2.69132e+8 
           6870      2.65803e+8 
           6890      2.60826e+8 
           6910      2.58814e+8 
           6930      2.57683e+8 
           6950      2.54774e+8 
           6970      2.52019e+8 
           6990      2.49083e+8 
           7010      2.45755e+8 
           7030      2.42811e+8 
           7050      2.40284e+8 
           7070      2.35105e+8 
           7090      2.35879e+8 
           7110      2.32773e+8 
           7130      2.30409e+8 
           7150      2.28414e+8 
           7170      2.24811e+8 
           7190      2.22899e+8 
           7210      2.21172e+8 
           7230      2.17377e+8 
           7250      2.16007e+8 
           7270        2.142e+8 
           7290      2.10637e+8 
           7310      2.09338e+8 
           7330       2.0744e+8 
           7350      2.05253e+8 
           7370      2.03024e+8 
           7390      2.01064e+8 
           7410      1.98814e+8 
           7430      1.96899e+8 
           7450      1.94506e+8 
           7470      1.92048e+8 
           7490       1.8964e+8 
           7510      1.88665e+8 
           7530      1.86674e+8 
           7550      1.84973e+8 
           7570      1.82984e+8 
           7590      1.79458e+8 
           7610      1.78672e+8 
           7630      1.77283e+8 
           7650       1.7545e+8 
           7670      1.73979e+8 
           7690      1.71285e+8 
           7710      1.70074e+8 
           7730        1.676e+8 
           7750      1.66918e+8 
           7770      1.65536e+8 
           7790      1.63812e+8 
           7810      1.62288e+8 
           7830       1.6068e+8 
           7850      1.58615e+8 
           7870      1.56873e+8 
           7890      1.55522e+8 
           7910      1.54381e+8 
           7930      1.52915e+8 
           7950       1.5158e+8 
           7970      1.49776e+8 
           7990      1.48526e+8 
           8010      1.47139e+8 
           8030       1.4556e+8 
           8050      1.44396e+8 
           8070      1.42998e+8 
           8090      1.41555e+8 
           8110       1.3938e+8 
           8130      1.38952e+8 
           8150      1.37516e+8 
           8170      1.36178e+8 
           8190      1.34104e+8 
           8210      1.30841e+8 
           8230      1.28994e+8 
           8250      1.28474e+8 
           8270      1.26647e+8 
           8290       1.2619e+8 
           8310      1.25294e+8 
           8330       1.2364e+8 
           8350        1.222e+8 
           8370      1.21504e+8 
           8390      1.20829e+8 
           8410      1.19579e+8 
           8430      1.18694e+8 
           8450      1.17283e+8 
           8470      1.16609e+8 
           8490      1.15486e+8 
           8510      1.13908e+8 
           8530       1.1353e+8 
           8550      1.12304e+8 
           8570      1.11883e+8 
