# Kurucz ODFNEW /NOVER (2003)
# teff = 20000 K (value for the effective temperature for the model. Temperatures are given in K)
# logg = 4.5 log(cm/s2) (value for Log(G) for the model.)
# meta = 0  (value for the Metallicity for the model.)
# lh = 1.25  (l/Hp where l is the  mixing length of the convective element and Hp is the pressure scale height)
# vtur = 2 km/s (Microturbulence velocity)
# alpha = 0  (Alpha)
#
# column 1: WAVELENGTH (ANGSTROM), Wavelength in Angstrom
# column 2: FLUX (ERG/CM2/S/A), Flux in erg/cm2/s/A
          147.2     2.14394e-19 
            151     1.25933e-18 
          155.2     8.06494e-18 
          158.8     3.66221e-17 
            162     1.33047e-16 
            166     6.22842e-16 
          170.3     3.01648e-15 
          173.4     8.98185e-15 
          176.8     2.84274e-14 
          180.2     8.62258e-14 
          181.7     1.38825e-13 
          186.1      5.3825e-13 
            191     2.26537e-12 
          193.9     5.11919e-12 
          198.4     1.73326e-11 
          201.8     4.21215e-11 
            205     9.47359e-11 
          210.5     3.59851e-10 
          216.2      1.33871e-9 
          219.8      2.96669e-9 
            223      5.88719e-9 
          226.8      1.29729e-8 
            230      6.65202e-8 
            234      1.67126e-7 
            240      5.10789e-7 
          246.5      1.59527e-6 
          252.4      4.27883e-6 
          256.8      8.51017e-6 
            260      1.42327e-5 
            264      2.60326e-5 
          268.5      5.01418e-5 
          273.5      0.00010115 
          278.5     0.000199662 
            284     0.000410896 
            290     0.000870644 
            296      0.00178518 
            301      0.00318108 
            308      0.00684526 
            318       0.0198047 
            328       0.0524838 
            338        0.132922 
            348        0.316368 
            357        0.671645 
            366         1.36159 
            375         2.62715 
            385         5.28756 
            395         10.2249 
            405         19.1255 
            414         32.7701 
            422         51.5178 
            430          79.592 
            441         141.864 
            451         233.353 
            460         356.754 
            470         562.076 
            480         865.562 
            490         1310.82 
            500         1947.39 
            506         15640.9 
            512           78331 
            520         99990.7 
            530          140606 
            540          164839 
            550          243722 
            560          301323 
            570          392209 
            580          412107 
            590          569358 
            600          715053 
            610          896831 
            620      1.05472e+6 
            630      1.25918e+6 
            640      1.40013e+6 
            650      1.45119e+6 
            658      1.92679e+6 
            665      2.15172e+6 
            675      2.44298e+6 
            685        2.781e+6 
            695      3.36161e+6 
            705       3.7781e+6 
            716      4.37152e+6 
            726      4.88698e+6 
            735      5.40591e+6 
            745       6.2277e+6 
            755      7.01016e+6 
            765      7.85485e+6 
            775      8.79689e+6 
            785      9.79995e+6 
            795      1.06732e+7 
            805      1.17125e+7 
            815       1.2737e+7 
            825      1.41647e+7 
            835      1.48838e+7 
            845      1.64051e+7 
            855      1.78046e+7 
            865      1.94743e+7 
            875      2.13193e+7 
            885      2.33904e+7 
            895      2.51996e+7 
            905      2.60957e+7 
            915      4.08432e+7 
            925      1.62206e+8 
            935      4.37652e+8 
            945      1.62732e+9 
            955      3.73757e+9 
            965      5.24057e+9 
            975      9.10254e+8 
            985      7.16707e+9 
            995      7.19573e+9 
           1005      8.67351e+9 
           1015      7.10839e+9 
           1025      1.17642e+9 
           1035      4.46705e+9 
           1045     1.04167e+10 
           1055     1.02605e+10 
           1065      8.10073e+9 
           1075      9.91713e+9 
           1085      8.72008e+9 
           1095      9.97731e+9 
           1105      8.70563e+9 
           1115      8.24988e+9 
           1125      7.59635e+9 
           1135      9.49233e+9 
           1145      8.13387e+9 
           1155      8.73945e+9 
           1165      9.05749e+9 
           1175       6.5483e+9 
           1185      8.99579e+9 
           1195      6.33596e+9 
           1205      3.57679e+9 
           1215      1.15742e+9 
           1225      4.38255e+9 
           1235      7.98153e+9 
           1245      8.52197e+9 
           1255      8.33097e+9 
           1265      7.69315e+9 
           1275      8.28417e+9 
           1285      8.50594e+9 
           1295      5.68096e+9 
           1305      5.29825e+9 
           1315      7.96279e+9 
           1325      7.44886e+9 
           1335      6.63717e+9 
           1345      7.52116e+9 
           1355      7.27903e+9 
           1365      6.51867e+9 
           1375      6.56847e+9 
           1385      6.64934e+9 
           1395      5.75947e+9 
           1405      6.04191e+9 
           1415      5.95681e+9 
           1425      6.07461e+9 
           1435      6.06946e+9 
           1442      6.30689e+9 
           1447      6.20419e+9 
           1455      6.04824e+9 
           1465      5.63367e+9 
           1475       5.6036e+9 
           1485      5.45698e+9 
           1495      5.45839e+9 
           1505      5.02966e+9 
           1512      4.54173e+9 
           1517      4.76116e+9 
           1525      4.85972e+9 
           1535      4.33885e+9 
           1545      4.44195e+9 
           1555      4.20879e+9 
           1565      4.30453e+9 
           1575      4.53389e+9 
           1585      4.54104e+9 
           1595      4.57387e+9 
           1605      4.49863e+9 
           1615      4.47804e+9 
           1625      4.29926e+9 
           1635      4.48458e+9 
           1645      4.44665e+9 
           1655      4.18511e+9 
           1665      4.48003e+9 
           1672      4.28937e+9 
           1677       4.3923e+9 
           1685      4.43176e+9 
           1695       4.1988e+9 
           1705      3.99198e+9 
           1715      3.77162e+9 
           1725      3.71535e+9 
           1735      3.88691e+9 
           1745      3.73856e+9 
           1755      3.85313e+9 
           1765      3.58562e+9 
           1775      3.58527e+9 
           1785      3.61285e+9 
           1795      3.74201e+9 
           1805      3.73258e+9 
           1815      3.39251e+9 
           1825      3.51503e+9 
           1835       3.3504e+9 
           1845      3.09328e+9 
           1855      3.00505e+9 
           1865      3.05881e+9 
           1875      3.29159e+9 
           1885      2.96689e+9 
           1895      2.78396e+9 
           1905      3.00032e+9 
           1915      2.81775e+9 
           1925      2.73406e+9 
           1935       2.8409e+9 
           1945      2.88346e+9 
           1955       2.6573e+9 
           1967      2.86508e+9 
           1976       2.9666e+9 
           1984       2.7515e+9 
           1995      2.68167e+9 
           2005      2.75732e+9 
           2015      2.66377e+9 
           2025      2.80878e+9 
           2035      2.58929e+9 
           2045      2.62169e+9 
           2055      2.52638e+9 
           2065       2.5624e+9 
           2074      2.65617e+9 
           2078      2.46536e+9 
           2085      2.55698e+9 
           2095      2.41289e+9 
           2105      2.46713e+9 
           2115      2.45826e+9 
           2125      2.49441e+9 
           2135      2.41052e+9 
           2145      2.33455e+9 
           2155      2.40825e+9 
           2165      2.36323e+9 
           2175      2.33247e+9 
           2185      2.26887e+9 
           2195      2.30329e+9 
           2205      2.25138e+9 
           2215      2.20038e+9 
           2225      2.12502e+9 
           2235      2.16774e+9 
           2245      2.14144e+9 
           2255      2.06278e+9 
           2265       2.0999e+9 
           2275      2.08847e+9 
           2285      2.09245e+9 
           2295      2.00387e+9 
           2305      1.99595e+9 
           2315       1.9358e+9 
           2325      1.91256e+9 
           2335      1.83693e+9 
           2345      1.80965e+9 
           2355      1.82902e+9 
           2365       1.7756e+9 
           2375      1.77711e+9 
           2385      1.72614e+9 
           2395       1.7664e+9 
           2405      1.70107e+9 
           2415       1.7062e+9 
           2425       1.7165e+9 
           2435      1.64957e+9 
           2445      1.67423e+9 
           2455      1.66337e+9 
           2465      1.62981e+9 
           2475      1.60031e+9 
           2485      1.62162e+9 
           2495      1.56283e+9 
           2505      1.59535e+9 
           2513      1.51905e+9 
           2518       1.5662e+9 
           2525      1.51321e+9 
           2535      1.49596e+9 
           2545      1.46172e+9 
           2555      1.49445e+9 
           2565      1.47228e+9 
           2575      1.49047e+9 
           2585      1.48437e+9 
           2595      1.47178e+9 
           2605       1.4479e+9 
           2615      1.43574e+9 
           2625      1.42264e+9 
           2635      1.41463e+9 
           2645      1.42969e+9 
           2655      1.41702e+9 
           2665      1.37267e+9 
           2675      1.38154e+9 
           2685      1.36985e+9 
           2695      1.33662e+9 
           2705      1.33345e+9 
           2715      1.31123e+9 
           2725      1.29051e+9 
           2735      1.30295e+9 
           2745      1.24488e+9 
           2755      1.24152e+9 
           2765       1.2393e+9 
           2775      1.25265e+9 
           2785      1.23701e+9 
           2795      1.18502e+9 
           2805      1.20699e+9 
           2815      1.21003e+9 
           2825      1.18703e+9 
           2835      1.14431e+9 
           2845      1.14769e+9 
           2855      1.14641e+9 
           2865      1.15246e+9 
           2875      1.13357e+9 
           2885       1.1259e+9 
           2895      1.11643e+9 
           2910      1.10388e+9 
           2930      1.07732e+9 
           2950      1.04995e+9 
           2970      1.04038e+9 
           2990      1.01648e+9 
           3010      1.00161e+9 
           3030      9.89372e+8 
           3050       9.6919e+8 
           3070      9.50927e+8 
           3090      9.31674e+8 
           3110      9.14938e+8 
           3130      9.00476e+8 
           3150      8.83914e+8 
           3170      8.65898e+8 
           3190      8.41672e+8 
           3210      8.35312e+8 
           3230      8.21352e+8 
           3250      8.07387e+8 
           3270      7.94018e+8 
           3290      7.79521e+8 
           3310      7.67619e+8 
           3330      7.53737e+8 
           3350      7.39125e+8 
           3370      7.27525e+8 
           3390      7.15491e+8 
           3410      7.03689e+8 
           3430      6.89262e+8 
           3450      6.75723e+8 
           3470      6.65735e+8 
           3490      6.54663e+8 
           3510      6.44838e+8 
           3530      6.35587e+8 
           3550      6.25307e+8 
           3570      6.17847e+8 
           3590      6.03148e+8 
           3610      5.94605e+8 
           3630       5.8484e+8 
           3640      5.83849e+8 
           3650       5.7596e+8 
           3670      5.69308e+8 
           3690      5.58754e+8 
           3710      5.39636e+8 
           3730      5.16128e+8 
           3750      5.41285e+8 
           3770      5.43827e+8 
           3790       5.8796e+8 
           3810      6.23328e+8 
           3830      5.31981e+8 
           3850      6.50753e+8 
           3870      6.70732e+8 
           3890      4.97921e+8 
           3910      6.67724e+8 
           3930      6.58165e+8 
           3950      6.47364e+8 
           3970      4.65411e+8 
           3990      6.17009e+8 
           4010      6.27082e+8 
           4030      5.82367e+8 
           4050      6.15537e+8 
           4070      5.94834e+8 
           4090      5.27841e+8 
           4110      4.49744e+8 
           4130      5.55611e+8 
           4150      5.57422e+8 
           4170      5.55229e+8 
           4190      5.50671e+8 
           4210      5.43666e+8 
           4230       5.3361e+8 
           4250      5.23531e+8 
           4270      5.07543e+8 
           4290      5.05135e+8 
           4310      4.90946e+8 
           4330      4.24413e+8 
           4350      3.82593e+8 
           4370      4.64478e+8 
           4390      4.50189e+8 
           4410      4.59384e+8 
           4430      4.51233e+8 
           4450      4.47738e+8 
           4470      4.15873e+8 
           4490      4.29966e+8 
           4510      4.28699e+8 
           4530      4.20626e+8 
           4550      4.14753e+8 
           4570      4.08912e+8 
           4590      4.02853e+8 
           4610      3.95943e+8 
           4630      3.89033e+8 
           4650      3.82941e+8 
           4670      3.78908e+8 
           4690      3.74296e+8 
           4710      3.60561e+8 
           4730      3.60196e+8 
           4750      3.54814e+8 
           4770      3.53286e+8 
           4790      3.46992e+8 
           4810      3.39407e+8 
           4830      3.31434e+8 
           4850      2.94337e+8 
           4870      2.58726e+8 
           4890      3.15883e+8 
           4910      3.16018e+8 
           4930      3.03291e+8 
           4950      3.09486e+8 
           4970      3.05948e+8 
           4990      3.01201e+8 
           5010      2.89705e+8 
           5030      2.91933e+8 
           5050      2.83745e+8 
           5070      2.84853e+8 
           5090      2.80757e+8 
           5110      2.76313e+8 
           5130      2.71672e+8 
           5150      2.67805e+8 
           5170      2.65779e+8 
           5190      2.62224e+8 
           5210      2.56482e+8 
           5230      2.55212e+8 
           5250      2.51946e+8 
           5270      2.48301e+8 
           5290      2.45619e+8 
           5310      2.42169e+8 
           5330      2.38724e+8 
           5350      2.34981e+8 
           5370      2.32973e+8 
           5390      2.29899e+8 
           5410      2.26747e+8 
           5430      2.23176e+8 
           5450      2.20628e+8 
           5470      2.17671e+8 
           5490        2.154e+8 
           5510      2.12524e+8 
           5530      2.09844e+8 
           5550      2.07368e+8 
           5570      2.04631e+8 
           5590       2.0218e+8 
           5610      1.99389e+8 
           5630      1.97357e+8 
           5650      1.93342e+8 
           5670      1.91113e+8 
           5690       1.8926e+8 
           5710      1.87509e+8 
           5730      1.85273e+8 
           5750      1.82949e+8 
           5770      1.80891e+8 
           5790      1.78632e+8 
           5810      1.76411e+8 
           5830      1.74228e+8 
           5850      1.72191e+8 
           5870      1.64285e+8 
           5890      1.66809e+8 
           5910       1.6594e+8 
           5930       1.6403e+8 
           5950      1.61588e+8 
           5970      1.60233e+8 
           5990      1.58052e+8 
           6010      1.56553e+8 
           6030      1.54636e+8 
           6050      1.52874e+8 
           6070      1.51091e+8 
           6090      1.49247e+8 
           6110      1.47636e+8 
           6130      1.45942e+8 
           6150       1.4367e+8 
           6170      1.42502e+8 
           6190      1.40954e+8 
           6210      1.39334e+8 
           6230      1.37693e+8 
           6250       1.3584e+8 
           6270      1.34562e+8 
           6290      1.33051e+8 
           6310      1.31405e+8 
           6330      1.30115e+8 
           6350      1.27923e+8 
           6370      1.26768e+8 
           6390      1.25708e+8 
           6410      1.24265e+8 
           6430      1.23074e+8 
           6450      1.21624e+8 
           6470      1.20162e+8 
           6490      1.18814e+8 
           6510      1.17179e+8 
           6530      1.15128e+8 
           6550      1.07515e+8 
           6570      9.39011e+7 
           6590      1.09649e+8 
           6610      1.10823e+8 
           6630      1.10044e+8 
           6650      1.09111e+8 
           6670      1.06721e+8 
           6690      1.05663e+8 
           6710      1.05679e+8 
           6730      1.04544e+8 
           6750      1.03496e+8 
           6770      1.02408e+8 
           6790      1.00956e+8 
           6810      1.00185e+8 
           6830       9.9131e+7 
           6850      9.81596e+7 
           6870      9.71499e+7 
           6890      9.61344e+7 
           6910      9.51368e+7 
           6930      9.40551e+7 
           6950      9.31948e+7 
           6970      9.22574e+7 
           6990      9.12908e+7 
           7010      9.03413e+7 
           7030       8.9424e+7 
           7050      8.84246e+7 
           7070      8.61991e+7 
           7090      8.67627e+7 
           7110      8.58058e+7 
           7130      8.49694e+7 
           7150      8.41262e+7 
           7170      8.32985e+7 
           7190      8.24932e+7 
           7210      8.16738e+7 
           7230      8.00407e+7 
           7250      8.00082e+7 
           7270      7.92692e+7 
           7290      7.78991e+7 
           7310      7.77061e+7 
           7330      7.69531e+7 
           7350      7.62071e+7 
           7370      7.54681e+7 
           7390       7.4729e+7 
           7410      7.40037e+7 
           7430      7.32237e+7 
           7450      7.25596e+7 
           7470      7.18002e+7 
           7490      7.11487e+7 
           7510       7.0463e+7 
           7530      6.98101e+7 
           7550      6.91632e+7 
           7570      6.85089e+7 
           7590      6.78475e+7 
           7610      6.72182e+7 
           7630      6.65815e+7 
           7650       6.5957e+7 
           7670      6.53381e+7 
           7690      6.47248e+7 
           7710      6.41169e+7 
           7730      6.35144e+7 
           7750      6.29236e+7 
           7770      6.18993e+7 
           7790      6.17644e+7 
           7810      6.11724e+7 
           7830      6.06348e+7 
           7850      5.99778e+7 
           7870      5.94434e+7 
           7890      5.87981e+7 
           7910      5.84602e+7 
           7930      5.79482e+7 
           7950      5.72797e+7 
           7970      5.68556e+7 
           7990      5.61812e+7 
           8010      5.58493e+7 
           8030      5.53156e+7 
           8050      5.48109e+7 
           8070      5.43382e+7 
           8090      5.37838e+7 
           8110      5.33304e+7 
           8130      5.28825e+7 
           8150      5.23783e+7 
           8170      5.19748e+7 
           8190       5.1436e+7 
           8210      5.08492e+7 
           8230      5.04294e+7 
           8250      5.01415e+7 
           8270      4.95197e+7 
           8290      4.92405e+7 
           8310      4.88341e+7 
           8330      4.84099e+7 
           8350      4.78097e+7 
           8370      4.75003e+7 
           8390      4.71869e+7 
           8410      4.67662e+7 
           8430       4.6314e+7 
           8450      4.55025e+7 
           8470      4.54616e+7 
           8490      4.49974e+7 
           8510      4.45224e+7 
           8530       4.4276e+7 
           8550      4.32807e+7 
           8570       4.3934e+7 
           8590      4.22383e+7 
