# Kurucz ODFNEW /NOVER (2003)
# teff = 28000 K (value for the effective temperature for the model. Temperatures are given in K)
# logg = 4 log(cm/s2) (value for Log(G) for the model.)
# meta = -1.5  (value for the Metallicity for the model.)
# lh = 1.25  (l/Hp where l is the  mixing length of the convective element and Hp is the pressure scale height)
# vtur = 2 km/s (Microturbulence velocity)
# alpha = 0.4  (Alpha)
#
# column 1: WAVELENGTH (ANGSTROM), Wavelength in Angstrom
# column 2: FLUX (ERG/CM2/S/A), Flux in erg/cm2/s/A
          147.2     5.43643e-11 
            151     2.06069e-10 
          155.2     8.32535e-10 
          158.8      2.59764e-9 
            162      6.84555e-9 
            166      2.17909e-8 
          170.3      7.11305e-8 
          173.4      1.60865e-7 
          176.8       3.8068e-7 
          180.2      8.71366e-7 
          181.7       1.2431e-6 
          186.1      3.41059e-6 
            191      9.92378e-6 
          193.9      1.81956e-5 
          198.4      4.49825e-5 
          201.8      8.67186e-5 
            205     0.000157639 
          210.5     0.000422052 
          216.2      0.00110942 
          219.8      0.00198938 
            223       0.0032901 
          226.8      0.00587268 
            230          1.3115 
            234         3.21544 
            240         6.51605 
          246.5         13.6593 
          252.4         26.0777 
          256.8         36.1755 
            260         56.3367 
            264         79.7123 
          268.5         123.488 
          273.5         192.992 
          278.5         294.084 
            284         482.449 
            290         767.749 
            296          1197.4 
            301          1665.7 
            308         2528.58 
            318         5503.19 
            328         9886.77 
            338         17966.6 
            348         30660.9 
            357         54400.8 
            366         86645.3 
            375          125743 
            385          194773 
            395          291870 
            405          421069 
            414          586164 
            422          750438 
            430          973160 
            441      1.36143e+6 
            451      1.83439e+6 
            460      2.32251e+6 
            470      3.03959e+6 
            480      3.88715e+6 
            490      4.93843e+6 
            500      6.24934e+6 
            506      3.89507e+7 
            512      1.37175e+8 
            520      1.44784e+8 
            530      1.62963e+8 
            540      1.59128e+8 
            550      1.97381e+8 
            560        2.171e+8 
            570      2.40509e+8 
            580      2.31816e+8 
            590      2.74836e+8 
            600      2.93095e+8 
            610      3.20954e+8 
            620      3.44829e+8 
            630      3.70066e+8 
            640      3.77723e+8 
            650      4.10622e+8 
            658      4.33788e+8 
            665      4.55568e+8 
            675      4.68405e+8 
            685      4.83532e+8 
            695       5.4566e+8 
            705      5.53075e+8 
            716       6.0603e+8 
            726       6.2641e+8 
            735      6.57398e+8 
            745      7.00889e+8 
            755      7.31087e+8 
            765      7.65915e+8 
            775      8.04986e+8 
            785      8.47637e+8 
            795      8.73835e+8 
            805      9.08185e+8 
            815       9.3294e+8 
            825      9.81143e+8 
            835      9.55352e+8 
            845      1.03697e+9 
            855      1.06903e+9 
            865      1.11152e+9 
            875       1.1551e+9 
            885      1.19918e+9 
            895      1.23687e+9 
            905      1.25697e+9 
            915      1.72151e+9 
            925     1.16516e+10 
            935      2.3908e+10 
            945     4.35273e+10 
            955     4.94113e+10 
            965     5.89838e+10 
            975     2.84767e+10 
            985     5.66128e+10 
            995     5.26533e+10 
           1005     5.44342e+10 
           1015     5.29244e+10 
           1025     3.07877e+10 
           1035     4.89223e+10 
           1045     5.49488e+10 
           1055     5.30253e+10 
           1065     4.80118e+10 
           1075     4.94504e+10 
           1085     4.59061e+10 
           1095     4.86785e+10 
           1105      4.6413e+10 
           1115     4.54993e+10 
           1125     4.13632e+10 
           1135     4.42053e+10 
           1145     4.12642e+10 
           1155     4.17332e+10 
           1165     4.12557e+10 
           1175     3.41441e+10 
           1185     3.88044e+10 
           1195     3.70734e+10 
           1205     3.32564e+10 
           1215     2.05968e+10 
           1225     3.43585e+10 
           1235     3.55679e+10 
           1245     3.45443e+10 
           1255     3.42161e+10 
           1265      3.3576e+10 
           1275     3.33179e+10 
           1285     3.26348e+10 
           1295     2.95785e+10 
           1305     2.99676e+10 
           1315      3.0642e+10 
           1325     2.95847e+10 
           1335     2.86063e+10 
           1345     2.83553e+10 
           1355     2.82707e+10 
           1365     2.71301e+10 
           1375     2.67489e+10 
           1385     2.63385e+10 
           1395     2.32752e+10 
           1405     2.34928e+10 
           1415     2.45355e+10 
           1425     2.37563e+10 
           1435      2.3688e+10 
           1442     2.36542e+10 
           1447     2.33381e+10 
           1455     2.28509e+10 
           1465     2.23363e+10 
           1475     2.19375e+10 
           1485     2.15816e+10 
           1495     2.10713e+10 
           1505      2.0275e+10 
           1512     2.00218e+10 
           1517     1.99293e+10 
           1525     1.95847e+10 
           1535     1.83774e+10 
           1545     1.79998e+10 
           1555     1.74621e+10 
           1565     1.76765e+10 
           1575     1.77109e+10 
           1585     1.74702e+10 
           1595     1.72429e+10 
           1605     1.65125e+10 
           1615     1.61252e+10 
           1625     1.60229e+10 
           1635     1.59163e+10 
           1645     1.53252e+10 
           1655     1.55271e+10 
           1665     1.52351e+10 
           1672     1.49461e+10 
           1677     1.52683e+10 
           1685     1.49459e+10 
           1695     1.45878e+10 
           1705     1.42306e+10 
           1715     1.38282e+10 
           1725     1.35771e+10 
           1735     1.35788e+10 
           1745     1.33271e+10 
           1755     1.31536e+10 
           1765     1.27958e+10 
           1775     1.25743e+10 
           1785     1.24433e+10 
           1795     1.23331e+10 
           1805     1.22153e+10 
           1815     1.18638e+10 
           1825     1.17239e+10 
           1835      1.1545e+10 
           1845     1.09758e+10 
           1855     1.07918e+10 
           1865     1.07856e+10 
           1875     1.07405e+10 
           1885     1.02042e+10 
           1895      9.82994e+9 
           1905      1.0052e+10 
           1915      9.69595e+9 
           1925      9.44471e+9 
           1935       9.5528e+9 
           1945      9.55221e+9 
           1955      9.03189e+9 
           1967      9.17187e+9 
           1976      9.24395e+9 
           1984      8.90444e+9 
           1995      8.63216e+9 
           2005      8.70305e+9 
           2015      8.67088e+9 
           2025       8.6144e+9 
           2035      8.33481e+9 
           2045      8.21566e+9 
           2055      7.64971e+9 
           2065      7.52465e+9 
           2074      7.65996e+9 
           2078      7.48916e+9 
           2085      7.56566e+9 
           2095      7.50613e+9 
           2105       7.5626e+9 
           2115      7.51189e+9 
           2125      7.44545e+9 
           2135      7.32784e+9 
           2145      7.17911e+9 
           2155      7.12756e+9 
           2165      7.01558e+9 
           2175        6.927e+9 
           2185      6.81892e+9 
           2195      6.75685e+9 
           2205      6.65921e+9 
           2215      6.54608e+9 
           2225      6.46432e+9 
           2235      6.36474e+9 
           2245      6.29314e+9 
           2255      6.17685e+9 
           2265      6.11839e+9 
           2275      6.03517e+9 
           2285      5.94725e+9 
           2295      5.74912e+9 
           2305      5.76649e+9 
           2315      5.69914e+9 
           2325      5.62387e+9 
           2335      5.53677e+9 
           2345      5.47779e+9 
           2355      5.40542e+9 
           2365      5.33347e+9 
           2375       5.2566e+9 
           2385      5.16943e+9 
           2395      5.11269e+9 
           2405       5.0513e+9 
           2415      4.97881e+9 
           2425      4.92009e+9 
           2435      4.84507e+9 
           2445      4.78787e+9 
           2455      4.72863e+9 
           2465      4.66858e+9 
           2475      4.60529e+9 
           2485       4.5456e+9 
           2495      4.23509e+9 
           2505      4.42228e+9 
           2513      4.32359e+9 
           2518      4.33543e+9 
           2525      4.31716e+9 
           2535      4.26447e+9 
           2545      4.17367e+9 
           2555       4.1428e+9 
           2565      4.09899e+9 
           2575      4.05295e+9 
           2585      4.00271e+9 
           2595      3.95313e+9 
           2605      3.92494e+9 
           2615      3.87521e+9 
           2625      3.82764e+9 
           2635      3.77564e+9 
           2645      3.72819e+9 
           2655      3.67862e+9 
           2665      3.62465e+9 
           2675       3.5798e+9 
           2685      3.55684e+9 
           2695      3.48532e+9 
           2705      3.46665e+9 
           2715      3.42685e+9 
           2725      3.36258e+9 
           2735      3.33632e+9 
           2745      3.30466e+9 
           2755      3.26657e+9 
           2765      3.20376e+9 
           2775      3.19265e+9 
           2785      3.15315e+9 
           2795      3.07999e+9 
           2805      3.06827e+9 
           2815      3.04589e+9 
           2825      2.98377e+9 
           2835      2.95253e+9 
           2845      2.94168e+9 
           2855      2.90517e+9 
           2865      2.87267e+9 
           2875      2.84027e+9 
           2885      2.80917e+9 
           2895      2.77662e+9 
           2910      2.72765e+9 
           2930      2.66777e+9 
           2950      2.59111e+9 
           2970      2.55091e+9 
           2990      2.49418e+9 
           3010      2.43653e+9 
           3030      2.38617e+9 
           3050      2.33595e+9 
           3070       2.2869e+9 
           3090      2.22678e+9 
           3110      2.18962e+9 
           3130      2.14312e+9 
           3150      2.09845e+9 
           3170      2.05451e+9 
           3190      1.99728e+9 
           3210      1.96893e+9 
           3230      1.92848e+9 
           3250      1.88991e+9 
           3270      1.85308e+9 
           3290      1.81319e+9 
           3310      1.77958e+9 
           3330      1.74339e+9 
           3350      1.70625e+9 
           3370      1.67495e+9 
           3390      1.64275e+9 
           3410      1.61077e+9 
           3430      1.57254e+9 
           3450       1.5367e+9 
           3470      1.51097e+9 
           3490       1.4817e+9 
           3510      1.45777e+9 
           3530      1.43298e+9 
           3550      1.40594e+9 
           3570      1.38633e+9 
           3590      1.35149e+9 
           3610      1.32993e+9 
           3630      1.30214e+9 
           3640      1.29903e+9 
           3650      1.27227e+9 
           3670      1.25475e+9 
           3690      1.22768e+9 
           3710      1.18599e+9 
           3730      1.14081e+9 
           3750      1.18102e+9 
           3770      1.17266e+9 
           3790      1.21576e+9 
           3810      1.25491e+9 
           3830      1.11373e+9 
           3850      1.26943e+9 
           3870      1.26502e+9 
           3890      1.05562e+9 
           3910      1.23843e+9 
           3930       1.2142e+9 
           3950       1.1946e+9 
           3970      9.78222e+8 
           3990      1.14949e+9 
           4010      1.13538e+9 
           4030      1.08093e+9 
           4050      1.10641e+9 
           4070      1.07586e+9 
           4090        1.011e+9 
           4110      9.00916e+8 
           4130      1.01479e+9 
           4150      1.00394e+9 
           4170      9.94334e+8 
           4190      9.77997e+8 
           4210      9.62946e+8 
           4230      9.46808e+8 
           4250      9.28866e+8 
           4270      9.10288e+8 
           4290       8.9701e+8 
           4310      8.78057e+8 
           4330      8.13944e+8 
           4350      7.47108e+8 
           4370      8.34818e+8 
           4390       8.0903e+8 
           4410      8.11045e+8 
           4430      7.98248e+8 
           4450       7.8736e+8 
           4470      7.48466e+8 
           4490      7.61733e+8 
           4510      7.50881e+8 
           4530      7.38978e+8 
           4550      7.25945e+8 
           4570      7.14301e+8 
           4590      7.02976e+8 
           4610      6.92529e+8 
           4630       6.8206e+8 
           4650      6.65751e+8 
           4670      6.59906e+8 
           4690      6.49134e+8 
           4710      6.31933e+8 
           4730      6.31382e+8 
           4750      6.21334e+8 
           4770       6.1279e+8 
           4790      6.03464e+8 
           4810       5.9388e+8 
           4830      5.82125e+8 
           4850      5.47721e+8 
           4870      4.94895e+8 
           4890      5.55954e+8 
           4910      5.50356e+8 
           4930      5.32011e+8 
           4950      5.34409e+8 
           4970      5.27478e+8 
           4990      5.19748e+8 
           5010      5.06226e+8 
           5030      5.04725e+8 
           5050      4.94871e+8 
           5070      4.90388e+8 
           5090      4.83299e+8 
           5110      4.76407e+8 
           5130      4.69579e+8 
           5150      4.62913e+8 
           5170      4.56379e+8 
           5190      4.50057e+8 
           5210      4.43694e+8 
           5230       4.3758e+8 
           5250      4.31491e+8 
           5270      4.25496e+8 
           5290      4.19619e+8 
           5310      4.13832e+8 
           5330      4.08172e+8 
           5350       4.0256e+8 
           5370      3.97124e+8 
           5390      3.91667e+8 
           5410      3.86227e+8 
           5430       3.8119e+8 
           5450      3.76038e+8 
           5470      3.71014e+8 
           5490      3.66079e+8 
           5510      3.61217e+8 
           5530      3.56416e+8 
           5550      3.51724e+8 
           5570      3.47078e+8 
           5590      3.42525e+8 
           5610      3.38028e+8 
           5630      3.33646e+8 
           5650      3.29258e+8 
           5670      3.24901e+8 
           5690      3.20549e+8 
           5710      3.16632e+8 
           5730      3.12613e+8 
           5750      3.08391e+8 
           5770      3.04707e+8 
           5790      3.00819e+8 
           5810      2.97021e+8 
           5830      2.93236e+8 
           5850      2.89572e+8 
           5870       2.7844e+8 
           5890      2.82003e+8 
           5910      2.78814e+8 
           5930      2.75319e+8 
           5950      2.71896e+8 
           5970      2.68619e+8 
           5990      2.65274e+8 
           6010      2.62041e+8 
           6030      2.58824e+8 
           6050      2.55685e+8 
           6070      2.52582e+8 
           6090      2.49524e+8 
           6110       2.4651e+8 
           6130      2.43541e+8 
           6150      2.40565e+8 
           6170      2.37712e+8 
           6190       2.3489e+8 
           6210       2.3209e+8 
           6230       2.2934e+8 
           6250      2.26621e+8 
           6270      2.23951e+8 
           6290       2.2131e+8 
           6310      2.18708e+8 
           6330      2.16162e+8 
           6350      2.13607e+8 
           6370      2.11144e+8 
           6390      2.08699e+8 
           6410       2.0628e+8 
           6430      2.03915e+8 
           6450      2.01574e+8 
           6470      1.99223e+8 
           6490      1.96951e+8 
           6510       1.9472e+8 
           6530      1.91957e+8 
           6550      1.85254e+8 
           6570      1.66402e+8 
           6590      1.84686e+8 
           6610      1.83855e+8 
           6630      1.81924e+8 
           6650      1.79954e+8 
           6670      1.76421e+8 
           6690      1.74492e+8 
           6710      1.74048e+8 
           6730      1.72075e+8 
           6750      1.70238e+8 
           6770      1.68371e+8 
           6790      1.66465e+8 
           6810      1.64701e+8 
           6830       1.6289e+8 
           6850      1.61137e+8 
           6870      1.59386e+8 
           6890      1.57645e+8 
           6910      1.55929e+8 
           6930      1.54293e+8 
           6950      1.52642e+8 
           6970      1.51007e+8 
           6990      1.49396e+8 
           7010      1.47809e+8 
           7030      1.46245e+8 
           7050      1.44696e+8 
           7070       1.4103e+8 
           7090      1.41667e+8 
           7110       1.4017e+8 
           7130      1.38711e+8 
           7150      1.37265e+8 
           7170      1.35812e+8 
           7190      1.34423e+8 
           7210      1.33033e+8 
           7230      1.31412e+8 
           7250      1.30272e+8 
           7270      1.28965e+8 
           7290      1.26656e+8 
           7310      1.26324e+8 
           7330      1.25053e+8 
           7350      1.23781e+8 
           7370      1.22527e+8 
           7390      1.21286e+8 
           7410      1.20062e+8 
           7430       1.1885e+8 
           7450       1.1767e+8 
           7470       1.1644e+8 
           7490      1.15329e+8 
           7510      1.14141e+8 
           7530      1.13044e+8 
           7550      1.11923e+8 
           7570      1.10813e+8 
           7590       1.0972e+8 
           7610      1.08624e+8 
           7630      1.07576e+8 
           7650      1.06519e+8 
           7670      1.05484e+8 
           7690      1.04452e+8 
           7710      1.03435e+8 
           7730      1.02434e+8 
           7750      1.01442e+8 
           7770       1.0044e+8 
           7790      9.94963e+7 
           7810      9.84809e+7 
           7830      9.75975e+7 
           7850      9.67462e+7 
           7870       9.5805e+7 
           7890      9.48358e+7 
           7910      9.40136e+7 
           7930      9.31146e+7 
           7950      9.22056e+7 
           7970      9.12038e+7 
           7990      9.03288e+7 
           8010      8.94672e+7 
           8030      8.86248e+7 
           8050      8.78536e+7 
           8070      8.70658e+7 
           8090      8.60948e+7 
           8110      8.53442e+7 
           8130      8.47082e+7 
           8150      8.37996e+7 
           8170      8.31584e+7 
           8190      8.22641e+7 
           8210      8.12881e+7 
           8230      8.07489e+7 
           8250       8.0059e+7 
           8270      7.89231e+7 
           8290      7.85373e+7 
           8310      7.78542e+7 
           8330       7.7117e+7 
           8350      7.60726e+7 
           8370      7.56127e+7 
           8390      7.50332e+7 
           8410      7.43465e+7 
           8430      7.36178e+7 
           8450      7.25047e+7 
           8470      7.21994e+7 
           8490        7.152e+7 
           8510       7.0716e+7 
           8530      7.03278e+7 
           8550      6.87933e+7 
           8570      6.98267e+7 
