# Kurucz ODFNEW /NOVER (2003)
# teff = 20000 K (value for the effective temperature for the model. Temperatures are given in K)
# logg = 3 log(cm/s2) (value for Log(G) for the model.)
# meta = 0.5  (value for the Metallicity for the model.)
# lh = 1.25  (l/Hp where l is the  mixing length of the convective element and Hp is the pressure scale height)
# vtur = 2 km/s (Microturbulence velocity)
# alpha = 0.4  (Alpha)
#
# column 1: WAVELENGTH (ANGSTROM), Wavelength in Angstrom
# column 2: FLUX (ERG/CM2/S/A), Flux in erg/cm2/s/A
          147.2     4.38489e-21 
            151     2.73629e-20 
          155.2     1.86808e-19 
          158.8     8.96833e-19 
            162      3.4222e-18 
            166      1.7025e-17 
          170.3     8.75768e-17 
          173.4     2.74846e-16 
          176.8     9.15699e-16 
          180.2     2.92164e-15 
          181.7     4.80604e-15 
          186.1     1.98899e-14 
            191     9.00677e-14 
          193.9     2.12417e-13 
          198.4     7.67335e-13 
          201.8     1.95353e-12 
            205     4.58252e-12 
          210.5     1.87335e-11 
          216.2     7.49946e-11 
          219.8     1.73829e-10 
            223     3.59002e-10 
          226.8     8.28042e-10 
            230      9.11486e-9 
            234      2.42525e-8 
            240      7.67455e-8 
          246.5      2.49397e-7 
          252.4      6.96029e-7 
          256.8       1.4136e-6 
            260      2.48653e-6 
            264      4.63755e-6 
          268.5      9.17207e-6 
          273.5      1.89205e-5 
          278.5      3.85597e-5 
            284      8.62513e-5 
            290     0.000187639 
            296     0.000396848 
            301     0.000723138 
            308      0.00171415 
            318      0.00521782 
            328       0.0141732 
            338       0.0383509 
            348       0.0951436 
            357        0.420953 
            366        0.913138 
            375         1.71213 
            385         3.43244 
            395         6.90439 
            405         12.7347 
            414         21.9449 
            422         34.3233 
            430         54.1133 
            441         96.2584 
            451         156.535 
            460          236.56 
            470         375.843 
            480         575.968 
            490         882.419 
            500          1315.3 
            506         6903.18 
            512          180760 
            520          220966 
            530          311496 
            540          336589 
            550          596079 
            560          738743 
            570          995220 
            580          981736 
            590       1.5159e+6 
            600      1.93524e+6 
            610      2.51916e+6 
            620      2.81871e+6 
            630      3.18184e+6 
            640      3.04593e+6 
            650       2.3367e+6 
            658      4.04822e+6 
            665      4.83885e+6 
            675      5.06978e+6 
            685      5.26486e+6 
            695      7.44646e+6 
            705      7.81087e+6 
            716      9.12253e+6 
            726       9.4519e+6 
            735      1.06019e+7 
            745      1.26603e+7 
            755      1.40653e+7 
            765      1.56781e+7 
            775      1.74345e+7 
            785      1.91292e+7 
            795      2.02204e+7 
            805      2.16111e+7 
            815      2.30663e+7 
            825      2.58708e+7 
            835       2.1224e+7 
            845       2.7752e+7 
            855      2.90644e+7 
            865      3.19983e+7 
            875      3.48025e+7 
            885      3.93711e+7 
            895       4.2318e+7 
            905      4.00729e+7 
            915      8.85864e+7 
            925      1.41045e+9 
            935      2.82987e+9 
            945      4.46874e+9 
            955      5.80527e+9 
            965      4.64952e+9 
            975      6.36849e+8 
            985      2.55717e+9 
            995      4.08532e+9 
           1005       6.4669e+9 
           1015       6.6875e+9 
           1025      4.82465e+9 
           1035      4.18641e+9 
           1045      9.46114e+9 
           1055      8.58572e+9 
           1065      5.35986e+9 
           1075      7.76393e+9 
           1085      6.36317e+9 
           1095      8.32966e+9 
           1105      6.13214e+9 
           1115      4.55357e+9 
           1125      3.71751e+9 
           1135      7.35371e+9 
           1145       6.4514e+9 
           1155      7.09701e+9 
           1165      7.03732e+9 
           1175       3.4668e+9 
           1185      6.60566e+9 
           1195      3.69996e+9 
           1205      7.58583e+8 
           1215      2.45102e+9 
           1225      5.60767e+9 
           1235      7.90225e+9 
           1245      7.70217e+9 
           1255      7.60072e+9 
           1265      7.33836e+9 
           1275      7.68464e+9 
           1285      7.74551e+9 
           1295      2.75635e+9 
           1305      2.99831e+9 
           1315      7.32555e+9 
           1325      6.88107e+9 
           1335      6.06327e+9 
           1345      7.18608e+9 
           1355       6.9813e+9 
           1365      5.71739e+9 
           1375      5.58312e+9 
           1385      4.99236e+9 
           1395      2.85544e+9 
           1405      3.48022e+9 
           1415      4.40058e+9 
           1425      4.93104e+9 
           1435      5.21619e+9 
           1442      5.50537e+9 
           1447      5.38463e+9 
           1455      5.15243e+9 
           1465      4.57522e+9 
           1475      4.86664e+9 
           1485       4.8266e+9 
           1495      4.71286e+9 
           1505      4.09109e+9 
           1512      3.55464e+9 
           1517      3.79923e+9 
           1525      4.03065e+9 
           1535      3.26409e+9 
           1545      3.19278e+9 
           1555       3.1735e+9 
           1565      3.44763e+9 
           1575      3.73703e+9 
           1585      3.89382e+9 
           1595      3.81109e+9 
           1605      4.00066e+9 
           1615      4.02826e+9 
           1625      3.81348e+9 
           1635      4.26797e+9 
           1645      4.26023e+9 
           1655      4.06119e+9 
           1665      4.37294e+9 
           1672      4.13063e+9 
           1677      4.48754e+9 
           1685      4.52875e+9 
           1695      4.14176e+9 
           1705      4.04653e+9 
           1715      3.68657e+9 
           1725      3.71004e+9 
           1735      4.02407e+9 
           1745      3.84595e+9 
           1755      3.94193e+9 
           1765      3.82156e+9 
           1775      3.53541e+9 
           1785      3.69029e+9 
           1795      4.01351e+9 
           1805      4.13428e+9 
           1815      3.36803e+9 
           1825      3.68877e+9 
           1835      3.49517e+9 
           1845      3.10467e+9 
           1855      2.93477e+9 
           1865      3.05047e+9 
           1875      3.56131e+9 
           1885      3.01248e+9 
           1895      2.74672e+9 
           1905       3.2206e+9 
           1915       2.7783e+9 
           1925      2.68444e+9 
           1935      2.99564e+9 
           1945       3.0167e+9 
           1955      2.65966e+9 
           1967      3.11036e+9 
           1976      3.23009e+9 
           1984      2.98139e+9 
           1995      2.88897e+9 
           2005      3.17613e+9 
           2015      3.03798e+9 
           2025      3.21715e+9 
           2035      2.84901e+9 
           2045      3.02256e+9 
           2055      2.85297e+9 
           2065       2.7906e+9 
           2074      3.08479e+9 
           2078      2.62065e+9 
           2085      2.92442e+9 
           2095      2.72421e+9 
           2105      2.83825e+9 
           2115      2.90445e+9 
           2125      2.91556e+9 
           2135      2.83814e+9 
           2145      2.70243e+9 
           2155      2.87145e+9 
           2165      2.89651e+9 
           2175      2.87216e+9 
           2185      2.69222e+9 
           2195      2.79832e+9 
           2205      2.81128e+9 
           2215       2.7077e+9 
           2225      2.61394e+9 
           2235      2.64227e+9 
           2245      2.68508e+9 
           2255      2.53619e+9 
           2265      2.65241e+9 
           2275      2.62507e+9 
           2285      2.65222e+9 
           2295      2.32224e+9 
           2305      2.52839e+9 
           2315      2.40151e+9 
           2325      2.36131e+9 
           2335      2.22926e+9 
           2345      2.27626e+9 
           2355      2.29562e+9 
           2365      2.26035e+9 
           2375      2.24844e+9 
           2385      2.21174e+9 
           2395      2.24487e+9 
           2405      2.14248e+9 
           2415      2.18374e+9 
           2425      2.19588e+9 
           2435      2.09281e+9 
           2445      2.15727e+9 
           2455      2.16373e+9 
           2465      2.10182e+9 
           2475      2.04366e+9 
           2485      2.01371e+9 
           2495      1.63424e+9 
           2505      1.93743e+9 
           2513      1.86522e+9 
           2518       1.9851e+9 
           2525      1.92358e+9 
           2535      1.91641e+9 
           2545      1.76999e+9 
           2555      1.89495e+9 
           2565      1.86142e+9 
           2575      1.92926e+9 
           2585      1.89638e+9 
           2595      1.88504e+9 
           2605       1.8727e+9 
           2615      1.84133e+9 
           2625       1.8369e+9 
           2635      1.83394e+9 
           2645      1.83668e+9 
           2655      1.84398e+9 
           2665      1.72313e+9 
           2675      1.77471e+9 
           2685      1.75697e+9 
           2695      1.68493e+9 
           2705      1.63815e+9 
           2715       1.6511e+9 
           2725      1.65833e+9 
           2735       1.6633e+9 
           2745      1.58791e+9 
           2755      1.58871e+9 
           2765      1.59153e+9 
           2775       1.6246e+9 
           2785       1.5962e+9 
           2795       1.5113e+9 
           2805      1.55623e+9 
           2815      1.56364e+9 
           2825      1.55646e+9 
           2835      1.45831e+9 
           2845      1.47205e+9 
           2855      1.45538e+9 
           2865      1.48664e+9 
           2875      1.46633e+9 
           2885      1.45374e+9 
           2895      1.42025e+9 
           2910        1.404e+9 
           2930      1.39113e+9 
           2950      1.34791e+9 
           2970      1.33473e+9 
           2990      1.30897e+9 
           3010      1.25296e+9 
           3030      1.26758e+9 
           3050      1.24956e+9 
           3070      1.23664e+9 
           3090      1.17918e+9 
           3110      1.18241e+9 
           3130       1.1555e+9 
           3150      1.14232e+9 
           3170      1.10681e+9 
           3190      1.08642e+9 
           3210       1.0753e+9 
           3230      1.05148e+9 
           3250      1.04125e+9 
           3270      1.01858e+9 
           3290      9.99417e+8 
           3310      9.83593e+8 
           3330      9.61927e+8 
           3350      9.47186e+8 
           3370      9.27817e+8 
           3390       9.1818e+8 
           3410      9.03553e+8 
           3430      8.83344e+8 
           3450      8.65251e+8 
           3470      8.50519e+8 
           3490      8.34211e+8 
           3510      8.22529e+8 
           3530      8.14868e+8 
           3550      8.00511e+8 
           3570      7.88877e+8 
           3590      7.62953e+8 
           3610      7.50013e+8 
           3630      7.44602e+8 
           3640      7.45236e+8 
           3650      7.32251e+8 
           3670      7.25019e+8 
           3690      7.00442e+8 
           3710      6.93375e+8 
           3730      6.93623e+8 
           3750      7.64818e+8 
           3770      7.57016e+8 
           3790      7.71577e+8 
           3810      7.98715e+8 
           3830      7.11448e+8 
           3850      7.84644e+8 
           3870      7.64984e+8 
           3890       6.8377e+8 
           3910      7.70358e+8 
           3930      7.33316e+8 
           3950      7.33829e+8 
           3970      6.34165e+8 
           3990      7.09747e+8 
           4010      7.05778e+8 
           4030       6.7332e+8 
           4050       6.7902e+8 
           4070       6.4373e+8 
           4090      6.22451e+8 
           4110       5.6993e+8 
           4130      6.17299e+8 
           4150      6.12982e+8 
           4170      6.13226e+8 
           4190      6.10004e+8 
           4210      6.06432e+8 
           4230      5.91384e+8 
           4250      5.74068e+8 
           4270      5.54653e+8 
           4290       5.5025e+8 
           4310      5.33778e+8 
           4330      5.07861e+8 
           4350      4.71745e+8 
           4370      5.08391e+8 
           4390      5.12918e+8 
           4410      5.05429e+8 
           4430      5.00184e+8 
           4450      4.95394e+8 
           4470      4.80393e+8 
           4490      4.80496e+8 
           4510      4.80004e+8 
           4530      4.70395e+8 
           4550      4.65978e+8 
           4570      4.58247e+8 
           4590      4.50793e+8 
           4610      4.38381e+8 
           4630      4.33354e+8 
           4650      4.19878e+8 
           4670      4.21316e+8 
           4690      4.20145e+8 
           4710       4.0001e+8 
           4730      4.02966e+8 
           4750      3.97375e+8 
           4770      4.00988e+8 
           4790      3.92293e+8 
           4810      3.82264e+8 
           4830       3.7749e+8 
           4850      3.65703e+8 
           4870      3.30984e+8 
           4890       3.6414e+8 
           4910      3.59132e+8 
           4930      3.48195e+8 
           4950      3.47786e+8 
           4970      3.47372e+8 
           4990      3.40825e+8 
           5010       3.2244e+8 
           5030       3.2944e+8 
           5050      3.19923e+8 
           5070      3.22094e+8 
           5090      3.16397e+8 
           5110      3.10189e+8 
           5130       3.0192e+8 
           5150      3.00759e+8 
           5170      3.00184e+8 
           5190      2.96266e+8 
           5210      2.88167e+8 
           5230      2.88295e+8 
           5250      2.85118e+8 
           5270      2.79716e+8 
           5290       2.7809e+8 
           5310      2.73541e+8 
           5330      2.69516e+8 
           5350      2.65162e+8 
           5370      2.63778e+8 
           5390      2.60061e+8 
           5410      2.56816e+8 
           5430       2.5218e+8 
           5450      2.49039e+8 
           5470      2.45333e+8 
           5490      2.43523e+8 
           5510      2.41176e+8 
           5530      2.36835e+8 
           5550      2.35327e+8 
           5570      2.31746e+8 
           5590      2.29728e+8 
           5610      2.25975e+8 
           5630      2.24336e+8 
           5650      2.17334e+8 
           5670      2.14151e+8 
           5690      2.12288e+8 
           5710      2.11624e+8 
           5730      2.09805e+8 
           5750      2.06308e+8 
           5770      2.05412e+8 
           5790      2.02602e+8 
           5810      2.00027e+8 
           5830      1.96961e+8 
           5850      1.95088e+8 
           5870      1.88174e+8 
           5890      1.87832e+8 
           5910      1.86908e+8 
           5930      1.84653e+8 
           5950      1.81328e+8 
           5970      1.81954e+8 
           5990      1.78148e+8 
           6010      1.77559e+8 
           6030      1.74715e+8 
           6050      1.72934e+8 
           6070      1.71377e+8 
           6090      1.69146e+8 
           6110      1.67435e+8 
           6130      1.65813e+8 
           6150      1.61598e+8 
           6170      1.60919e+8 
           6190        1.599e+8 
           6210      1.58237e+8 
           6230      1.56611e+8 
           6250      1.53662e+8 
           6270      1.52406e+8 
           6290      1.50895e+8 
           6310      1.48729e+8 
           6330        1.478e+8 
           6350      1.44796e+8 
           6370      1.43935e+8 
           6390      1.42426e+8 
           6410      1.41016e+8 
           6430      1.39986e+8 
           6450      1.38068e+8 
           6470      1.35974e+8 
           6490      1.34628e+8 
           6510      1.33295e+8 
           6530      1.31402e+8 
           6550      1.28335e+8 
           6570      1.14254e+8 
           6590      1.25828e+8 
           6610      1.26188e+8 
           6630      1.25094e+8 
           6650      1.23533e+8 
           6670      1.21422e+8 
           6690      1.20268e+8 
           6710      1.19912e+8 
           6730       1.1816e+8 
           6750      1.17552e+8 
           6770      1.16341e+8 
           6790      1.13287e+8 
           6810      1.13418e+8 
           6830      1.12101e+8 
           6850      1.11391e+8 
           6870      1.10185e+8 
           6890      1.08879e+8 
           6910      1.07579e+8 
           6930      1.06598e+8 
           6950      1.05775e+8 
           6970      1.04719e+8 
           6990      1.03489e+8 
           7010      1.02362e+8 
           7030      1.01346e+8 
           7050      1.00279e+8 
           7070      9.75496e+7 
           7090      9.83416e+7 
           7110       9.5218e+7 
           7130      9.44697e+7 
           7150      9.51505e+7 
           7170      9.43859e+7 
           7190      9.35555e+7 
           7210      9.26168e+7 
           7230       8.9662e+7 
           7250      9.03362e+7 
           7270      8.98114e+7 
           7290      8.82134e+7 
           7310      8.80063e+7 
           7330      8.70709e+7 
           7350      8.63606e+7 
           7370      8.55319e+7 
           7390      8.46833e+7 
           7410      8.38631e+7 
           7430      8.27571e+7 
           7450       8.2103e+7 
           7470      8.05972e+7 
           7490      8.03889e+7 
           7510      7.96942e+7 
           7530      7.88063e+7 
           7550       7.8277e+7 
           7570      7.75549e+7 
           7590      7.66824e+7 
           7610      7.59351e+7 
           7630      7.53111e+7 
           7650      7.46024e+7 
           7670      7.39256e+7 
           7690       7.3204e+7 
           7710      7.25015e+7 
           7730       7.1717e+7 
           7750      7.11717e+7 
           7770      6.94891e+7 
           7790      6.98529e+7 
           7810      6.91559e+7 
           7830      6.85695e+7 
           7850      6.76337e+7 
           7870      6.70167e+7 
           7890      6.60419e+7 
           7910      6.58348e+7 
           7930      6.52216e+7 
           7950      6.42084e+7 
           7970      6.39636e+7 
           7990      6.29239e+7 
           8010      6.28743e+7 
           8030      6.23278e+7 
           8050      6.17743e+7 
           8070      6.13065e+7 
           8090      6.06469e+7 
           8110      5.98097e+7 
           8130      5.96355e+7 
           8150      5.90596e+7 
           8170      5.86861e+7 
           8190      5.77652e+7 
           8210      5.71152e+7 
           8230      5.63262e+7 
           8250      5.64686e+7 
           8270      5.52704e+7 
           8290      5.53713e+7 
           8310      5.48651e+7 
           8330      5.45205e+7 
           8350      5.37528e+7 
           8370      5.32177e+7 
           8390      5.29584e+7 
           8410      5.24032e+7 
           8430      5.19385e+7 
           8450      5.08087e+7 
           8470      5.06331e+7 
           8490      5.08804e+7 
           8510      4.93711e+7 
           8530      5.04359e+7 
           8550      4.77136e+7 
           8570      5.03898e+7 
