# Kurucz ODFNEW /NOVER (2003)
# teff = 20000 K (value for the effective temperature for the model. Temperatures are given in K)
# logg = 3 log(cm/s2) (value for Log(G) for the model.)
# meta = -2  (value for the Metallicity for the model.)
# lh = 1.25  (l/Hp where l is the  mixing length of the convective element and Hp is the pressure scale height)
# vtur = 2 km/s (Microturbulence velocity)
# alpha = 0  (Alpha)
#
# column 1: WAVELENGTH (ANGSTROM), Wavelength in Angstrom
# column 2: FLUX (ERG/CM2/S/A), Flux in erg/cm2/s/A
          147.2     6.78181e-20 
            151     4.72923e-19 
          155.2     3.61636e-18 
          158.8     1.89594e-17 
            162     7.76297e-17 
            166     4.18181e-16 
          170.3     2.33516e-15 
          173.4     7.64132e-15 
          176.8     2.66992e-14 
          180.2     8.88582e-14 
          181.7     1.48821e-13 
          186.1     6.42796e-13 
            191     3.02016e-12 
          193.9      7.2628e-12 
          198.4     2.68871e-11 
          201.8     6.94267e-11 
            205     1.64542e-10 
          210.5     6.80167e-10 
          216.2      2.73409e-9 
          219.8      6.33177e-9 
            223      1.30422e-8 
          226.8      2.99204e-8 
            230      9.09278e-8 
            234      2.17695e-7 
            240      6.80402e-7 
          246.5      2.19315e-6 
          252.4      6.04073e-6 
          256.8      1.22845e-5 
            260       2.0646e-5 
            264      3.82827e-5 
          268.5      7.48837e-5 
          273.5     0.000153618 
          278.5     0.000307092 
            284     0.000638641 
            290      0.00137298 
            296      0.00285531 
            301      0.00513818 
            308       0.0112224 
            318       0.0327356 
            328       0.0884886 
            338         0.22478 
            348        0.539411 
            357         1.13383 
            366         2.29326 
            375         4.46958 
            385         9.02321 
            395         17.5245 
            405         32.8531 
            414         56.2382 
            422         88.7837 
            430          137.55 
            441         244.307 
            451          400.88 
            460         613.378 
            470           963.5 
            480         1482.01 
            490          2235.9 
            500         3311.45 
            506         22042.9 
            512         64671.3 
            520         84209.6 
            530          127075 
            540          141183 
            550          215825 
            560          270234 
            570          342071 
            580          344622 
            590          474597 
            600          630561 
            610          772533 
            620          922517 
            630      1.10579e+6 
            640      1.28581e+6 
            650      1.52225e+6 
            658      1.75407e+6 
            665      1.94633e+6 
            675      2.21974e+6 
            685      2.55949e+6 
            695      3.01204e+6 
            705      3.42602e+6 
            716      3.95552e+6 
            726      4.46514e+6 
            735      5.00939e+6 
            745      5.67811e+6 
            755      6.37841e+6 
            765      7.12035e+6 
            775      7.96142e+6 
            785      8.85052e+6 
            795      9.77014e+6 
            805      1.07806e+7 
            815      1.18119e+7 
            825      1.30184e+7 
            835      1.40577e+7 
            845      1.54612e+7 
            855      1.67652e+7 
            865      1.83041e+7 
            875      1.99174e+7 
            885      2.15925e+7 
            895      2.32827e+7 
            905      2.47355e+7 
            915      5.27279e+7 
            925       8.7945e+8 
            935      2.80436e+9 
            945      6.29749e+9 
            955      7.57651e+9 
            965      9.12832e+9 
            975      3.87336e+9 
            985      9.40712e+9 
            995      9.05802e+9 
           1005      9.45194e+9 
           1015       8.9887e+9 
           1025      4.24304e+9 
           1035       7.9705e+9 
           1045      9.77991e+9 
           1055      9.48876e+9 
           1065      8.71122e+9 
           1075      9.24232e+9 
           1085      8.65896e+9 
           1095      9.21978e+9 
           1105      8.77475e+9 
           1115      8.81078e+9 
           1125       8.3161e+9 
           1135      8.69192e+9 
           1145      8.28703e+9 
           1155      8.52228e+9 
           1165      8.48375e+9 
           1175      7.40757e+9 
           1185      8.25104e+9 
           1195       7.6785e+9 
           1205      6.54803e+9 
           1215      2.86562e+9 
           1225      6.95705e+9 
           1235      7.58732e+9 
           1245      7.57846e+9 
           1255      7.42564e+9 
           1265       7.3127e+9 
           1275      7.37897e+9 
           1285      7.25613e+9 
           1295      6.63434e+9 
           1305      6.69763e+9 
           1315      6.96608e+9 
           1325       6.7594e+9 
           1335      6.47398e+9 
           1345      6.61631e+9 
           1355      6.61299e+9 
           1365      6.44245e+9 
           1375      6.33832e+9 
           1385      6.28719e+9 
           1395      5.97281e+9 
           1405       6.0003e+9 
           1415      6.00667e+9 
           1425      5.93528e+9 
           1435      5.89255e+9 
           1442      5.86772e+9 
           1447      5.81231e+9 
           1455      5.73576e+9 
           1465      5.62946e+9 
           1475      5.55789e+9 
           1485      5.47167e+9 
           1495      5.39265e+9 
           1505      5.25902e+9 
           1512      5.15243e+9 
           1517      5.16469e+9 
           1525      5.10562e+9 
           1535      4.89861e+9 
           1545      4.91637e+9 
           1555      4.77373e+9 
           1565      4.82136e+9 
           1575      4.80133e+9 
           1585      4.73764e+9 
           1595      4.69278e+9 
           1605      4.55098e+9 
           1615      4.49018e+9 
           1625       4.4746e+9 
           1635      4.45428e+9 
           1645      4.36158e+9 
           1655      4.32389e+9 
           1665      4.29779e+9 
           1672      4.19679e+9 
           1677      4.25003e+9 
           1685      4.19584e+9 
           1695      4.10832e+9 
           1705      4.02839e+9 
           1715      3.93646e+9 
           1725      3.90134e+9 
           1735      3.87339e+9 
           1745      3.81094e+9 
           1755      3.80066e+9 
           1765      3.65927e+9 
           1775      3.64984e+9 
           1785      3.63212e+9 
           1795       3.6072e+9 
           1805      3.57775e+9 
           1815      3.48731e+9 
           1825      3.46424e+9 
           1835      3.41741e+9 
           1845      3.28164e+9 
           1855      3.20595e+9 
           1865      3.21326e+9 
           1875      3.23426e+9 
           1885      3.08097e+9 
           1895      2.97898e+9 
           1905        3.057e+9 
           1915      2.95633e+9 
           1925      2.90465e+9 
           1935      2.93185e+9 
           1945      2.93564e+9 
           1955      2.80071e+9 
           1967      2.85058e+9 
           1976      2.86963e+9 
           1984      2.77686e+9 
           1995      2.70136e+9 
           2005      2.72762e+9 
           2015      2.72501e+9 
           2025      2.71599e+9 
           2035      2.63924e+9 
           2045       2.6098e+9 
           2055      2.54315e+9 
           2065      2.53475e+9 
           2074      2.57227e+9 
           2078      2.49677e+9 
           2085      2.49883e+9 
           2095      2.43521e+9 
           2105      2.44579e+9 
           2115      2.42626e+9 
           2125      2.42066e+9 
           2135      2.38564e+9 
           2145      2.33749e+9 
           2155      2.33135e+9 
           2165      2.30608e+9 
           2175      2.27513e+9 
           2185      2.25198e+9 
           2195      2.23175e+9 
           2205      2.20411e+9 
           2215      2.17926e+9 
           2225      2.14853e+9 
           2235      2.12445e+9 
           2245      2.10661e+9 
           2255       2.0773e+9 
           2265      2.05958e+9 
           2275      2.03577e+9 
           2285      2.01604e+9 
           2295       1.9734e+9 
           2305      1.96958e+9 
           2315      1.94241e+9 
           2325      1.92267e+9 
           2335      1.89393e+9 
           2345       1.8711e+9 
           2355      1.86054e+9 
           2365      1.83568e+9 
           2375      1.81718e+9 
           2385      1.79158e+9 
           2395      1.77429e+9 
           2405      1.75617e+9 
           2415      1.73404e+9 
           2425      1.72348e+9 
           2435       1.7016e+9 
           2445      1.68444e+9 
           2455      1.66893e+9 
           2465      1.64903e+9 
           2475      1.63204e+9 
           2485      1.61399e+9 
           2495      1.57675e+9 
           2505      1.57944e+9 
           2513      1.55412e+9 
           2518      1.55699e+9 
           2525      1.54476e+9 
           2535      1.52668e+9 
           2545       1.5065e+9 
           2555      1.49843e+9 
           2565      1.48024e+9 
           2575      1.46859e+9 
           2585      1.45269e+9 
           2595      1.43721e+9 
           2605      1.43258e+9 
           2615      1.41883e+9 
           2625      1.40356e+9 
           2635      1.38435e+9 
           2645      1.37547e+9 
           2655      1.36037e+9 
           2665      1.34418e+9 
           2675      1.33089e+9 
           2685      1.32512e+9 
           2695      1.30166e+9 
           2705      1.29793e+9 
           2715       1.2845e+9 
           2725       1.2619e+9 
           2735      1.25919e+9 
           2745      1.24023e+9 
           2755      1.22935e+9 
           2765      1.21107e+9 
           2775      1.21003e+9 
           2785      1.19748e+9 
           2795      1.17142e+9 
           2805      1.16782e+9 
           2815      1.16301e+9 
           2825      1.14152e+9 
           2835      1.13133e+9 
           2845       1.1287e+9 
           2855      1.11784e+9 
           2865      1.10748e+9 
           2875      1.09656e+9 
           2885      1.08616e+9 
           2895      1.07566e+9 
           2910      1.06006e+9 
           2930      1.03954e+9 
           2950      1.01389e+9 
           2970      1.00105e+9 
           2990      9.81887e+8 
           3010      9.63685e+8 
           3030      9.46286e+8 
           3050      9.28814e+8 
           3070      9.11795e+8 
           3090      8.94664e+8 
           3110      8.78831e+8 
           3130      8.63983e+8 
           3150      8.48187e+8 
           3170      8.32644e+8 
           3190      8.11797e+8 
           3210      8.03357e+8 
           3230       7.8907e+8 
           3250      7.75109e+8 
           3270       7.6238e+8 
           3290      7.48057e+8 
           3310      7.36225e+8 
           3330      7.23535e+8 
           3350      7.09785e+8 
           3370      6.98964e+8 
           3390      6.87102e+8 
           3410      6.75502e+8 
           3430      6.60923e+8 
           3450      6.47585e+8 
           3470      6.38796e+8 
           3490      6.28991e+8 
           3510      6.21996e+8 
           3530      6.12186e+8 
           3550      6.02349e+8 
           3570      5.94732e+8 
           3590      5.82424e+8 
           3610      5.73386e+8 
           3630      5.63683e+8 
           3640      5.62126e+8 
           3650       5.5232e+8 
           3670      5.44946e+8 
           3690      5.25414e+8 
           3710      5.29508e+8 
           3730      5.36112e+8 
           3750      6.01562e+8 
           3770      6.04712e+8 
           3790      6.21688e+8 
           3810      6.45699e+8 
           3830      5.73637e+8 
           3850       6.5393e+8 
           3870      6.45125e+8 
           3890      5.50526e+8 
           3910      6.33768e+8 
           3930      6.20162e+8 
           3950      6.13729e+8 
           3970      5.11639e+8 
           3990      5.92399e+8 
           4010      5.82896e+8 
           4030      5.58684e+8 
           4050      5.68476e+8 
           4070      5.58468e+8 
           4090      5.33382e+8 
           4110      4.73072e+8 
           4130      5.27142e+8 
           4150      5.20367e+8 
           4170      5.14932e+8 
           4190      5.08419e+8 
           4210      5.00581e+8 
           4230      4.92764e+8 
           4250      4.85071e+8 
           4270       4.7655e+8 
           4290      4.70254e+8 
           4310      4.62452e+8 
           4330      4.35304e+8 
           4350      3.98858e+8 
           4370      4.41279e+8 
           4390      4.28158e+8 
           4410      4.28952e+8 
           4430      4.20864e+8 
           4450      4.16424e+8 
           4470      3.98584e+8 
           4490      4.03917e+8 
           4510      3.98231e+8 
           4530      3.92336e+8 
           4550      3.86547e+8 
           4570      3.80862e+8 
           4590      3.75404e+8 
           4610      3.69956e+8 
           4630      3.64605e+8 
           4650      3.59089e+8 
           4670      3.54206e+8 
           4690       3.4917e+8 
           4710      3.40352e+8 
           4730       3.3908e+8 
           4750      3.34077e+8 
           4770      3.29857e+8 
           4790       3.2522e+8 
           4810        3.206e+8 
           4830      3.15641e+8 
           4850      3.00599e+8 
           4870      2.70639e+8 
           4890      3.02318e+8 
           4910      2.99001e+8 
           4930      2.90085e+8 
           4950      2.90898e+8 
           4970       2.8696e+8 
           4990       2.8306e+8 
           5010      2.76287e+8 
           5030      2.75449e+8 
           5050      2.70111e+8 
           5070      2.68116e+8 
           5090      2.64544e+8 
           5110       2.6102e+8 
           5130      2.57529e+8 
           5150      2.54112e+8 
           5170      2.50797e+8 
           5190      2.47511e+8 
           5210      2.44226e+8 
           5230      2.41081e+8 
           5250      2.37936e+8 
           5270      2.34858e+8 
           5290       2.3182e+8 
           5310      2.28835e+8 
           5330      2.25887e+8 
           5350      2.22977e+8 
           5370      2.20157e+8 
           5390      2.17359e+8 
           5410      2.14597e+8 
           5430      2.11869e+8 
           5450        2.092e+8 
           5470      2.06578e+8 
           5490      2.04001e+8 
           5510      2.01455e+8 
           5530      1.98941e+8 
           5550      1.96483e+8 
           5570      1.94042e+8 
           5590      1.91655e+8 
           5610      1.89298e+8 
           5630      1.86981e+8 
           5650      1.84668e+8 
           5670      1.82418e+8 
           5690      1.80184e+8 
           5710      1.78046e+8 
           5730      1.75899e+8 
           5750      1.73777e+8 
           5770      1.71703e+8 
           5790      1.69642e+8 
           5810      1.67617e+8 
           5830      1.65627e+8 
           5850      1.63659e+8 
           5870      1.57856e+8 
           5890      1.59739e+8 
           5910      1.57948e+8 
           5930      1.56092e+8 
           5950      1.54257e+8 
           5970      1.52474e+8 
           5990      1.50691e+8 
           6010       1.4895e+8 
           6030      1.47238e+8 
           6050      1.45535e+8 
           6070      1.43872e+8 
           6090      1.42218e+8 
           6110      1.40602e+8 
           6130      1.39004e+8 
           6150      1.37414e+8 
           6170      1.35872e+8 
           6190      1.34337e+8 
           6210      1.32818e+8 
           6230      1.31336e+8 
           6250       1.2986e+8 
           6270       1.2841e+8 
           6290      1.26985e+8 
           6310      1.25576e+8 
           6330      1.24192e+8 
           6350      1.22794e+8 
           6370      1.21458e+8 
           6390      1.20136e+8 
           6410      1.18819e+8 
           6430      1.17525e+8 
           6450      1.16245e+8 
           6470      1.14978e+8 
           6490      1.13734e+8 
           6510      1.12512e+8 
           6530      1.11161e+8 
           6550      1.07893e+8 
           6570      9.68598e+7 
           6590      1.07203e+8 
           6610      1.06607e+8 
           6630      1.05485e+8 
           6650      1.04442e+8 
           6670      1.02572e+8 
           6690      1.01505e+8 
           6710      1.01177e+8 
           6730      1.00119e+8 
           6750      9.90721e+7 
           6770      9.80437e+7 
           6790      9.70094e+7 
           6810      9.60099e+7 
           6830      9.50204e+7 
           6850      9.40408e+7 
           6870       9.3071e+7 
           6890      9.21188e+7 
           6910      9.11761e+7 
           6930      9.02348e+7 
           6950      8.93263e+7 
           6970      8.84189e+7 
           6990      8.75127e+7 
           7010      8.66384e+7 
           7030       8.5765e+7 
           7050      8.49001e+7 
           7070      8.27925e+7 
           7090      8.32104e+7 
           7110      8.23777e+7 
           7130      8.15531e+7 
           7150      8.07438e+7 
           7170      7.99276e+7 
           7190      7.91556e+7 
           7210      7.83764e+7 
           7230      7.74966e+7 
           7250      7.68474e+7 
           7270      7.60902e+7 
           7290       7.4773e+7 
           7310      7.46041e+7 
           7330       7.3889e+7 
           7350      7.31736e+7 
           7370      7.24718e+7 
           7390      7.17697e+7 
           7410      7.10809e+7 
           7430      7.03985e+7 
           7450      6.97359e+7 
           7470      6.90727e+7 
           7490      6.84088e+7 
           7510       6.7731e+7 
           7530      6.71192e+7 
           7550      6.64865e+7 
           7570      6.58596e+7 
           7590       6.5237e+7 
           7610      6.46245e+7 
           7630      6.40189e+7 
           7650      6.34201e+7 
           7670      6.28304e+7 
           7690      6.22409e+7 
           7710      6.16617e+7 
           7730      6.10972e+7 
           7750      6.05251e+7 
           7770      5.99618e+7 
           7790      5.94246e+7 
           7810      5.88291e+7 
           7830       5.8341e+7 
           7850      5.78735e+7 
           7870      5.73455e+7 
           7890      5.67877e+7 
           7910      5.62685e+7 
           7930      5.56711e+7 
           7950      5.51487e+7 
           7970      5.46161e+7 
           7990      5.41583e+7 
           8010      5.36527e+7 
           8030      5.32076e+7 
           8050       5.2768e+7 
           8070      5.23269e+7 
           8090      5.17524e+7 
           8110      5.13474e+7 
           8130      5.09743e+7 
           8150      5.04108e+7 
           8170       5.0092e+7 
           8190       4.9605e+7 
           8210      4.89735e+7 
           8230      4.87046e+7 
           8250      4.82828e+7 
           8270      4.76155e+7 
           8290      4.73767e+7 
           8310      4.69836e+7 
           8330      4.65677e+7 
           8350      4.59489e+7 
           8370       4.5587e+7 
           8390      4.52453e+7 
           8410       4.4805e+7 
           8430       4.4397e+7 
           8450      4.38531e+7 
           8470      4.32257e+7 
           8490       4.3617e+7 
           8510        4.226e+7 
           8530      4.31908e+7 
           8550      4.08539e+7 
           8570      4.32389e+7 
           8590      4.08741e+7 
