# Kurucz ODFNEW /NOVER (2003)
# teff = 9250 K (value for the effective temperature for the model. Temperatures are given in K)
# logg = 4 log(cm/s2) (value for Log(G) for the model.)
# meta = -1.5  (value for the Metallicity for the model.)
# lh = 1.25  (l/Hp where l is the  mixing length of the convective element and Hp is the pressure scale height)
# vtur = 2 km/s (Microturbulence velocity)
# alpha = 0.4  (Alpha)
#
# column 1: WAVELENGTH (ANGSTROM), Wavelength in Angstrom
# column 2: FLUX (ERG/CM2/S/A), Flux in erg/cm2/s/A
          268.5     1.01096e-23 
          273.5     9.52623e-23 
          278.5      4.2221e-22 
            284     1.95553e-21 
            290      9.6776e-21 
            296     4.47435e-20 
            301     1.52877e-19 
            308     7.97468e-19 
            318     7.41768e-18 
            328     6.00055e-17 
            338     4.27433e-16 
            348     2.71137e-15 
            357     1.30498e-14 
            366      5.8027e-14 
            375     2.39481e-13 
            385     1.06755e-12 
            395      4.3993e-12 
            405     1.68609e-11 
            414     5.33324e-11 
            422     1.42197e-10 
            430     3.64973e-10 
            441      1.25838e-9 
            451      3.67004e-9 
            460      9.22524e-9 
            470      2.45991e-8 
            480      6.28373e-8 
            490      1.54195e-7 
            500      3.64358e-7 
            506      6.24989e-7 
            512      1.03498e-6 
            520       1.9391e-6 
            530      4.13866e-6 
            540      8.55096e-6 
            550      1.72225e-5 
            560      3.37423e-5 
            570       6.4473e-5 
            580     0.000120141 
            590     0.000219501 
            600     0.000392029 
            610     0.000686101 
            620      0.00117782 
            630       0.0019853 
            640      0.00328829 
            650      0.00535669 
            658      0.00782462 
            665       0.0108131 
            675       0.0169527 
            685       0.0262027 
            695       0.0399554 
            705       0.0601471 
            716       0.0929889 
            726        0.136475 
            735        0.190901 
            745        0.274315 
            755        0.390076 
            765        0.549157 
            775        0.765721 
            785         1.05776 
            795         1.44838 
            805         1.96647 
            815          2.6479 
            825         3.53729 
            835         4.68944 
            845          6.1715 
            855         8.06359 
            865         10.4637 
            875         13.4902 
            885         17.2832 
            895         22.0072 
            905         27.8555 
            915         86.1475 
            925         511.714 
            935         924.516 
            945         1783.45 
            955         2810.27 
            965         3827.31 
            975         2686.65 
            985         6633.56 
            995         8223.15 
           1005         9600.02 
           1015         8635.46 
           1025         4774.09 
           1035         11174.3 
           1045         17055.9 
           1055         22733.2 
           1065         36064.5 
           1075         63396.5 
           1085         95508.4 
           1095          106949 
           1105      1.03113e+6 
           1115      9.20138e+6 
           1125      1.07358e+7 
           1135      1.17041e+7 
           1145      8.50542e+6 
           1155      4.87339e+6 
           1165      2.01496e+6 
           1175          409876 
           1185          245771 
           1195         58708.6 
           1205         41683.4 
           1215         13088.1 
           1225         45201.3 
           1235         90186.8 
           1245          136775 
           1255          385717 
           1265      1.62569e+6 
           1275      5.96093e+6 
           1285      1.55855e+7 
           1295      2.23806e+7 
           1305      2.17108e+7 
           1315      3.47988e+7 
           1325      4.27602e+7 
           1335      4.78251e+7 
           1345      5.52196e+7 
           1355      5.36093e+7 
           1365      5.40055e+7 
           1375      5.32368e+7 
           1385      4.78968e+7 
           1395      4.67131e+7 
           1405      5.97225e+7 
           1415      7.18114e+7 
           1425      7.59368e+7 
           1435      7.10805e+7 
           1442      7.90812e+7 
           1447      8.00542e+7 
           1455      8.26553e+7 
           1465      7.86836e+7 
           1475      7.81831e+7 
           1485      7.86609e+7 
           1495      8.17114e+7 
           1505      8.30875e+7 
           1512      8.13147e+7 
           1517      8.02934e+7 
           1525      7.71529e+7 
           1535      7.56649e+7 
           1545       7.8994e+7 
           1555      7.10949e+7 
           1565      6.12725e+7 
           1575      7.08847e+7 
           1585      7.38336e+7 
           1595       7.6324e+7 
           1605      7.33167e+7 
           1615      7.57409e+7 
           1625      7.26174e+7 
           1635      7.59399e+7 
           1645      8.15585e+7 
           1655      7.17512e+7 
           1665       8.1735e+7 
           1672       7.2511e+7 
           1677      7.83431e+7 
           1685      8.22118e+7 
           1695      7.69738e+7 
           1705      7.65997e+7 
           1715      7.96528e+7 
           1725      7.82711e+7 
           1735      8.07743e+7 
           1745      7.85805e+7 
           1755      8.09962e+7 
           1765      7.46656e+7 
           1775      7.94036e+7 
           1785      7.84029e+7 
           1795      8.12803e+7 
           1805      7.80106e+7 
           1815      7.74198e+7 
           1825      7.53657e+7 
           1835      7.56552e+7 
           1845      7.17917e+7 
           1855      7.41246e+7 
           1865      7.45709e+7 
           1875      7.51525e+7 
           1885       7.5269e+7 
           1895      7.42627e+7 
           1905      7.15843e+7 
           1915      7.29374e+7 
           1925      7.37462e+7 
           1935      7.18721e+7 
           1945       7.4232e+7 
           1955      7.36264e+7 
           1967      7.36548e+7 
           1976      7.16771e+7 
           1984      7.09911e+7 
           1995      7.09468e+7 
           2005      6.95455e+7 
           2015      6.77667e+7 
           2025      6.74123e+7 
           2035      6.90639e+7 
           2045      6.89964e+7 
           2055      6.65174e+7 
           2065      6.66848e+7 
           2074      6.78528e+7 
           2078      6.86693e+7 
           2085       6.8209e+7 
           2095      6.69405e+7 
           2105      6.65279e+7 
           2115      6.61008e+7 
           2125      6.59023e+7 
           2135      6.24019e+7 
           2145      6.54307e+7 
           2155      6.45271e+7 
           2165       6.2603e+7 
           2175      6.24667e+7 
           2185      6.25062e+7 
           2195      6.43486e+7 
           2205      6.22918e+7 
           2215      5.93141e+7 
           2225      5.96185e+7 
           2235      6.27575e+7 
           2245      6.02054e+7 
           2255      5.86539e+7 
           2265      5.80108e+7 
           2275      6.03597e+7 
           2285      6.08636e+7 
           2295      5.87129e+7 
           2305      5.88264e+7 
           2315      5.81477e+7 
           2325       5.8294e+7 
           2335      5.74454e+7 
           2345      5.41073e+7 
           2355      5.70865e+7 
           2365      5.43929e+7 
           2375      5.60256e+7 
           2385      5.21241e+7 
           2395      5.50216e+7 
           2405      5.38902e+7 
           2415      5.42761e+7 
           2425      5.53426e+7 
           2435      5.35267e+7 
           2445      5.49589e+7 
           2455      5.42508e+7 
           2465      5.33434e+7 
           2475      5.21248e+7 
           2485      5.36535e+7 
           2495      5.25107e+7 
           2505       5.4585e+7 
           2513      5.26178e+7 
           2518      5.22379e+7 
           2525      5.02133e+7 
           2535      4.99809e+7 
           2545       5.0292e+7 
           2555      5.21567e+7 
           2565      5.19014e+7 
           2575       5.3303e+7 
           2585      5.35291e+7 
           2595      5.32846e+7 
           2605       5.2053e+7 
           2615      5.17069e+7 
           2625      5.20539e+7 
           2635      5.23514e+7 
           2645      5.48291e+7 
           2655      5.44115e+7 
           2665      5.27145e+7 
           2675      5.34009e+7 
           2685      5.37825e+7 
           2695      5.26164e+7 
           2705      5.26143e+7 
           2715      5.14045e+7 
           2725      5.13729e+7 
           2735       5.2534e+7 
           2745      4.92746e+7 
           2755      4.93916e+7 
           2765      5.05675e+7 
           2775        5.173e+7 
           2785      5.10872e+7 
           2795      4.43625e+7 
           2805      4.74334e+7 
           2815      5.19819e+7 
           2825       5.1657e+7 
           2835       5.0726e+7 
           2845      4.99838e+7 
           2855      4.89964e+7 
           2865       4.9885e+7 
           2875      4.95477e+7 
           2885      5.00331e+7 
           2895      5.01645e+7 
           2910      5.10945e+7 
           2930      4.98552e+7 
           2950      4.96361e+7 
           2970      4.96062e+7 
           2990      4.94083e+7 
           3010      4.95897e+7 
           3030      4.93886e+7 
           3050       4.8986e+7 
           3070      4.83498e+7 
           3090       4.8448e+7 
           3110      4.80839e+7 
           3130      4.77521e+7 
           3150      4.75767e+7 
           3170      4.73719e+7 
           3190      4.64762e+7 
           3210      4.66959e+7 
           3230      4.60147e+7 
           3250      4.61491e+7 
           3270      4.62135e+7 
           3290      4.61649e+7 
           3310      4.60145e+7 
           3330      4.53853e+7 
           3350      4.48517e+7 
           3370      4.48384e+7 
           3390      4.45338e+7 
           3410       4.4716e+7 
           3430      4.44746e+7 
           3450      4.42295e+7 
           3470      4.39339e+7 
           3490      4.37565e+7 
           3510       4.3614e+7 
           3530      4.34477e+7 
           3550      4.32465e+7 
           3570      4.28964e+7 
           3590       4.2674e+7 
           3610      4.24627e+7 
           3630      4.22391e+7 
           3640      4.20955e+7 
           3650      4.23204e+7 
           3670      4.21373e+7 
           3690      4.05584e+7 
           3710      4.17892e+7 
           3730      4.30915e+7 
           3750      5.46723e+7 
           3770      5.82155e+7 
           3790      7.20381e+7 
           3810       8.5947e+7 
           3830      6.78729e+7 
           3850      9.66496e+7 
           3870      1.11525e+8 
           3890      5.80078e+7 
           3910       1.1114e+8 
           3930      1.20452e+8 
           3950      1.10627e+8 
           3970      5.57795e+7 
           3990      1.04215e+8 
           4010      1.20346e+8 
           4030      1.20895e+8 
           4050      1.19024e+8 
           4070      1.12567e+8 
           4090      8.19823e+7 
           4110      6.14914e+7 
           4130      1.05046e+8 
           4150      1.11248e+8 
           4170       1.1113e+8 
           4190      1.10214e+8 
           4210      1.08903e+8 
           4230      1.07074e+8 
           4250      1.05824e+8 
           4270      1.03978e+8 
           4290      1.01471e+8 
           4310      9.49363e+7 
           4330      6.71221e+7 
           4350      5.66373e+7 
           4370       9.0268e+7 
           4390      9.45826e+7 
           4410      9.49063e+7 
           4430       9.4299e+7 
           4450      9.33144e+7 
           4470      9.22172e+7 
           4490      9.05043e+7 
           4510      9.00868e+7 
           4530      8.89241e+7 
           4550      8.75708e+7 
           4570      8.67898e+7 
           4590      8.57096e+7 
           4610      8.48825e+7 
           4630      8.36921e+7 
           4650      8.28151e+7 
           4670      8.18067e+7 
           4690      8.06926e+7 
           4710      7.92582e+7 
           4730       7.8682e+7 
           4750      7.76618e+7 
           4770      7.65533e+7 
           4790      7.52667e+7 
           4810      7.33802e+7 
           4830      6.90143e+7 
           4850      5.17067e+7 
           4870      4.16934e+7 
           4890       6.4552e+7 
           4910       6.8773e+7 
           4930       6.9019e+7 
           4950      6.87915e+7 
           4970      6.82115e+7 
           4990      6.74918e+7 
           5010      6.66673e+7 
           5030      6.60861e+7 
           5050      6.52505e+7 
           5070      6.46415e+7 
           5090      6.39149e+7 
           5110      6.31948e+7 
           5130       6.2474e+7 
           5150      6.17639e+7 
           5170      6.06189e+7 
           5190      6.01134e+7 
           5210      5.97236e+7 
           5230      5.89825e+7 
           5250      5.84383e+7 
           5270      5.76782e+7 
           5290      5.71594e+7 
           5310      5.64905e+7 
           5330      5.58539e+7 
           5350      5.53225e+7 
           5370      5.47074e+7 
           5390      5.41245e+7 
           5410      5.35178e+7 
           5430      5.29659e+7 
           5450      5.24143e+7 
           5470      5.18567e+7 
           5490      5.13083e+7 
           5510       5.0769e+7 
           5530      5.02139e+7 
           5550      4.97108e+7 
           5570      4.91857e+7 
           5590      4.86607e+7 
           5610      4.81636e+7 
           5630      4.76698e+7 
           5650      4.71736e+7 
           5670      4.66821e+7 
           5690      4.62079e+7 
           5710      4.57322e+7 
           5730      4.52689e+7 
           5750       4.4803e+7 
           5770      4.43493e+7 
           5790      4.38996e+7 
           5810      4.34572e+7 
           5830      4.30188e+7 
           5850      4.25843e+7 
           5870      4.21339e+7 
           5890      4.16755e+7 
           5910      4.13195e+7 
           5930      4.09106e+7 
           5950      4.04987e+7 
           5970      4.01021e+7 
           5990      3.97003e+7 
           6010      3.93145e+7 
           6030      3.89298e+7 
           6050      3.85483e+7 
           6070      3.81761e+7 
           6090      3.78049e+7 
           6110      3.74367e+7 
           6130      3.70695e+7 
           6150      3.66724e+7 
           6170      3.63539e+7 
           6190      3.60181e+7 
           6210      3.56731e+7 
           6230      3.53299e+7 
           6250      3.49778e+7 
           6270      3.46659e+7 
           6290      3.43382e+7 
           6310      3.40102e+7 
           6330      3.36913e+7 
           6350      3.33065e+7 
           6370      3.30262e+7 
           6390      3.27525e+7 
           6410      3.24329e+7 
           6430      3.20811e+7 
           6450      3.17194e+7 
           6470      3.13904e+7 
           6490      3.09772e+7 
           6510      3.04076e+7 
           6530      2.92056e+7 
           6550      2.48996e+7 
           6570       2.0071e+7 
           6590      2.73499e+7 
           6610      2.87979e+7 
           6630        2.898e+7 
           6650      2.88767e+7 
           6670      2.86843e+7 
           6690      2.84642e+7 
           6710      2.82731e+7 
           6730      2.80179e+7 
           6750      2.77686e+7 
           6770      2.75284e+7 
           6790      2.72831e+7 
           6810      2.70418e+7 
           6830      2.68005e+7 
           6850      2.65656e+7 
           6870      2.63321e+7 
           6890      2.61009e+7 
           6910      2.58727e+7 
           6930      2.56459e+7 
           6950      2.54229e+7 
           6970      2.52019e+7 
           6990      2.49831e+7 
           7010      2.47603e+7 
           7030      2.45518e+7 
           7050      2.43422e+7 
           7070      2.41323e+7 
           7090      2.39259e+7 
           7110      2.37065e+7 
           7130      2.35174e+7 
           7150      2.33145e+7 
           7170      2.31194e+7 
           7190      2.29232e+7 
           7210      2.27295e+7 
           7230      2.25376e+7 
           7250      2.23461e+7 
           7270      2.21606e+7 
           7290      2.19725e+7 
           7310      2.17904e+7 
           7330      2.16079e+7 
           7350      2.14298e+7 
           7370      2.12519e+7 
           7390      2.10749e+7 
           7410      2.08982e+7 
           7430      2.07224e+7 
           7450      2.05549e+7 
           7470      2.03822e+7 
           7490      2.02178e+7 
           7510      2.00548e+7 
           7530      1.98913e+7 
           7550      1.97305e+7 
           7570      1.95698e+7 
           7590      1.94113e+7 
           7610      1.92541e+7 
           7630      1.90989e+7 
           7650      1.89438e+7 
           7670      1.87907e+7 
           7690      1.86402e+7 
           7710       1.8491e+7 
           7730      1.83444e+7 
           7750      1.81978e+7 
           7770       1.7879e+7 
           7790      1.79102e+7 
           7810      1.77679e+7 
           7830      1.76269e+7 
           7850      1.74865e+7 
           7870      1.73369e+7 
           7890      1.71898e+7 
           7910      1.70777e+7 
           7930      1.69425e+7 
           7950      1.68049e+7 
           7970      1.66821e+7 
           7990      1.65256e+7 
           8010      1.64238e+7 
           8030      1.62965e+7 
           8050      1.61708e+7 
           8070      1.60457e+7 
           8090      1.59221e+7 
           8110      1.58001e+7 
           8130      1.56792e+7 
           8150      1.55592e+7 
           8170      1.54402e+7 
           8190      1.53121e+7 
           8210       1.5241e+7 
           8230      1.51297e+7 
           8250      1.50183e+7 
           8270      1.49363e+7 
           8290      1.48331e+7 
           8310      1.47302e+7 
           8330      1.46134e+7 
           8350      1.45175e+7 
           8370      1.44009e+7 
           8390      1.42756e+7 
           8410      1.41422e+7 
           8430      1.40259e+7 
           8450      1.38715e+7 
           8470       1.3607e+7 
           8490      1.37834e+7 
           8510      1.31637e+7 
           8530      1.37036e+7 
           8550      1.24868e+7 
           8570      1.37576e+7 
           8590      1.27588e+7 
           8610      1.24399e+7 
           8630      1.38214e+7 
           8650      1.31715e+7 
           8670      1.09913e+7 
           8690      1.34835e+7 
           8710      1.39759e+7 
           8730      1.33064e+7 
           8750      1.04193e+7 
           8770      1.25686e+7 
           8790      1.38397e+7 
           8810      1.40007e+7 
           8830      1.35783e+7 
           8850        1.186e+7 
           8870      1.00018e+7 
           8890      1.27388e+7 
           8910      1.35244e+7 
           8930      1.36727e+7 
           8950      1.36234e+7 
           8970      1.33062e+7 
           8990      1.24458e+7 
           9010      9.78437e+6 
           9030      1.06974e+7 
           9050      1.24841e+7 
           9070      1.29104e+7 
           9090      1.29517e+7 
           9110      1.29884e+7 
           9130      1.29234e+7 
           9150      1.27941e+7 
           9170      1.25847e+7 
