# Kurucz ODFNEW /NOVER (2003)
# teff = 10500 K (value for the effective temperature for the model. Temperatures are given in K)
# logg = 2 log(cm/s2) (value for Log(G) for the model.)
# meta = 0.5  (value for the Metallicity for the model.)
# lh = 1.25  (l/Hp where l is the  mixing length of the convective element and Hp is the pressure scale height)
# vtur = 2 km/s (Microturbulence velocity)
# alpha = 0.4  (Alpha)
#
# column 1: WAVELENGTH (ANGSTROM), Wavelength in Angstrom
# column 2: FLUX (ERG/CM2/S/A), Flux in erg/cm2/s/A
          273.5     2.20587e-23 
          278.5     9.89299e-23 
            284     4.28235e-22 
            290     1.92383e-21 
            296     8.04532e-21 
            301     2.55441e-20 
            308      1.2137e-19 
            318      9.9927e-19 
            328     7.28148e-18 
            338     4.72676e-17 
            348     2.77644e-16 
            357     1.51311e-15 
            366     6.31004e-15 
            375     2.42564e-14 
            385     1.02917e-13 
            395     3.99535e-13 
            405     1.48223e-12 
            414     4.54504e-12 
            422     1.18299e-11 
            430     2.93865e-11 
            441     1.00301e-10 
            451     2.87787e-10 
            460     7.16053e-10 
            470      1.88586e-9 
            480       4.7979e-9 
            490      1.17855e-8 
            500      2.78388e-8 
            506      5.09425e-7 
            512      1.22101e-6 
            520      2.15449e-6 
            530      4.24944e-6 
            540      8.02423e-6 
            550      1.56358e-5 
            560      2.88445e-5 
            570      5.25879e-5 
            580      9.14476e-5 
            590     0.000164112 
            600     0.000277922 
            610     0.000472112 
            620     0.000766258 
            630       0.0012421 
            640      0.00194499 
            650      0.00308232 
            658      0.00438948 
            665      0.00580575 
            675      0.00881247 
            685         0.01329 
            695       0.0198533 
            705       0.0285671 
            716       0.0433463 
            726        0.062488 
            735       0.0850566 
            745        0.119414 
            755        0.166091 
            765         0.22953 
            775        0.316462 
            785        0.433221 
            795        0.573292 
            805        0.766219 
            815         1.03038 
            825         1.35564 
            835         1.75898 
            845         2.32298 
            855         3.00229 
            865          3.8799 
            875         4.88994 
            885         6.30925 
            895         7.96704 
            905         9.83422 
            915         1739.73 
            925         11196.3 
            935         12743.9 
            945         17650.9 
            955         31014.5 
            965         40507.8 
            975         39859.5 
            985           50039 
            995         48726.2 
           1005         64210.3 
           1015         84248.3 
           1025         81436.3 
           1035         89597.8 
           1045          120982 
           1055          148025 
           1065          145560 
           1075          176553 
           1085          198979 
           1095          210210 
           1105          479927 
           1115      3.58752e+6 
           1125      3.87616e+6 
           1135      7.57334e+6 
           1145      7.07324e+6 
           1155      8.87303e+6 
           1165       1.0588e+7 
           1175      8.07637e+6 
           1185      2.97526e+6 
           1195          154834 
           1205          578861 
           1215          130062 
           1225          825974 
           1235      7.01651e+6 
           1245      2.51165e+7 
           1255      2.81837e+7 
           1265      7.28563e+6 
           1275       4.2685e+7 
           1285      8.12927e+7 
           1295      3.81823e+7 
           1305      5.75682e+6 
           1315      4.65589e+7 
           1325      8.08274e+7 
           1335      4.05831e+7 
           1345      9.70882e+7 
           1355      1.00045e+8 
           1365       7.2959e+7 
           1375      8.46743e+7 
           1385      8.35758e+7 
           1395      8.29297e+7 
           1405      8.43585e+7 
           1415      8.08579e+7 
           1425      1.03869e+8 
           1435      9.67608e+7 
           1442      1.13057e+8 
           1447        1.317e+8 
           1455      1.27095e+8 
           1465      1.16558e+8 
           1475      1.11504e+8 
           1485      1.33519e+8 
           1495      1.47841e+8 
           1505      1.42311e+8 
           1512      1.13331e+8 
           1517      1.34857e+8 
           1525       9.9783e+7 
           1535      7.89729e+7 
           1545      1.44928e+8 
           1555      1.21562e+8 
           1565      1.09871e+8 
           1575      1.19829e+8 
           1585      1.42495e+8 
           1595      1.55829e+8 
           1605      1.40988e+8 
           1615      1.42824e+8 
           1625      1.25013e+8 
           1635      1.36323e+8 
           1645      1.40917e+8 
           1655      1.23508e+8 
           1665      1.33091e+8 
           1672      5.37041e+7 
           1677      1.31552e+8 
           1685      1.61056e+8 
           1695      1.53759e+8 
           1705      1.33338e+8 
           1715      1.21919e+8 
           1725      1.22492e+8 
           1735      1.41582e+8 
           1745      1.40199e+8 
           1755       1.6949e+8 
           1765        1.293e+8 
           1775      1.49263e+8 
           1785      1.44426e+8 
           1795      1.83125e+8 
           1805      1.73401e+8 
           1815      1.63364e+8 
           1825       1.5943e+8 
           1835      1.50145e+8 
           1845       1.3264e+8 
           1855      1.22466e+8 
           1865      1.30959e+8 
           1875       1.6211e+8 
           1885      1.48901e+8 
           1895      1.42917e+8 
           1905      1.38161e+8 
           1915      1.38365e+8 
           1925      1.52527e+8 
           1935      1.58883e+8 
           1945      1.59853e+8 
           1955      1.56102e+8 
           1967       1.7951e+8 
           1976      1.87266e+8 
           1984      1.70015e+8 
           1995      1.62116e+8 
           2005      1.68506e+8 
           2015      1.50275e+8 
           2025      1.67821e+8 
           2035      1.56715e+8 
           2045      1.71068e+8 
           2055         1.44e+8 
           2065       1.5276e+8 
           2074       1.7575e+8 
           2078      1.68304e+8 
           2085      1.71292e+8 
           2095      1.60064e+8 
           2105      1.54449e+8 
           2115      1.54061e+8 
           2125      1.59631e+8 
           2135      1.29064e+8 
           2145      1.45696e+8 
           2155      1.59249e+8 
           2165      1.46505e+8 
           2175      1.42501e+8 
           2185      1.37507e+8 
           2195      1.53373e+8 
           2205      1.41734e+8 
           2215      1.22658e+8 
           2225      1.14131e+8 
           2235      1.36009e+8 
           2245      1.21255e+8 
           2255      1.07432e+8 
           2265      1.17471e+8 
           2275       1.2567e+8 
           2285      1.32784e+8 
           2295      1.24734e+8 
           2305      1.14429e+8 
           2315      1.03672e+8 
           2325      1.02308e+8 
           2335      8.71583e+7 
           2345      7.84353e+7 
           2355      1.00513e+8 
           2365       7.6205e+7 
           2375      8.72994e+7 
           2385       6.9773e+7 
           2395      8.53154e+7 
           2405      7.85371e+7 
           2415      8.57556e+7 
           2425      1.01745e+8 
           2435      9.46776e+7 
           2445      1.06609e+8 
           2455      1.02123e+8 
           2465      1.00646e+8 
           2475      9.68388e+7 
           2485      1.06249e+8 
           2495      1.00757e+8 
           2505      1.18596e+8 
           2513      9.59188e+7 
           2518      1.04207e+8 
           2525      8.96676e+7 
           2535      9.41791e+7 
           2545       8.9683e+7 
           2555      1.02579e+8 
           2565      9.45542e+7 
           2575      1.09207e+8 
           2585      1.02732e+8 
           2595      9.77456e+7 
           2605      9.00239e+7 
           2615       8.8896e+7 
           2625      1.01161e+8 
           2635      1.03607e+8 
           2645      1.26012e+8 
           2655      1.24263e+8 
           2665      1.04374e+8 
           2675      1.15425e+8 
           2685      1.07659e+8 
           2695      1.07028e+8 
           2705      1.13245e+8 
           2715      1.04506e+8 
           2725       1.0682e+8 
           2735       1.1783e+8 
           2745      8.48351e+7 
           2755       8.6985e+7 
           2765       9.2891e+7 
           2775       1.0777e+8 
           2785      1.02621e+8 
           2795      5.41896e+7 
           2805      7.00261e+7 
           2815      1.08685e+8 
           2825      1.17617e+8 
           2835      1.06739e+8 
           2845      1.03086e+8 
           2855       9.9421e+7 
           2865      1.11666e+8 
           2875      1.05426e+8 
           2885      1.06874e+8 
           2895      9.97447e+7 
           2910      1.17893e+8 
           2930      1.10782e+8 
           2950       1.1093e+8 
           2970      1.14959e+8 
           2990      1.16174e+8 
           3010      1.20951e+8 
           3030      1.17608e+8 
           3050      1.14211e+8 
           3070      1.12404e+8 
           3090      1.16099e+8 
           3110      1.10128e+8 
           3130      1.08871e+8 
           3150      1.12121e+8 
           3170       1.0971e+8 
           3190      1.04085e+8 
           3210       1.0719e+8 
           3230      1.04523e+8 
           3250      1.05474e+8 
           3270      1.04888e+8 
           3290       1.0558e+8 
           3310      1.06127e+8 
           3330      1.02373e+8 
           3350      1.00811e+8 
           3370        9.997e+7 
           3390      9.90004e+7 
           3410      1.01601e+8 
           3430      1.00647e+8 
           3450      9.92204e+7 
           3470      9.71508e+7 
           3490      9.59198e+7 
           3510      9.74718e+7 
           3530      9.79909e+7 
           3550      9.80199e+7 
           3570      9.55473e+7 
           3590      9.47604e+7 
           3610      9.40805e+7 
           3630       9.3058e+7 
           3640      9.24764e+7 
           3650       9.3848e+7 
           3670      9.14406e+7 
           3690       9.2718e+7 
           3710       1.1321e+8 
           3730      1.36989e+8 
           3750      1.69766e+8 
           3770       1.6819e+8 
           3790      1.81119e+8 
           3810      1.93401e+8 
           3830      1.66356e+8 
           3850      1.90966e+8 
           3870      1.93741e+8 
           3890      1.61755e+8 
           3910      1.87782e+8 
           3930      1.82056e+8 
           3950      1.86113e+8 
           3970       1.4977e+8 
           3990      1.81345e+8 
           4010      1.78306e+8 
           4030      1.74137e+8 
           4050        1.749e+8 
           4070      1.70299e+8 
           4090      1.67813e+8 
           4110      1.43403e+8 
           4130      1.60985e+8 
           4150      1.63961e+8 
           4170      1.59733e+8 
           4190      1.58603e+8 
           4210      1.57814e+8 
           4230      1.55676e+8 
           4250      1.51958e+8 
           4270      1.49482e+8 
           4290      1.49377e+8 
           4310      1.45349e+8 
           4330      1.38255e+8 
           4350      1.23432e+8 
           4370      1.41756e+8 
           4390      1.37529e+8 
           4410      1.37966e+8 
           4430      1.35706e+8 
           4450      1.35059e+8 
           4470      1.32773e+8 
           4490      1.29614e+8 
           4510      1.29878e+8 
           4530      1.27313e+8 
           4550      1.24262e+8 
           4570      1.25975e+8 
           4590      1.21925e+8 
           4610      1.24062e+8 
           4630      1.18933e+8 
           4650      1.20703e+8 
           4670      1.18362e+8 
           4690      1.17733e+8 
           4710      1.14076e+8 
           4730      1.14582e+8 
           4750      1.13148e+8 
           4770      1.12953e+8 
           4790      1.11301e+8 
           4810      1.09031e+8 
           4830      1.07274e+8 
           4850      1.01978e+8 
           4870      8.86669e+7 
           4890       1.0426e+8 
           4910      1.02753e+8 
           4930      1.00678e+8 
           4950       1.0052e+8 
           4970      9.99166e+7 
           4990      9.79825e+7 
           5010      9.40574e+7 
           5030      9.39482e+7 
           5050      9.19248e+7 
           5070      9.25259e+7 
           5090      9.14367e+7 
           5110      8.98509e+7 
           5130      8.93864e+7 
           5150      8.70757e+7 
           5170      8.62285e+7 
           5190      8.54911e+7 
           5210      8.38561e+7 
           5230      8.28249e+7 
           5250      8.31983e+7 
           5270      8.08765e+7 
           5290      8.21441e+7 
           5310      7.95276e+7 
           5330      7.94663e+7 
           5350       7.9438e+7 
           5370      7.84842e+7 
           5390       7.7563e+7 
           5410       7.6154e+7 
           5430      7.53091e+7 
           5450      7.51429e+7 
           5470      7.40619e+7 
           5490      7.36845e+7 
           5510      7.25549e+7 
           5530      7.21247e+7 
           5550      7.14762e+7 
           5570      7.05898e+7 
           5590      7.01013e+7 
           5610      6.97041e+7 
           5630      6.89744e+7 
           5650      6.71805e+7 
           5670      6.69008e+7 
           5690      6.66908e+7 
           5710      6.60973e+7 
           5730      6.54393e+7 
           5750      6.46761e+7 
           5770      6.40486e+7 
           5790      6.30821e+7 
           5810      6.24722e+7 
           5830      6.18448e+7 
           5850      6.13621e+7 
           5870      6.03007e+7 
           5890      5.96725e+7 
           5910      5.93362e+7 
           5930      5.89602e+7 
           5950      5.75738e+7 
           5970      5.74783e+7 
           5990      5.66636e+7 
           6010       5.6527e+7 
           6030      5.59568e+7 
           6050      5.52025e+7 
           6070      5.47034e+7 
           6090      5.41151e+7 
           6110      5.37069e+7 
           6130      5.31064e+7 
           6150      5.15593e+7 
           6170      5.20014e+7 
           6190      5.16138e+7 
           6210      5.10973e+7 
           6230      5.04164e+7 
           6250      4.91173e+7 
           6270      4.95768e+7 
           6290      4.90488e+7 
           6310      4.82482e+7 
           6330      4.80256e+7 
           6350      4.63875e+7 
           6370      4.63056e+7 
           6390       4.6508e+7 
           6410       4.5966e+7 
           6430      4.57316e+7 
           6450      4.46678e+7 
           6470      4.49717e+7 
           6490      4.40957e+7 
           6510      4.36758e+7 
           6530      4.32514e+7 
           6550      4.13131e+7 
           6570       3.5183e+7 
           6590      4.19625e+7 
           6610      4.19021e+7 
           6630      4.14817e+7 
           6650       4.1236e+7 
           6670      4.06597e+7 
           6690       4.0305e+7 
           6710      4.00483e+7 
           6730       3.9552e+7 
           6750      3.92708e+7 
           6770      3.89734e+7 
           6790       3.8508e+7 
           6810      3.81944e+7 
           6830      3.76698e+7 
           6850      3.74646e+7 
           6870      3.71247e+7 
           6890      3.68158e+7 
           6910      3.64389e+7 
           6930      3.59857e+7 
           6950      3.58194e+7 
           6970      3.54676e+7 
           6990      3.52079e+7 
           7010      3.46929e+7 
           7030      3.45507e+7 
           7050      3.41033e+7 
           7070      3.38134e+7 
           7090      3.36551e+7 
           7110      3.31858e+7 
           7130      3.29243e+7 
           7150      3.26667e+7 
           7170      3.23814e+7 
           7190      3.21257e+7 
           7210      3.18789e+7 
           7230      3.14347e+7 
           7250      3.11726e+7 
           7270      3.10092e+7 
           7290       3.0706e+7 
           7310      3.03817e+7 
           7330       3.0174e+7 
           7350      2.99968e+7 
           7370      2.97447e+7 
           7390      2.94646e+7 
           7410      2.91679e+7 
           7430      2.87278e+7 
           7450      2.85684e+7 
           7470      2.82104e+7 
           7490      2.80727e+7 
           7510      2.77777e+7 
           7530      2.76928e+7 
           7550      2.74736e+7 
           7570      2.72333e+7 
           7590      2.69533e+7 
           7610      2.68222e+7 
           7630      2.65582e+7 
           7650       2.6245e+7 
           7670      2.60847e+7 
           7690      2.58453e+7 
           7710      2.55866e+7 
           7730      2.54329e+7 
           7750      2.52209e+7 
           7770      2.44217e+7 
           7790      2.47937e+7 
           7810      2.46372e+7 
           7830      2.44003e+7 
           7850      2.39857e+7 
           7870      2.38208e+7 
           7890      2.35095e+7 
           7910      2.35666e+7 
           7930      2.34185e+7 
           7950      2.29426e+7 
           7970      2.30311e+7 
           7990      2.23866e+7 
           8010      2.26577e+7 
           8030      2.24632e+7 
           8050      2.22576e+7 
           8070      2.20953e+7 
           8090      2.19102e+7 
           8110      2.16895e+7 
           8130      2.15578e+7 
           8150      2.14028e+7 
           8170      2.12439e+7 
           8190      2.09595e+7 
           8210      2.06557e+7 
           8230      2.03218e+7 
           8250      2.04813e+7 
           8270      2.04358e+7 
           8290      2.01356e+7 
           8310      2.00339e+7 
           8330      1.97728e+7 
           8350      1.96598e+7 
           8370       1.9331e+7 
           8390      1.92758e+7 
           8410      1.90399e+7 
           8430      1.92624e+7 
           8450      1.88105e+7 
           8470      1.84104e+7 
           8490      1.96304e+7 
           8510      1.79641e+7 
           8530      1.98138e+7 
           8550       1.7549e+7 
           8570      1.98893e+7 
           8590      1.88232e+7 
           8610      1.82942e+7 
           8630       1.9898e+7 
           8650      1.95911e+7 
           8670      1.68015e+7 
           8690      1.93732e+7 
           8710       1.9553e+7 
           8730      1.92045e+7 
           8750      1.64204e+7 
           8770      1.88152e+7 
           8790      1.90032e+7 
           8810      1.88568e+7 
           8830       1.8441e+7 
           8850      1.80283e+7 
           8870      1.58345e+7 
           8890      1.81925e+7 
           8910      1.80772e+7 
           8930      1.78635e+7 
           8950      1.79169e+7 
           8970      1.77729e+7 
           8990      1.75196e+7 
           9010      1.53541e+7 
           9030      1.65692e+7 
           9050      1.71759e+7 
           9070      1.68071e+7 
           9090      1.67022e+7 
           9110      1.66834e+7 
           9130      1.66335e+7 
           9150      1.65932e+7 
           9170      1.63812e+7 
           9190      1.61266e+7 
