# Kurucz ODFNEW /NOVER (2003)
# teff = 32000 K (value for the effective temperature for the model. Temperatures are given in K)
# logg = 4.5 log(cm/s2) (value for Log(G) for the model.)
# meta = 0.2  (value for the Metallicity for the model.)
# lh = 1.25  (l/Hp where l is the  mixing length of the convective element and Hp is the pressure scale height)
# vtur = 2 km/s (Microturbulence velocity)
# alpha = 0  (Alpha)
#
# column 1: WAVELENGTH (ANGSTROM), Wavelength in Angstrom
# column 2: FLUX (ERG/CM2/S/A), Flux in erg/cm2/s/A
          147.2      6.13363e-7 
            151      1.73338e-6 
          155.2       5.1585e-6 
          158.8      1.25657e-5 
            162      2.68465e-5 
            166      6.66358e-5 
          170.3     0.000168386 
          173.4     0.000320641 
          176.8     0.000633076 
          180.2      0.00121609 
          181.7      0.00161361 
          186.1      0.00358105 
            191       0.0083472 
          193.9       0.0134941 
          198.4       0.0277093 
          201.8       0.0466619 
            205       0.0750276 
          210.5        0.164413 
          216.2        0.354296 
          219.8        0.566817 
            223        0.847867 
          226.8         1.37258 
            230         323.987 
            234         690.698 
            240         1152.75 
          246.5         2027.17 
          252.4         3384.17 
          256.8         4719.75 
            260         7897.39 
            264         12299.8 
          268.5         18280.9 
          273.5         25700.9 
          278.5         33822.1 
            284         72122.1 
            290          105623 
            296          143957 
            301          207681 
            308          475876 
            318          987423 
            328      1.46939e+6 
            338      2.57729e+6 
            348      4.01821e+6 
            357       9.1876e+6 
            366      1.79346e+7 
            375       2.2024e+7 
            385      3.21894e+7 
            395      5.65704e+7 
            405       7.0332e+7 
            414      9.33889e+7 
            422       1.0715e+8 
            430      1.28084e+8 
            441      1.60991e+8 
            451      1.83498e+8 
            460      2.00365e+8 
            470      2.43638e+8 
            480      2.89954e+8 
            490      3.27869e+8 
            500      3.91286e+8 
            506      7.54839e+8 
            512      5.72199e+9 
            520      5.38692e+9 
            530      4.91344e+9 
            540      4.52605e+9 
            550      5.57398e+9 
            560      6.90583e+9 
            570      7.22592e+9 
            580      6.57865e+9 
            590      7.09271e+9 
            600      5.83878e+9 
            610      7.10784e+9 
            620      8.25218e+9 
            630      7.96485e+9 
            640        7.664e+9 
            650      7.57989e+9 
            658      6.68006e+9 
            665      7.78811e+9 
            675      8.48835e+9 
            685      6.87238e+9 
            695       9.2407e+9 
            705      7.60091e+9 
            716      9.87061e+9 
            726      9.58342e+9 
            735      9.58586e+9 
            745      9.49519e+9 
            755      9.49845e+9 
            765      9.73906e+9 
            775     1.00564e+10 
            785     1.04339e+10 
            795     1.04115e+10 
            805     1.00184e+10 
            815      9.93004e+9 
            825     1.05321e+10 
            835      8.59876e+9 
            845     1.00426e+10 
            855      9.93223e+9 
            865     1.02703e+10 
            875     1.03902e+10 
            885     1.06594e+10 
            895     1.07611e+10 
            905     1.04225e+10 
            915     1.10415e+10 
            925     3.52181e+10 
            935     5.88305e+10 
            945     8.31439e+10 
            955     9.15031e+10 
            965     1.05653e+11 
            975     3.66039e+10 
            985     8.43406e+10 
            995     7.65046e+10 
           1005     8.14685e+10 
           1015     8.55647e+10 
           1025      6.2464e+10 
           1035     8.06826e+10 
           1045     9.63846e+10 
           1055     9.03961e+10 
           1065     7.62144e+10 
           1075     8.04689e+10 
           1085      7.3181e+10 
           1095     7.84643e+10 
           1105     7.45607e+10 
           1115     7.33565e+10 
           1125     5.85265e+10 
           1135     6.98612e+10 
           1145     6.64077e+10 
           1155     6.37406e+10 
           1165     6.14658e+10 
           1175     3.87146e+10 
           1185     5.57331e+10 
           1195      5.4055e+10 
           1205     5.03517e+10 
           1215     3.79683e+10 
           1225     4.97553e+10 
           1235     5.36655e+10 
           1245     5.13632e+10 
           1255     5.10837e+10 
           1265     5.24899e+10 
           1275     5.40057e+10 
           1285     5.38711e+10 
           1295     4.86102e+10 
           1305     4.90383e+10 
           1315     5.24804e+10 
           1325     5.01161e+10 
           1335     4.85015e+10 
           1345     4.81953e+10 
           1355      4.7226e+10 
           1365     4.51111e+10 
           1375     4.36483e+10 
           1385     4.19794e+10 
           1395     3.20545e+10 
           1405     3.33842e+10 
           1415      3.9221e+10 
           1425     3.53497e+10 
           1435     3.76871e+10 
           1442     3.74761e+10 
           1447     3.71726e+10 
           1455     3.53395e+10 
           1465     3.39618e+10 
           1475     3.43427e+10 
           1485     3.41824e+10 
           1495     3.30389e+10 
           1505     3.13738e+10 
           1512     3.00821e+10 
           1517     3.04931e+10 
           1525     2.96686e+10 
           1535     2.53852e+10 
           1545     2.21443e+10 
           1555     2.19819e+10 
           1565     2.46151e+10 
           1575     2.59589e+10 
           1585     2.60943e+10 
           1595     2.58851e+10 
           1605     2.47841e+10 
           1615     2.35262e+10 
           1625     2.40679e+10 
           1635     2.44593e+10 
           1645     2.43689e+10 
           1655     2.43765e+10 
           1665     2.40818e+10 
           1672     2.22433e+10 
           1677     2.59366e+10 
           1685      2.4518e+10 
           1695     2.34887e+10 
           1705     2.31453e+10 
           1715     2.20013e+10 
           1725     2.10848e+10 
           1735     2.18424e+10 
           1745     2.15878e+10 
           1755     2.13278e+10 
           1765     2.10107e+10 
           1775     2.00835e+10 
           1785     2.04136e+10 
           1795      2.0071e+10 
           1805     2.00366e+10 
           1815     1.91199e+10 
           1825     1.90003e+10 
           1835     1.88352e+10 
           1845     1.75238e+10 
           1855     1.79123e+10 
           1865     1.79926e+10 
           1875      1.7708e+10 
           1885     1.64943e+10 
           1895     1.58821e+10 
           1905      1.6512e+10 
           1915     1.59301e+10 
           1925     1.48735e+10 
           1935     1.58812e+10 
           1945     1.61565e+10 
           1955     1.45053e+10 
           1967     1.53191e+10 
           1976     1.58379e+10 
           1984     1.49897e+10 
           1995     1.46554e+10 
           2005     1.49145e+10 
           2015     1.48689e+10 
           2025     1.49383e+10 
           2035     1.40722e+10 
           2045     1.39755e+10 
           2055      1.1805e+10 
           2065     1.14665e+10 
           2074     1.18962e+10 
           2078     1.15198e+10 
           2085     1.20032e+10 
           2095     1.23181e+10 
           2105     1.29113e+10 
           2115     1.29823e+10 
           2125     1.28271e+10 
           2135     1.26444e+10 
           2145     1.23073e+10 
           2155     1.24213e+10 
           2165     1.19789e+10 
           2175      1.2092e+10 
           2185     1.17385e+10 
           2195     1.19062e+10 
           2205     1.17319e+10 
           2215     1.13428e+10 
           2225     1.13286e+10 
           2235     1.11143e+10 
           2245     1.09931e+10 
           2255     1.06462e+10 
           2265     1.07088e+10 
           2275     1.05872e+10 
           2285     1.03317e+10 
           2295      9.23544e+9 
           2305      9.86809e+9 
           2315      9.81114e+9 
           2325      9.75411e+9 
           2335      9.57677e+9 
           2345      9.51582e+9 
           2355      9.32717e+9 
           2365      9.18784e+9 
           2375      8.97372e+9 
           2385       8.6741e+9 
           2395      8.67669e+9 
           2405      8.63856e+9 
           2415      8.51807e+9 
           2425      8.45821e+9 
           2435      8.27833e+9 
           2445      8.20508e+9 
           2455      8.10649e+9 
           2465      7.99745e+9 
           2475      7.87453e+9 
           2485      7.65694e+9 
           2495        5.954e+9 
           2505      7.32203e+9 
           2513      7.03925e+9 
           2518      7.20622e+9 
           2525      7.34595e+9 
           2535       7.2881e+9 
           2545      7.09484e+9 
           2555      7.03364e+9 
           2565      6.95314e+9 
           2575      6.87594e+9 
           2585       6.8003e+9 
           2595      6.69596e+9 
           2605      6.64798e+9 
           2615      6.51845e+9 
           2625      6.47107e+9 
           2635      6.39654e+9 
           2645      6.28419e+9 
           2655       6.2193e+9 
           2665      6.04382e+9 
           2675      5.93922e+9 
           2685      5.96822e+9 
           2695      5.79019e+9 
           2705      5.71914e+9 
           2715      5.66329e+9 
           2725      5.62282e+9 
           2735      5.50371e+9 
           2745      5.50218e+9 
           2755      5.44444e+9 
           2765      5.34551e+9 
           2775      5.35304e+9 
           2785      5.25638e+9 
           2795      5.06741e+9 
           2805      5.09407e+9 
           2815      5.08979e+9 
           2825      5.00426e+9 
           2835      4.87714e+9 
           2845      4.90156e+9 
           2855      4.81922e+9 
           2865      4.75626e+9 
           2875      4.70409e+9 
           2885      4.64755e+9 
           2895      4.59077e+9 
           2910      4.47817e+9 
           2930        4.419e+9 
           2950      4.27959e+9 
           2970      4.19801e+9 
           2990      4.07537e+9 
           3010      3.94734e+9 
           3030      3.86766e+9 
           3050      3.80982e+9 
           3070      3.74823e+9 
           3090      3.61065e+9 
           3110      3.58189e+9 
           3130      3.48231e+9 
           3150      3.41872e+9 
           3170      3.33181e+9 
           3190      3.26133e+9 
           3210      3.18608e+9 
           3230      3.11898e+9 
           3250      3.07033e+9 
           3270      2.98388e+9 
           3290      2.93014e+9 
           3310       2.8675e+9 
           3330      2.79606e+9 
           3350      2.73424e+9 
           3370      2.67903e+9 
           3390      2.64246e+9 
           3410      2.58583e+9 
           3430      2.53504e+9 
           3450      2.46997e+9 
           3470      2.42553e+9 
           3490      2.37514e+9 
           3510      2.33026e+9 
           3530      2.29317e+9 
           3550      2.24414e+9 
           3570       2.2053e+9 
           3590       2.1456e+9 
           3610      2.10752e+9 
           3630      2.06675e+9 
           3640      2.05237e+9 
           3650      1.97771e+9 
           3670      1.94886e+9 
           3690      1.91174e+9 
           3710      1.84176e+9 
           3730      1.79574e+9 
           3750      1.79006e+9 
           3770      1.74588e+9 
           3790      1.80375e+9 
           3810      1.84777e+9 
           3830      1.65696e+9 
           3850      1.84981e+9 
           3870      1.80885e+9 
           3890       1.5563e+9 
           3910      1.80821e+9 
           3930      1.75599e+9 
           3950      1.71355e+9 
           3970      1.43555e+9 
           3990      1.66943e+9 
           4010      1.64968e+9 
           4030      1.57538e+9 
           4050       1.5978e+9 
           4070      1.52701e+9 
           4090      1.43153e+9 
           4110      1.30414e+9 
           4130      1.45739e+9 
           4150      1.44228e+9 
           4170      1.43578e+9 
           4190      1.41071e+9 
           4210      1.38801e+9 
           4230      1.36765e+9 
           4250      1.32842e+9 
           4270       1.2969e+9 
           4290      1.27529e+9 
           4310      1.23757e+9 
           4330      1.15292e+9 
           4350      1.07149e+9 
           4370      1.17961e+9 
           4390      1.16056e+9 
           4410      1.15221e+9 
           4430      1.14473e+9 
           4450       1.1232e+9 
           4470      1.07734e+9 
           4490      1.08931e+9 
           4510      1.06934e+9 
           4530        1.057e+9 
           4550      1.03537e+9 
           4570      1.02492e+9 
           4590      1.00521e+9 
           4610      9.83831e+8 
           4630       9.6275e+8 
           4650      9.18873e+8 
           4670      9.35773e+8 
           4690       9.1928e+8 
           4710       8.9804e+8 
           4730      9.03141e+8 
           4750      8.87504e+8 
           4770       8.8117e+8 
           4790       8.6652e+8 
           4810      8.49526e+8 
           4830      8.31282e+8 
           4850       7.8304e+8 
           4870      7.09812e+8 
           4890      7.93788e+8 
           4910      7.84725e+8 
           4930      7.60747e+8 
           4950      7.59717e+8 
           4970      7.54835e+8 
           4990       7.4291e+8 
           5010      7.15738e+8 
           5030      7.17845e+8 
           5050      7.05449e+8 
           5070      7.00143e+8 
           5090      6.88676e+8 
           5110      6.77842e+8 
           5130      6.65853e+8 
           5150      6.56757e+8 
           5170      6.48247e+8 
           5190      6.39987e+8 
           5210      6.31128e+8 
           5230      6.21958e+8 
           5250      6.11815e+8 
           5270      6.02541e+8 
           5290      5.95759e+8 
           5310      5.87151e+8 
           5330      5.79106e+8 
           5350      5.70797e+8 
           5370      5.63012e+8 
           5390      5.54628e+8 
           5410       5.4424e+8 
           5430       5.3997e+8 
           5450      5.32323e+8 
           5470      5.24862e+8 
           5490      5.17633e+8 
           5510      5.10916e+8 
           5530      5.03457e+8 
           5550      4.97328e+8 
           5570      4.90375e+8 
           5590      4.83232e+8 
           5610      4.77482e+8 
           5630      4.71207e+8 
           5650      4.64313e+8 
           5670      4.56766e+8 
           5690      4.46358e+8 
           5710      4.40706e+8 
           5730      4.35547e+8 
           5750      4.28762e+8 
           5770      4.24822e+8 
           5790      4.19015e+8 
           5810       4.1329e+8 
           5830      4.07123e+8 
           5850      4.03221e+8 
           5870      3.88637e+8 
           5890      3.91345e+8 
           5910      3.88075e+8 
           5930      3.83287e+8 
           5950      3.78778e+8 
           5970      3.75726e+8 
           5990      3.70334e+8 
           6010      3.66956e+8 
           6030      3.61852e+8 
           6050      3.57704e+8 
           6070      3.53684e+8 
           6090      3.49353e+8 
           6110       3.4487e+8 
           6130      3.40799e+8 
           6150      3.35528e+8 
           6170      3.31743e+8 
           6190      3.28246e+8 
           6210      3.24484e+8 
           6230       3.2056e+8 
           6250      3.16197e+8 
           6270      3.12631e+8 
           6290      3.09056e+8 
           6310      3.05075e+8 
           6330      3.01711e+8 
           6350      2.97787e+8 
           6370      2.94648e+8 
           6390      2.91035e+8 
           6410      2.87553e+8 
           6430       2.8429e+8 
           6450      2.80791e+8 
           6470        2.767e+8 
           6490       2.7371e+8 
           6510      2.70413e+8 
           6530      2.66409e+8 
           6550      2.57066e+8 
           6570      2.30559e+8 
           6590      2.55672e+8 
           6610      2.55162e+8 
           6630       2.5275e+8 
           6650       2.4975e+8 
           6670      2.44512e+8 
           6690      2.41756e+8 
           6710      2.41179e+8 
           6730      2.38001e+8 
           6750      2.35914e+8 
           6770      2.33495e+8 
           6790      2.29752e+8 
           6810      2.28144e+8 
           6830      2.25567e+8 
           6850      2.23208e+8 
           6870      2.20641e+8 
           6890      2.17751e+8 
           6910      2.15245e+8 
           6930      2.13581e+8 
           6950      2.11238e+8 
           6970      2.08934e+8 
           6990      2.06622e+8 
           7010      2.04288e+8 
           7030      2.01816e+8 
           7050      1.99823e+8 
           7070      1.94941e+8 
           7090      1.95679e+8 
           7110      1.92933e+8 
           7130      1.90933e+8 
           7150      1.89476e+8 
           7170      1.87284e+8 
           7190      1.85398e+8 
           7210      1.83516e+8 
           7230      1.79771e+8 
           7250      1.79318e+8 
           7270      1.77762e+8 
           7290      1.74655e+8 
           7310      1.74003e+8 
           7330      1.72179e+8 
           7350      1.70427e+8 
           7370      1.68685e+8 
           7390      1.66945e+8 
           7410      1.65215e+8 
           7430      1.63515e+8 
           7450       1.6181e+8 
           7470      1.59655e+8 
           7490      1.58219e+8 
           7510      1.56857e+8 
           7530      1.55214e+8 
           7550      1.53758e+8 
           7570      1.52184e+8 
           7590      1.50389e+8 
           7610      1.48871e+8 
           7630      1.47574e+8 
           7650      1.46108e+8 
           7670      1.44713e+8 
           7690      1.43108e+8 
           7710      1.41733e+8 
           7730      1.40181e+8 
           7750      1.39032e+8 
           7770      1.37637e+8 
           7790      1.36335e+8 
           7810      1.34946e+8 
           7830      1.33673e+8 
           7850      1.32406e+8 
           7870      1.30907e+8 
           7890      1.29548e+8 
           7910      1.28484e+8 
           7930      1.27214e+8 
           7950      1.26098e+8 
           7970      1.24814e+8 
           7990      1.23647e+8 
           8010      1.22419e+8 
           8030      1.21203e+8 
           8050      1.20148e+8 
           8070      1.18992e+8 
           8090      1.17748e+8 
           8110      1.16074e+8 
           8130      1.15652e+8 
           8150       1.1445e+8 
           8170      1.13506e+8 
           8190      1.11908e+8 
           8210      1.10525e+8 
           8230      1.09293e+8 
           8250      1.08747e+8 
           8270      1.06999e+8 
           8290      1.06686e+8 
           8310       1.0583e+8 
           8330       1.0473e+8 
           8350      1.03375e+8 
           8370      1.02715e+8 
           8390      1.02007e+8 
           8410      1.01005e+8 
           8430      1.00124e+8 
           8450      9.87007e+7 
           8470      9.83087e+7 
           8490      9.72502e+7 
           8510      9.61382e+7 
           8530       9.5486e+7 
           8550      9.43234e+7 
           8570      9.42633e+7 
