# Kurucz ODFNEW /NOVER (2003)
# teff = 7500 K (value for the effective temperature for the model. Temperatures are given in K)
# logg = 2 log(cm/s2) (value for Log(G) for the model.)
# meta = -4  (value for the Metallicity for the model.)
# lh = 1.25  (l/Hp where l is the  mixing length of the convective element and Hp is the pressure scale height)
# vtur = 2 km/s (Microturbulence velocity)
# alpha = 0.4  (Alpha)
#
# column 1: WAVELENGTH (ANGSTROM), Wavelength in Angstrom
# column 2: FLUX (ERG/CM2/S/A), Flux in erg/cm2/s/A
          147.2     1.73866e-35 
            151     1.65225e-35 
          155.2     1.56403e-35 
          158.8     1.49392e-35 
            162     1.43549e-35 
            166     1.36714e-35 
          170.3     1.29897e-35 
          173.4     1.25294e-35 
          176.8     1.20522e-35 
          180.2     1.16017e-35 
          181.7     1.14109e-35 
          186.1     1.08777e-35 
            191     1.03267e-35 
          193.9     1.00201e-35 
          198.4     9.57076e-36 
          201.8     9.25097e-36 
            205     8.96441e-36 
          210.5     8.50208e-36 
          216.2     8.05969e-36 
          219.8     7.79784e-36 
            223     7.57565e-36 
          226.8     7.32392e-36 
            230     7.12154e-36 
            234     6.88015e-36 
            240     6.54044e-36 
          246.5     6.20006e-36 
          252.4     5.91358e-36 
          256.8     5.71267e-36 
            260     5.57292e-36 
            264     5.40532e-36 
          268.5     5.22566e-36 
          273.5     5.03634e-36 
          278.5     4.85712e-36 
            284     4.67082e-36 
            290     4.47954e-36 
            296     4.29978e-36 
            301     4.15812e-36 
            308     1.49697e-23 
            318     2.84462e-22 
            328      3.1636e-21 
            338     3.01063e-20 
            348     2.50553e-19 
            357     1.51798e-18 
            366     8.39736e-18 
            375      4.2633e-17 
            385     2.36415e-16 
            395     1.19805e-15 
            405     5.59335e-15 
            414     2.09389e-14 
            422     6.44221e-14 
            430     1.89793e-13 
            441     7.84526e-13 
            451     2.67617e-12 
            460     7.69892e-12 
            470     2.37157e-11 
            480     6.95838e-11 
            490      1.9497e-10 
            500     5.22931e-10 
            506       1.0472e-9 
            512      1.93995e-9 
            520      3.99899e-9 
            530      9.59768e-9 
            540      2.20741e-8 
            550      4.94879e-8 
            560      1.07283e-7 
            570      2.25945e-7 
            580      4.60721e-7 
            590      9.25471e-7 
            600       1.8038e-6 
            610      3.43511e-6 
            620      6.39705e-6 
            630      1.16654e-5 
            640      2.08544e-5 
            650       3.6578e-5 
            658      5.65907e-5 
            665      8.21576e-5 
            675     0.000137892 
            685     0.000227744 
            695     0.000370377 
            705     0.000593474 
            716     0.000980668 
            726      0.00152636 
            735      0.00224793 
            745      0.00341532 
            755      0.00512891 
            765      0.00761345 
            775       0.0111785 
            785       0.0162393 
            795       0.0233533 
            805       0.0332567 
            815       0.0469176 
            825       0.0655904 
            835       0.0908992 
            845        0.124928 
            855        0.170347 
            865        0.230471 
            875        0.309483 
            885        0.412581 
            895         0.54617 
            905        0.718064 
            915         1.55916 
            925         6.34468 
            935         10.9491 
            945         19.7315 
            955         31.1714 
            965         32.0187 
            975          18.893 
            985         75.2857 
            995         88.0497 
           1005         82.2667 
           1015         51.6226 
           1025         61.1373 
           1035         100.574 
           1045         200.604 
           1055         307.669 
           1065         805.191 
           1075         2457.39 
           1085          4849.5 
           1095         3810.57 
           1105         3049.75 
           1115          1617.7 
           1125         924.957 
           1135         766.165 
           1145          705.37 
           1155         659.151 
           1165         442.313 
           1175          292.57 
           1185         1594.73 
           1195         644.887 
           1205         529.228 
           1215         456.192 
           1225         663.772 
           1235         1025.57 
           1245          385.06 
           1255         584.651 
           1265         931.097 
           1275          1507.8 
           1285         2938.59 
           1295         3379.96 
           1305         4537.06 
           1315         7002.68 
           1325         13540.7 
           1335         24471.6 
           1345         48184.9 
           1355         82505.9 
           1365          125941 
           1375          142968 
           1385          148392 
           1395          166212 
           1405          328403 
           1415          648929 
           1425          766084 
           1435          928036 
           1442      1.12146e+6 
           1447      1.02629e+6 
           1455      1.29393e+6 
           1465      1.24982e+6 
           1475      1.45674e+6 
           1485      1.60455e+6 
           1495      1.77929e+6 
           1505      2.00222e+6 
           1512      2.12264e+6 
           1517      1.92073e+6 
           1525      2.10377e+6 
           1535      2.16455e+6 
           1545      1.99331e+6 
           1555      1.95576e+6 
           1565      1.65583e+6 
           1575      1.59265e+6 
           1585      1.50183e+6 
           1595      1.42769e+6 
           1605      1.44658e+6 
           1615      2.16702e+6 
           1625      3.11827e+6 
           1635      4.16876e+6 
           1645      5.52072e+6 
           1655      5.70769e+6 
           1665       7.1214e+6 
           1672      7.25555e+6 
           1677      7.55527e+6 
           1685      7.94665e+6 
           1695       8.0787e+6 
           1705      8.23536e+6 
           1715      8.62735e+6 
           1725      8.71069e+6 
           1735      8.97826e+6 
           1745      8.93912e+6 
           1755      9.10981e+6 
           1765      9.13083e+6 
           1775      9.26415e+6 
           1785      9.27829e+6 
           1795      9.50854e+6 
           1805      9.41585e+6 
           1815      9.47752e+6 
           1825      9.49746e+6 
           1835      9.63488e+6 
           1845      9.51589e+6 
           1855      9.72198e+6 
           1865      9.85239e+6 
           1875      9.90638e+6 
           1885      9.96886e+6 
           1895      1.00218e+7 
           1905      9.94366e+6 
           1915      1.00901e+7 
           1925      1.01817e+7 
           1935      1.00573e+7 
           1945      1.02801e+7 
           1955      1.03142e+7 
           1967      1.03669e+7 
           1976      1.03344e+7 
           1984      1.03364e+7 
           1995      1.04471e+7 
           2005      1.04218e+7 
           2015      1.03855e+7 
           2025      1.03824e+7 
           2035      1.05508e+7 
           2045      1.05685e+7 
           2055      1.04347e+7 
           2065      1.05009e+7 
           2074      1.06989e+7 
           2078      1.07101e+7 
           2085      1.07172e+7 
           2095       1.0743e+7 
           2105      1.07764e+7 
           2115      1.07935e+7 
           2125      1.07614e+7 
           2135      1.08005e+7 
           2145      1.08891e+7 
           2155      1.09043e+7 
           2165      1.07861e+7 
           2175        1.086e+7 
           2185      1.09613e+7 
           2195      1.10649e+7 
           2205      1.09679e+7 
           2215      1.08015e+7 
           2225       1.0923e+7 
           2235      1.11513e+7 
           2245      1.11172e+7 
           2255      1.09877e+7 
           2265        1.091e+7 
           2275      1.11411e+7 
           2285      1.11809e+7 
           2295      1.11516e+7 
           2305      1.12444e+7 
           2315      1.12388e+7 
           2325      1.12553e+7 
           2335      1.11791e+7 
           2345      1.08778e+7 
           2355      1.12665e+7 
           2365       1.0966e+7 
           2375      1.12465e+7 
           2385      1.08372e+7 
           2395      1.12132e+7 
           2405      1.12504e+7 
           2415      1.12756e+7 
           2425      1.15768e+7 
           2435      1.15092e+7 
           2445      1.15621e+7 
           2455      1.16356e+7 
           2465      1.15687e+7 
           2475       1.1575e+7 
           2485      1.15778e+7 
           2495      1.15415e+7 
           2505      1.17365e+7 
           2513      1.15688e+7 
           2518      1.16037e+7 
           2525      1.15424e+7 
           2535      1.15196e+7 
           2545      1.16892e+7 
           2555      1.18836e+7 
           2565      1.17796e+7 
           2575      1.18758e+7 
           2585      1.19171e+7 
           2595      1.18971e+7 
           2605      1.18576e+7 
           2615       1.1826e+7 
           2625      1.18591e+7 
           2635      1.19705e+7 
           2645       1.2263e+7 
           2655      1.22756e+7 
           2665       1.2207e+7 
           2675      1.22544e+7 
           2685      1.23472e+7 
           2695      1.23413e+7 
           2705       1.2382e+7 
           2715      1.22751e+7 
           2725      1.22913e+7 
           2735      1.23471e+7 
           2745      1.20318e+7 
           2755      1.21427e+7 
           2765      1.23546e+7 
           2775      1.25436e+7 
           2785      1.25484e+7 
           2795       1.1976e+7 
           2805      1.23184e+7 
           2815      1.26665e+7 
           2825      1.26827e+7 
           2835      1.26389e+7 
           2845      1.26828e+7 
           2855      1.25715e+7 
           2865      1.26693e+7 
           2875      1.27395e+7 
           2885      1.27378e+7 
           2895      1.28248e+7 
           2910      1.28708e+7 
           2930      1.28388e+7 
           2950      1.28597e+7 
           2970      1.29583e+7 
           2990      1.29818e+7 
           3010      1.30544e+7 
           3030      1.30931e+7 
           3050      1.31265e+7 
           3070      1.31119e+7 
           3090      1.31866e+7 
           3110      1.32169e+7 
           3130      1.32405e+7 
           3150      1.32604e+7 
           3170      1.32961e+7 
           3190      1.32794e+7 
           3210       1.3343e+7 
           3230      1.33028e+7 
           3250      1.33814e+7 
           3270      1.34346e+7 
           3290      1.34631e+7 
           3310      1.34863e+7 
           3330      1.34831e+7 
           3350      1.34696e+7 
           3370      1.35033e+7 
           3390       1.3525e+7 
           3410      1.35729e+7 
           3430      1.35874e+7 
           3450       1.3599e+7 
           3470      1.36101e+7 
           3490      1.36243e+7 
           3510      1.36371e+7 
           3530       1.3648e+7 
           3550       1.3657e+7 
           3570      1.36599e+7 
           3590      1.36669e+7 
           3610      1.36731e+7 
           3630      1.36772e+7 
           3640       1.3677e+7 
           3650      1.37421e+7 
           3670      1.35829e+7 
           3690      1.42174e+7 
           3710      1.81403e+7 
           3730      2.31661e+7 
           3750      3.28146e+7 
           3770      3.48344e+7 
           3790      4.15622e+7 
           3810      4.80433e+7 
           3830      3.87082e+7 
           3850      5.22274e+7 
           3870      5.71978e+7 
           3890      3.39806e+7 
           3910      5.63415e+7 
           3930      5.77452e+7 
           3950      5.54935e+7 
           3970      3.26895e+7 
           3990      5.31914e+7 
           4010      5.62865e+7 
           4030      5.59496e+7 
           4050      5.52468e+7 
           4070       5.3875e+7 
           4090      4.46699e+7 
           4110      3.46753e+7 
           4130       5.1442e+7 
           4150      5.20782e+7 
           4170      5.16925e+7 
           4190      5.12174e+7 
           4210       5.0666e+7 
           4230      5.00723e+7 
           4250       4.9479e+7 
           4270      4.88121e+7 
           4290      4.80919e+7 
           4310      4.67685e+7 
           4330      3.76591e+7 
           4350      3.21611e+7 
           4370      4.49446e+7 
           4390      4.54294e+7 
           4410      4.51287e+7 
           4430      4.47547e+7 
           4450      4.42868e+7 
           4470      4.37952e+7 
           4490      4.33293e+7 
           4510       4.2868e+7 
           4530      4.24096e+7 
           4550      4.19484e+7 
           4570      4.15117e+7 
           4590      4.10756e+7 
           4610      4.06473e+7 
           4630      4.02178e+7 
           4650      3.98012e+7 
           4670      3.93867e+7 
           4690      3.89796e+7 
           4710      3.85711e+7 
           4730        3.818e+7 
           4750       3.7789e+7 
           4770      3.73718e+7 
           4790      3.69043e+7 
           4810      3.63929e+7 
           4830      3.54478e+7 
           4850      2.98949e+7 
           4870       2.4489e+7 
           4890      3.39909e+7 
           4910      3.45506e+7 
           4930      3.43793e+7 
           4950      3.41313e+7 
           4970      3.38312e+7 
           4990      3.35016e+7 
           5010      3.31701e+7 
           5030      3.28517e+7 
           5050      3.25344e+7 
           5070      3.22196e+7 
           5090      3.19102e+7 
           5110      3.16046e+7 
           5130      3.13029e+7 
           5150      3.10048e+7 
           5170      3.06949e+7 
           5190      3.04126e+7 
           5210      3.01352e+7 
           5230      2.98501e+7 
           5250      2.95739e+7 
           5270      2.92956e+7 
           5290       2.9026e+7 
           5310      2.87556e+7 
           5330      2.84912e+7 
           5350      2.82299e+7 
           5370      2.79703e+7 
           5390      2.77152e+7 
           5410       2.7463e+7 
           5430      2.72138e+7 
           5450      2.69675e+7 
           5470      2.67241e+7 
           5490      2.64835e+7 
           5510      2.62456e+7 
           5530      2.60118e+7 
           5550      2.57806e+7 
           5570      2.55509e+7 
           5590       2.5325e+7 
           5610      2.51016e+7 
           5630      2.48808e+7 
           5650      2.46625e+7 
           5670      2.44467e+7 
           5690      2.42332e+7 
           5710      2.40221e+7 
           5730      2.38134e+7 
           5750       2.3607e+7 
           5770      2.34041e+7 
           5790      2.32022e+7 
           5810      2.30037e+7 
           5830      2.28062e+7 
           5850       2.2612e+7 
           5870      2.24167e+7 
           5890      2.22278e+7 
           5910      2.20409e+7 
           5930       2.1855e+7 
           5950      2.16711e+7 
           5970      2.14891e+7 
           5990      2.13091e+7 
           6010       2.1131e+7 
           6030      2.09548e+7 
           6050      2.07815e+7 
           6070       2.0609e+7 
           6090      2.04393e+7 
           6110      2.02714e+7 
           6130      2.01043e+7 
           6150      1.99398e+7 
           6170      1.97771e+7 
           6190      1.96161e+7 
           6210      1.94567e+7 
           6230       1.9299e+7 
           6250      1.91429e+7 
           6270      1.89884e+7 
           6290      1.88355e+7 
           6310      1.86841e+7 
           6330      1.85342e+7 
           6350      1.83859e+7 
           6370        1.824e+7 
           6390      1.80946e+7 
           6410      1.79507e+7 
           6430      1.78092e+7 
           6450      1.76672e+7 
           6470      1.75221e+7 
           6490       1.7341e+7 
           6510      1.71537e+7 
           6530       1.6835e+7 
           6550      1.53177e+7 
           6570      1.23741e+7 
           6590      1.61802e+7 
           6610      1.64489e+7 
           6630      1.64038e+7 
           6650      1.63164e+7 
           6670      1.62119e+7 
           6690      1.60873e+7 
           6710      1.59639e+7 
           6730      1.58418e+7 
           6750      1.57207e+7 
           6770      1.56009e+7 
           6790      1.54821e+7 
           6810      1.53645e+7 
           6830       1.5248e+7 
           6850      1.51334e+7 
           6870      1.50191e+7 
           6890      1.49058e+7 
           6910      1.47944e+7 
           6930      1.46833e+7 
           6950      1.45731e+7 
           6970      1.44648e+7 
           6990      1.43567e+7 
           7010      1.42504e+7 
           7030       1.4145e+7 
           7050      1.40399e+7 
           7070      1.39364e+7 
           7090      1.38339e+7 
           7110      1.37324e+7 
           7130       1.3631e+7 
           7150      1.35312e+7 
           7170      1.34324e+7 
           7190      1.33345e+7 
           7210      1.32374e+7 
           7230      1.31412e+7 
           7250      1.30459e+7 
           7270      1.29514e+7 
           7290      1.28577e+7 
           7310      1.27649e+7 
           7330      1.26729e+7 
           7350      1.25817e+7 
           7370      1.24913e+7 
           7390      1.24017e+7 
           7410      1.23129e+7 
           7430      1.22256e+7 
           7450      1.21383e+7 
           7470      1.20518e+7 
           7490      1.19667e+7 
           7510      1.18817e+7 
           7530       1.1798e+7 
           7550      1.17144e+7 
           7570      1.16323e+7 
           7590      1.15501e+7 
           7610      1.14693e+7 
           7630      1.13892e+7 
           7650      1.13091e+7 
           7670      1.12304e+7 
           7690      1.11523e+7 
           7710      1.10749e+7 
           7730      1.09974e+7 
           7750      1.09213e+7 
           7770      1.08439e+7 
           7790       1.0771e+7 
           7810      1.06967e+7 
           7830      1.06231e+7 
           7850      1.05501e+7 
           7870      1.04777e+7 
           7890      1.04059e+7 
           7910      1.03352e+7 
           7930      1.02646e+7 
           7950      1.01945e+7 
           7970      1.01251e+7 
           7990      1.00567e+7 
           8010      9.98836e+6 
           8030      9.92114e+6 
           8050      9.85388e+6 
           8070      9.78717e+6 
           8090      9.72157e+6 
           8110       9.6565e+6 
           8130      9.59138e+6 
           8150      9.52735e+6 
           8170      9.46382e+6 
           8190      9.40025e+6 
           8210      9.35674e+6 
           8230      9.29964e+6 
           8250      9.24354e+6 
           8270      9.18676e+6 
           8290       9.1244e+6 
           8310      9.05216e+6 
           8330      8.97346e+6 
           8350      8.91593e+6 
           8370      8.76475e+6 
           8390      8.72569e+6 
           8410      8.62991e+6 
           8430       8.7226e+6 
           8450      8.68611e+6 
           8470      8.29015e+6 
           8490      8.90968e+6 
           8510      8.14477e+6 
           8530      8.99252e+6 
           8550      7.88683e+6 
           8570      9.10523e+6 
           8590      8.50382e+6 
