# Kurucz ODFNEW /NOVER (2003)
# teff = 27000 K (value for the effective temperature for the model. Temperatures are given in K)
# logg = 4 log(cm/s2) (value for Log(G) for the model.)
# meta = -2  (value for the Metallicity for the model.)
# lh = 1.25  (l/Hp where l is the  mixing length of the convective element and Hp is the pressure scale height)
# vtur = 2 km/s (Microturbulence velocity)
# alpha = 0.4  (Alpha)
#
# column 1: WAVELENGTH (ANGSTROM), Wavelength in Angstrom
# column 2: FLUX (ERG/CM2/S/A), Flux in erg/cm2/s/A
          147.2     5.49137e-12 
            151     2.25896e-11 
          155.2     9.95007e-11 
          158.8     3.33265e-10 
            162      9.3311e-10 
            166      3.19474e-9 
          170.3       1.1244e-8 
          173.4      2.67879e-8 
          176.8      6.69691e-8 
          180.2      1.61657e-7 
          181.7      2.35977e-7 
          186.1      6.90875e-7 
            191      2.15364e-6 
          193.9      4.10635e-6 
          198.4      1.07594e-5 
          201.8      2.16334e-5 
            205       4.0858e-5 
          210.5     0.000116445 
          216.2      0.00032537 
          219.8     0.000605182 
            223      0.00103279 
          226.8      0.00190964 
            230        0.132902 
            234        0.314492 
            240        0.681252 
          246.5         1.51722 
          252.4         3.05378 
          256.8         4.53295 
            260         6.99123 
            264         10.4442 
          268.5         16.5256 
          273.5         26.7727 
          278.5         42.6315 
            284         70.1697 
            290         116.938 
            296         190.321 
            301         277.192 
            308         437.791 
            318         974.495 
            328         1870.31 
            338         3516.22 
            348         6287.84 
            357         10475.5 
            366         16919.9 
            375         25954.1 
            385         41575.6 
            395         64147.2 
            405         96754.2 
            414          138426 
            422          184900 
            430          245353 
            441          357550 
            451          496302 
            460          650606 
            470          874681 
            480      1.15359e+6 
            490      1.50456e+6 
            500      1.94347e+6 
            506      1.25641e+7 
            512      3.85648e+7 
            520      4.27861e+7 
            530      5.12736e+7 
            540       5.2277e+7 
            550      6.59719e+7 
            560      7.29156e+7 
            570      8.24433e+7 
            580      8.14168e+7 
            590      9.83923e+7 
            600      1.09074e+8 
            610       1.2129e+8 
            620      1.31208e+8 
            630      1.44351e+8 
            640      1.52366e+8 
            650      1.68079e+8 
            658      1.80201e+8 
            665      1.89751e+8 
            675      1.99343e+8 
            685      2.11148e+8 
            695      2.36501e+8 
            705      2.46476e+8 
            716      2.69811e+8 
            726      2.84951e+8 
            735      3.03371e+8 
            745      3.24556e+8 
            755      3.43364e+8 
            765      3.62667e+8 
            775      3.85326e+8 
            785      4.07948e+8 
            795      4.26015e+8 
            805      4.48669e+8 
            815      4.67786e+8 
            825      4.93129e+8 
            835       4.9575e+8 
            845       5.3442e+8 
            855      5.55799e+8 
            865       5.8154e+8 
            875      6.07835e+8 
            885      6.33474e+8 
            895      6.57445e+8 
            905      6.75056e+8 
            915      9.86523e+8 
            925      7.49254e+9 
            935     1.69523e+10 
            945     3.43578e+10 
            955     4.00644e+10 
            965     4.89589e+10 
            975     2.42189e+10 
            985      4.8548e+10 
            995     4.55413e+10 
           1005     4.70453e+10 
           1015     4.47662e+10 
           1025     2.33788e+10 
           1035     4.15652e+10 
           1045     4.59413e+10 
           1055      4.4604e+10 
           1065     4.11098e+10 
           1075      4.1884e+10 
           1085      3.8949e+10 
           1095     4.09429e+10 
           1105     3.91963e+10 
           1115     3.84358e+10 
           1125     3.58297e+10 
           1135     3.71546e+10 
           1145     3.51464e+10 
           1155     3.54074e+10 
           1165     3.48993e+10 
           1175      3.0253e+10 
           1185     3.30659e+10 
           1195     3.14754e+10 
           1205     2.84436e+10 
           1215      1.5637e+10 
           1225     2.88555e+10 
           1235     2.99091e+10 
           1245     2.91122e+10 
           1255     2.88199e+10 
           1265     2.81283e+10 
           1275     2.78557e+10 
           1285     2.72618e+10 
           1295     2.51082e+10 
           1305        2.53e+10 
           1315     2.55724e+10 
           1325     2.47501e+10 
           1335     2.39559e+10 
           1345     2.38071e+10 
           1355     2.36109e+10 
           1365     2.28396e+10 
           1375     2.24887e+10 
           1385     2.21239e+10 
           1395     2.04546e+10 
           1405     2.03878e+10 
           1415     2.06632e+10 
           1425     2.02407e+10 
           1435     1.99815e+10 
           1442     1.98333e+10 
           1447     1.96083e+10 
           1455     1.92669e+10 
           1465     1.88661e+10 
           1475      1.8509e+10 
           1485     1.81717e+10 
           1495     1.77929e+10 
           1505     1.72213e+10 
           1512      1.7077e+10 
           1517     1.69548e+10 
           1525     1.66656e+10 
           1535     1.59588e+10 
           1545     1.56681e+10 
           1555     1.52779e+10 
           1565     1.53022e+10 
           1575     1.51688e+10 
           1585      1.4923e+10 
           1595     1.46887e+10 
           1605     1.41886e+10 
           1615     1.39098e+10 
           1625     1.37681e+10 
           1635     1.35873e+10 
           1645     1.30707e+10 
           1655     1.31913e+10 
           1665     1.29586e+10 
           1672     1.27762e+10 
           1677      1.2827e+10 
           1685     1.26105e+10 
           1695     1.23454e+10 
           1705     1.20876e+10 
           1715     1.17922e+10 
           1725     1.16012e+10 
           1735     1.15097e+10 
           1745     1.12986e+10 
           1755     1.11429e+10 
           1765     1.08453e+10 
           1775     1.06919e+10 
           1785     1.05594e+10 
           1795     1.04378e+10 
           1805     1.03041e+10 
           1815     1.00744e+10 
           1825      9.92999e+9 
           1835      9.77361e+9 
           1845      9.42647e+9 
           1855      9.20949e+9 
           1865      9.15714e+9 
           1875      9.11566e+9 
           1885      8.77152e+9 
           1895      8.50861e+9 
           1905      8.59942e+9 
           1915      8.32729e+9 
           1925      8.16608e+9 
           1935       8.1652e+9 
           1945      8.12408e+9 
           1955      7.78717e+9 
           1967      7.83344e+9 
           1976      7.81839e+9 
           1984      7.60617e+9 
           1995      7.37921e+9 
           2005      7.42312e+9 
           2015      7.36577e+9 
           2025      7.28934e+9 
           2035       7.1149e+9 
           2045      7.00864e+9 
           2055      6.68046e+9 
           2065      6.56998e+9 
           2074      6.62483e+9 
           2078       6.4971e+9 
           2085      6.52427e+9 
           2095      6.43801e+9 
           2105      6.43931e+9 
           2115      6.38109e+9 
           2125      6.30849e+9 
           2135      6.21168e+9 
           2145      6.10403e+9 
           2155      6.03827e+9 
           2165      5.95271e+9 
           2175      5.86999e+9 
           2185        5.786e+9 
           2195      5.71777e+9 
           2205      5.63704e+9 
           2215      5.55309e+9 
           2225      5.47916e+9 
           2235       5.4003e+9 
           2245      5.33354e+9 
           2255      5.24952e+9 
           2265       5.1888e+9 
           2275       5.1189e+9 
           2285       5.0493e+9 
           2295      4.91792e+9 
           2305      4.90661e+9 
           2315      4.84519e+9 
           2325       4.7813e+9 
           2335      4.71335e+9 
           2345      4.65652e+9 
           2355      4.59681e+9 
           2365       4.5364e+9 
           2375      4.47477e+9 
           2385      4.41037e+9 
           2395      4.35825e+9 
           2405      4.30299e+9 
           2415      4.24495e+9 
           2425      4.19374e+9 
           2435      4.13631e+9 
           2445      4.08559e+9 
           2455      4.03462e+9 
           2465      3.98366e+9 
           2475      3.93247e+9 
           2485      3.88301e+9 
           2495      3.72413e+9 
           2505      3.78415e+9 
           2513      3.72257e+9 
           2518       3.7182e+9 
           2525       3.6917e+9 
           2535      3.64657e+9 
           2545      3.58249e+9 
           2555      3.55191e+9 
           2565      3.51133e+9 
           2575      3.47053e+9 
           2585      3.42839e+9 
           2595      3.38686e+9 
           2605       3.3654e+9 
           2615      3.32462e+9 
           2625      3.28386e+9 
           2635      3.23967e+9 
           2645      3.20036e+9 
           2655       3.1585e+9 
           2665      3.11548e+9 
           2675      3.07686e+9 
           2685      3.05701e+9 
           2695      2.99977e+9 
           2705      2.98412e+9 
           2715      2.94965e+9 
           2725      2.89461e+9 
           2735      2.87761e+9 
           2745      2.84689e+9 
           2755      2.81439e+9 
           2765      2.76096e+9 
           2775      2.75083e+9 
           2785      2.71868e+9 
           2795      2.66661e+9 
           2805      2.65065e+9 
           2815      2.62729e+9 
           2825      2.57331e+9 
           2835      2.55299e+9 
           2845      2.53922e+9 
           2855         2.51e+9 
           2865      2.48213e+9 
           2875      2.45455e+9 
           2885      2.42761e+9 
           2895      2.40039e+9 
           2910      2.36018e+9 
           2930      2.30859e+9 
           2950      2.24375e+9 
           2970      2.20979e+9 
           2990      2.16204e+9 
           3010      2.11503e+9 
           3030      2.07099e+9 
           3050      2.02752e+9 
           3070      1.98508e+9 
           3090      1.93965e+9 
           3110      1.90299e+9 
           3130       1.8649e+9 
           3150      1.82656e+9 
           3170      1.78893e+9 
           3190      1.73902e+9 
           3210      1.71614e+9 
           3230      1.68163e+9 
           3250      1.64798e+9 
           3270      1.61693e+9 
           3290      1.58278e+9 
           3310      1.55384e+9 
           3330      1.52331e+9 
           3350      1.49107e+9 
           3370      1.46467e+9 
           3390      1.43656e+9 
           3410      1.40906e+9 
           3430      1.37622e+9 
           3450       1.3454e+9 
           3470      1.32374e+9 
           3490      1.29865e+9 
           3510      1.27836e+9 
           3530      1.25669e+9 
           3550      1.23363e+9 
           3570      1.21695e+9 
           3590      1.18735e+9 
           3610      1.16842e+9 
           3630      1.14458e+9 
           3640      1.14182e+9 
           3650      1.12836e+9 
           3670       1.1128e+9 
           3690      1.08837e+9 
           3710      1.05168e+9 
           3730      1.01151e+9 
           3750      1.05388e+9 
           3770      1.04962e+9 
           3790      1.09184e+9 
           3810      1.13052e+9 
           3830      9.98241e+8 
           3850      1.14731e+9 
           3870      1.14634e+9 
           3890      9.46572e+8 
           3910      1.12217e+9 
           3930      1.10251e+9 
           3950      1.08406e+9 
           3970       8.7783e+8 
           3990      1.04189e+9 
           4010      1.02972e+9 
           4030      9.78143e+8 
           4050      1.00429e+9 
           4070      9.80617e+8 
           4090      9.18374e+8 
           4110      8.12421e+8 
           4130      9.22492e+8 
           4150      9.12135e+8 
           4170      9.03081e+8 
           4190      8.89395e+8 
           4210      8.74949e+8 
           4230      8.60316e+8 
           4250      8.45313e+8 
           4270      8.29851e+8 
           4290      8.16952e+8 
           4310        8.001e+8 
           4330      7.38413e+8 
           4350      6.76689e+8 
           4370      7.60407e+8 
           4390      7.35217e+8 
           4410      7.39508e+8 
           4430      7.26184e+8 
           4450      7.17046e+8 
           4470      6.80006e+8 
           4490      6.93937e+8 
           4510      6.83573e+8 
           4530      6.72778e+8 
           4550       6.6169e+8 
           4570      6.51203e+8 
           4590      6.41106e+8 
           4610      6.31425e+8 
           4630      6.21764e+8 
           4650      6.09911e+8 
           4670      6.02314e+8 
           4690      5.92512e+8 
           4710      5.77149e+8 
           4730      5.75612e+8 
           4750      5.66735e+8 
           4770      5.58548e+8 
           4790       5.5015e+8 
           4810      5.41628e+8 
           4830      5.31193e+8 
           4850      4.97848e+8 
           4870      4.48338e+8 
           4890      5.06972e+8 
           4910      5.02054e+8 
           4930       4.8517e+8 
           4950      4.88176e+8 
           4970      4.81372e+8 
           4990       4.7439e+8 
           5010       4.6231e+8 
           5030      4.60815e+8 
           5050      4.51765e+8 
           5070      4.47768e+8 
           5090      4.41377e+8 
           5110      4.35144e+8 
           5130      4.28981e+8 
           5150      4.22943e+8 
           5170      4.17027e+8 
           5190      4.11232e+8 
           5210      4.05485e+8 
           5230      3.99897e+8 
           5250      3.94368e+8 
           5270      3.88939e+8 
           5290      3.83607e+8 
           5310      3.78371e+8 
           5330      3.73217e+8 
           5350      3.68141e+8 
           5370       3.6317e+8 
           5390      3.58263e+8 
           5410      3.53392e+8 
           5430      3.48723e+8 
           5450      3.44063e+8 
           5470        3.395e+8 
           5490      3.35006e+8 
           5510       3.3058e+8 
           5530      3.26222e+8 
           5550      3.21943e+8 
           5570      3.17729e+8 
           5590      3.13591e+8 
           5610      3.09515e+8 
           5630      3.05513e+8 
           5650      3.01549e+8 
           5670      2.97656e+8 
           5690      2.93787e+8 
           5710      2.90103e+8 
           5730      2.86418e+8 
           5750      2.82708e+8 
           5770      2.79213e+8 
           5790       2.7568e+8 
           5810      2.72223e+8 
           5830      2.68796e+8 
           5850      2.65442e+8 
           5870       2.5501e+8 
           5890      2.58623e+8 
           5910      2.55668e+8 
           5930      2.52511e+8 
           5950      2.49401e+8 
           5970      2.46358e+8 
           5990       2.4333e+8 
           6010      2.40378e+8 
           6030       2.3745e+8 
           6050      2.34575e+8 
           6070      2.31744e+8 
           6090      2.28954e+8 
           6110      2.26207e+8 
           6130        2.235e+8 
           6150      2.20823e+8 
           6170      2.18207e+8 
           6190      2.15619e+8 
           6210       2.1307e+8 
           6230      2.10559e+8 
           6250      2.08085e+8 
           6270      2.05638e+8 
           6290      2.03238e+8 
           6310      2.00873e+8 
           6330      1.98543e+8 
           6350       1.9622e+8 
           6370      1.93968e+8 
           6390      1.91741e+8 
           6410      1.89538e+8 
           6430      1.87367e+8 
           6450      1.85229e+8 
           6470      1.83105e+8 
           6490       1.8103e+8 
           6510      1.78986e+8 
           6530      1.76434e+8 
           6550      1.70001e+8 
           6570      1.52359e+8 
           6590      1.69826e+8 
           6610      1.69059e+8 
           6630      1.67286e+8 
           6650      1.65523e+8 
           6670      1.62212e+8 
           6690      1.60452e+8 
           6710      1.60116e+8 
           6730      1.58343e+8 
           6750       1.5662e+8 
           6770      1.54915e+8 
           6790      1.53211e+8 
           6810      1.51566e+8 
           6830       1.4992e+8 
           6850      1.48307e+8 
           6870      1.46711e+8 
           6890       1.4513e+8 
           6910      1.43573e+8 
           6930      1.42047e+8 
           6950      1.40537e+8 
           6970      1.39041e+8 
           6990      1.37568e+8 
           7010      1.36118e+8 
           7030      1.34681e+8 
           7050      1.33266e+8 
           7070       1.2983e+8 
           7090      1.30493e+8 
           7110      1.29133e+8 
           7130      1.27788e+8 
           7150      1.26462e+8 
           7170      1.25135e+8 
           7190      1.23864e+8 
           7210       1.2259e+8 
           7230      1.21229e+8 
           7250       1.2008e+8 
           7270      1.18865e+8 
           7290      1.16718e+8 
           7310      1.16439e+8 
           7330      1.15279e+8 
           7350      1.14115e+8 
           7370      1.12963e+8 
           7390      1.11828e+8 
           7410      1.10704e+8 
           7430      1.09597e+8 
           7450      1.08514e+8 
           7470      1.07427e+8 
           7490       1.0637e+8 
           7510      1.05277e+8 
           7530      1.04273e+8 
           7550      1.03246e+8 
           7570      1.02234e+8 
           7590      1.01225e+8 
           7610      1.00232e+8 
           7630      9.92607e+7 
           7650      9.82918e+7 
           7670       9.7338e+7 
           7690      9.63928e+7 
           7710      9.54624e+7 
           7730      9.45403e+7 
           7750      9.36327e+7 
           7770       9.2727e+7 
           7790       9.1848e+7 
           7810      9.09149e+7 
           7830       9.0107e+7 
           7850      8.93305e+7 
           7870      8.84817e+7 
           7890       8.7598e+7 
           7910      8.68244e+7 
           7930      8.60096e+7 
           7950      8.51482e+7 
           7970      8.41817e+7 
           7990      8.34185e+7 
           8010      8.26208e+7 
           8030      8.18475e+7 
           8050      8.11449e+7 
           8070      8.04423e+7 
           8090      7.95386e+7 
           8110      7.88947e+7 
           8130      7.82619e+7 
           8150      7.74302e+7 
           8170      7.68541e+7 
           8190      7.60411e+7 
           8210      7.52463e+7 
           8230      7.47753e+7 
           8250      7.41254e+7 
           8270      7.30788e+7 
           8290      7.27156e+7 
           8310      7.20878e+7 
           8330      7.14109e+7 
           8350      7.04262e+7 
           8370      7.00148e+7 
           8390      6.94833e+7 
           8410       6.8855e+7 
           8430      6.81682e+7 
           8450      6.71283e+7 
           8470      6.68537e+7 
           8490      6.62359e+7 
           8510      6.54724e+7 
           8530      6.51502e+7 
           8550       6.3645e+7 
           8570      6.47435e+7 
           8590      6.21244e+7 
