# Kurucz ODFNEW /NOVER (2003)
# teff = 28000 K (value for the effective temperature for the model. Temperatures are given in K)
# logg = 4 log(cm/s2) (value for Log(G) for the model.)
# meta = -2.5  (value for the Metallicity for the model.)
# lh = 1.25  (l/Hp where l is the  mixing length of the convective element and Hp is the pressure scale height)
# vtur = 2 km/s (Microturbulence velocity)
# alpha = 0  (Alpha)
#
# column 1: WAVELENGTH (ANGSTROM), Wavelength in Angstrom
# column 2: FLUX (ERG/CM2/S/A), Flux in erg/cm2/s/A
          147.2     2.17697e-10 
            151     8.50281e-10 
          155.2      3.53737e-9 
          158.8      1.13184e-8 
            162      3.04151e-8 
            166      9.88976e-8 
          170.3      3.31108e-7 
          173.4      7.60574e-7 
          176.8      1.82783e-6 
          180.2      4.24922e-6 
          181.7      6.10654e-6 
          186.1      1.70671e-5 
            191      5.05411e-5 
          193.9      9.36673e-5 
          198.4     0.000235144 
          201.8     0.000457636 
            205      0.00083889 
          210.5      0.00227822 
          216.2       0.0060554 
          219.8       0.0109294 
            223       0.0181755 
          226.8       0.0326207 
            230        0.875736 
            234         2.14365 
            240         4.43036 
          246.5         9.46005 
          252.4         18.2629 
          256.8          25.687 
            260         39.6279 
            264         58.1234 
          268.5         88.9564 
          273.5         139.819 
          278.5         216.113 
            284         343.067 
            290         554.119 
            296         873.328 
            301         1229.97 
            308          1870.9 
            318         4032.02 
            328         7482.83 
            338         13425.1 
            348         23150.8 
            357         36718.5 
            366         57084.8 
            375         85793.8 
            385          133028 
            395          200120 
            405          294470 
            414          410324 
            422          541642 
            430          706067 
            441      1.00479e+6 
            451      1.36044e+6 
            460      1.75747e+6 
            470      2.31597e+6 
            480      3.00321e+6 
            490      3.84936e+6 
            500      4.87834e+6 
            506      3.25575e+7 
            512      9.91447e+7 
            520      1.06691e+8 
            530      1.23853e+8 
            540      1.23312e+8 
            550      1.49085e+8 
            560      1.61083e+8 
            570      1.77048e+8 
            580      1.73246e+8 
            590      2.03062e+8 
            600      2.20606e+8 
            610      2.39827e+8 
            620      2.56262e+8 
            630      2.76961e+8 
            640      2.91735e+8 
            650      3.16542e+8 
            658      3.33725e+8 
            665      3.48553e+8 
            675      3.65555e+8 
            685      3.82506e+8 
            695        4.197e+8 
            705      4.36476e+8 
            716      4.68685e+8 
            726       4.9318e+8 
            735      5.21086e+8 
            745      5.49573e+8 
            755      5.77065e+8 
            765      6.03939e+8 
            775      6.35634e+8 
            785      6.66983e+8 
            795      6.94359e+8 
            805      7.25409e+8 
            815      7.53544e+8 
            825      7.86752e+8 
            835      7.95145e+8 
            845      8.45607e+8 
            855      8.75157e+8 
            865      9.08712e+8 
            875      9.42925e+8 
            885      9.75175e+8 
            895      1.00651e+9 
            905      1.03172e+9 
            915       1.4994e+9 
            925     1.09885e+10 
            935     2.26458e+10 
            945     4.23629e+10 
            955     4.81845e+10 
            965     5.82637e+10 
            975     3.27285e+10 
            985     5.74515e+10 
            995     5.40574e+10 
           1005     5.59709e+10 
           1015     5.30268e+10 
           1025     3.00261e+10 
           1035     5.00512e+10 
           1045     5.26616e+10 
           1055     5.15326e+10 
           1065     4.86861e+10 
           1075     4.84919e+10 
           1085     4.53205e+10 
           1095     4.71106e+10 
           1105     4.53732e+10 
           1115     4.44357e+10 
           1125     4.23187e+10 
           1135     4.29332e+10 
           1145     4.16061e+10 
           1155     4.10639e+10 
           1165     4.02842e+10 
           1175     3.58222e+10 
           1185     3.82571e+10 
           1195     3.69705e+10 
           1205     3.47457e+10 
           1215     1.97694e+10 
           1225     3.38564e+10 
           1235     3.44539e+10 
           1245     3.35138e+10 
           1255      3.3221e+10 
           1265     3.25354e+10 
           1275     3.19089e+10 
           1285     3.12476e+10 
           1295     2.97875e+10 
           1305     2.94699e+10 
           1315     2.93436e+10 
           1325     2.85676e+10 
           1335     2.76424e+10 
           1345     2.75348e+10 
           1355     2.70335e+10 
           1365     2.64366e+10 
           1375      2.5914e+10 
           1385     2.54076e+10 
           1395     2.43245e+10 
           1405     2.39508e+10 
           1415     2.38694e+10 
           1425     2.33686e+10 
           1435     2.29837e+10 
           1442     2.27031e+10 
           1447     2.24673e+10 
           1455      2.2107e+10 
           1465     2.16728e+10 
           1475     2.12536e+10 
           1485     2.08589e+10 
           1495     2.04443e+10 
           1505     2.00022e+10 
           1512     1.97499e+10 
           1517     1.95675e+10 
           1525      1.9251e+10 
           1535     1.86876e+10 
           1545     1.82002e+10 
           1555     1.78469e+10 
           1565      1.7755e+10 
           1575     1.75074e+10 
           1585     1.72137e+10 
           1595     1.69038e+10 
           1605     1.64467e+10 
           1615     1.61439e+10 
           1625     1.59059e+10 
           1635     1.55724e+10 
           1645     1.49034e+10 
           1655     1.51419e+10 
           1665     1.48859e+10 
           1672     1.46766e+10 
           1677     1.46334e+10 
           1685     1.44085e+10 
           1695      1.4142e+10 
           1705     1.38742e+10 
           1715      1.3572e+10 
           1725     1.33568e+10 
           1735     1.31933e+10 
           1745     1.29559e+10 
           1755     1.27414e+10 
           1765     1.24814e+10 
           1775     1.22993e+10 
           1785     1.21181e+10 
           1795     1.19191e+10 
           1805     1.17366e+10 
           1815      1.1523e+10 
           1825     1.13348e+10 
           1835     1.11545e+10 
           1845     1.09048e+10 
           1855     1.06247e+10 
           1865     1.05005e+10 
           1875     1.04227e+10 
           1885     1.01689e+10 
           1895      9.92257e+9 
           1905      9.89674e+9 
           1915      9.63308e+9 
           1925      9.47399e+9 
           1935       9.3902e+9 
           1945      9.29917e+9 
           1955      9.04174e+9 
           1967      8.98054e+9 
           1976       8.8911e+9 
           1984      8.72862e+9 
           1995       8.5093e+9 
           2005      8.48376e+9 
           2015      8.37573e+9 
           2025      8.25968e+9 
           2035      8.11266e+9 
           2045      7.98892e+9 
           2055      7.53954e+9 
           2065      7.37517e+9 
           2074      7.38355e+9 
           2078      7.29277e+9 
           2085      7.36253e+9 
           2095      7.34485e+9 
           2105      7.31332e+9 
           2115      7.22311e+9 
           2125      7.12291e+9 
           2135      7.01519e+9 
           2145      6.90784e+9 
           2155      6.82133e+9 
           2165        6.712e+9 
           2175      6.62908e+9 
           2185      6.52041e+9 
           2195      6.44464e+9 
           2205      6.35315e+9 
           2215      6.24731e+9 
           2225      6.17423e+9 
           2235      6.08653e+9 
           2245       6.0035e+9 
           2255      5.90377e+9 
           2265      5.83773e+9 
           2275      5.75719e+9 
           2285      5.67783e+9 
           2295      5.54327e+9 
           2305      5.50903e+9 
           2315      5.44706e+9 
           2325      5.37326e+9 
           2335      5.29977e+9 
           2345         5.23e+9 
           2355      5.15987e+9 
           2365       5.0908e+9 
           2375      5.02257e+9 
           2385      4.94352e+9 
           2395      4.88978e+9 
           2405      4.82569e+9 
           2415      4.76184e+9 
           2425      4.69997e+9 
           2435      4.63806e+9 
           2445      4.57796e+9 
           2455      4.51886e+9 
           2465      4.46051e+9 
           2475      4.40283e+9 
           2485      4.34629e+9 
           2495       4.2176e+9 
           2505      4.23544e+9 
           2513      4.16443e+9 
           2518      4.16473e+9 
           2525      4.12914e+9 
           2535      4.07734e+9 
           2545      4.02274e+9 
           2555      3.97457e+9 
           2565      3.92589e+9 
           2575      3.87716e+9 
           2585      3.82918e+9 
           2595      3.78188e+9 
           2605      3.75562e+9 
           2615      3.70932e+9 
           2625      3.66324e+9 
           2635      3.61362e+9 
           2645      3.56895e+9 
           2655      3.52149e+9 
           2665      3.47432e+9 
           2675       3.4296e+9 
           2685       3.4053e+9 
           2695      3.34392e+9 
           2705      3.32398e+9 
           2715      3.28441e+9 
           2725      3.22392e+9 
           2735      3.20074e+9 
           2745      3.16892e+9 
           2755      3.13181e+9 
           2765      3.07229e+9 
           2775      3.05899e+9 
           2785      3.02322e+9 
           2795      2.98407e+9 
           2805      2.95259e+9 
           2815      2.91943e+9 
           2825      2.85976e+9 
           2835      2.84102e+9 
           2845      2.82002e+9 
           2855      2.78768e+9 
           2865        2.756e+9 
           2875      2.72478e+9 
           2885      2.69402e+9 
           2895      2.66357e+9 
           2910       2.6187e+9 
           2930      2.56052e+9 
           2950      2.48834e+9 
           2970      2.44892e+9 
           2990      2.39537e+9 
           3010      2.34322e+9 
           3030       2.2929e+9 
           3050      2.24369e+9 
           3070      2.19581e+9 
           3090      2.14857e+9 
           3110      2.10385e+9 
           3130      2.06148e+9 
           3150      2.01841e+9 
           3170      1.97589e+9 
           3190      1.92028e+9 
           3210      1.89346e+9 
           3230      1.85597e+9 
           3250      1.81793e+9 
           3270      1.78304e+9 
           3290      1.74493e+9 
           3310      1.71232e+9 
           3330      1.67826e+9 
           3350      1.64227e+9 
           3370      1.61272e+9 
           3390      1.58115e+9 
           3410      1.55038e+9 
           3430      1.51404e+9 
           3450      1.47986e+9 
           3470      1.45559e+9 
           3490      1.42763e+9 
           3510      1.40453e+9 
           3530      1.38013e+9 
           3550       1.3544e+9 
           3570      1.33566e+9 
           3590      1.30317e+9 
           3610      1.28186e+9 
           3630      1.25539e+9 
           3640      1.25195e+9 
           3650      1.23687e+9 
           3670        1.219e+9 
           3690      1.19227e+9 
           3710      1.15227e+9 
           3730      1.10816e+9 
           3750      1.14925e+9 
           3770      1.14268e+9 
           3790      1.18492e+9 
           3810       1.2255e+9 
           3830      1.08453e+9 
           3850      1.23941e+9 
           3870      1.23728e+9 
           3890      1.02828e+9 
           3910      1.20938e+9 
           3930      1.18849e+9 
           3950      1.16828e+9 
           3970      9.53004e+8 
           3990      1.12249e+9 
           4010      1.10818e+9 
           4030       1.0542e+9 
           4050      1.07995e+9 
           4070      1.05744e+9 
           4090      9.92625e+8 
           4110      8.79261e+8 
           4130      9.93545e+8 
           4150      9.81082e+8 
           4170      9.70546e+8 
           4190      9.55916e+8 
           4210      9.39416e+8 
           4230      9.23922e+8 
           4250      9.08259e+8 
           4270      8.92581e+8 
           4290      8.77993e+8 
           4310      8.60352e+8 
           4330      7.96603e+8 
           4350      7.31479e+8 
           4370      8.17202e+8 
           4390      7.90166e+8 
           4410      7.94657e+8 
           4430      7.79244e+8 
           4450      7.69401e+8 
           4470      7.30705e+8 
           4490      7.44635e+8 
           4510      7.33044e+8 
           4530      7.21391e+8 
           4550      7.09531e+8 
           4570       6.9868e+8 
           4590      6.87705e+8 
           4610         6.77e+8 
           4630      6.66454e+8 
           4650      6.55559e+8 
           4670      6.45914e+8 
           4690      6.34234e+8 
           4710      6.19468e+8 
           4730      6.16682e+8 
           4750      6.07259e+8 
           4770      5.98137e+8 
           4790      5.89097e+8 
           4810       5.8017e+8 
           4830      5.69206e+8 
           4850       5.3478e+8 
           4870      4.82394e+8 
           4890      5.42972e+8 
           4910      5.37636e+8 
           4930      5.19735e+8 
           4950      5.22586e+8 
           4970      5.14987e+8 
           4990      5.07493e+8 
           5010      4.94819e+8 
           5030      4.92902e+8 
           5050      4.83363e+8 
           5070      4.78839e+8 
           5090      4.71986e+8 
           5110      4.65269e+8 
           5130      4.58656e+8 
           5150      4.52175e+8 
           5170      4.45808e+8 
           5190      4.39539e+8 
           5210      4.33395e+8 
           5230      4.27346e+8 
           5250      4.21418e+8 
           5270       4.1558e+8 
           5290      4.09845e+8 
           5310      4.04212e+8 
           5330      3.98678e+8 
           5350      3.93228e+8 
           5370      3.87874e+8 
           5390      3.82615e+8 
           5410      3.77307e+8 
           5430      3.72361e+8 
           5450      3.67363e+8 
           5470      3.62453e+8 
           5490      3.57617e+8 
           5510      3.52866e+8 
           5530        3.482e+8 
           5550      3.43603e+8 
           5570      3.39088e+8 
           5590       3.3464e+8 
           5610      3.30272e+8 
           5630      3.25968e+8 
           5650      3.21729e+8 
           5670      3.17565e+8 
           5690       3.1344e+8 
           5710      3.09445e+8 
           5730      3.05476e+8 
           5750      3.01566e+8 
           5770      2.97736e+8 
           5790      2.93964e+8 
           5810      2.90247e+8 
           5830      2.86585e+8 
           5850      2.82978e+8 
           5870      2.72011e+8 
           5890      2.75705e+8 
           5910      2.72505e+8 
           5930      2.69127e+8 
           5950      2.65788e+8 
           5970       2.6251e+8 
           5990      2.59279e+8 
           6010      2.56106e+8 
           6030       2.5297e+8 
           6050       2.4989e+8 
           6070      2.46856e+8 
           6090      2.43866e+8 
           6110       2.4092e+8 
           6130      2.38027e+8 
           6150      2.35166e+8 
           6170      2.32358e+8 
           6190      2.29581e+8 
           6210      2.26854e+8 
           6230      2.24167e+8 
           6250       2.2151e+8 
           6270      2.18901e+8 
           6290       2.1633e+8 
           6310      2.13797e+8 
           6330      2.11301e+8 
           6350      2.08833e+8 
           6370      2.06409e+8 
           6390      2.04021e+8 
           6410      2.01668e+8 
           6430       1.9934e+8 
           6450      1.97056e+8 
           6470      1.94795e+8 
           6490      1.92577e+8 
           6510      1.90382e+8 
           6530      1.87733e+8 
           6550      1.81109e+8 
           6570      1.62675e+8 
           6590      1.80756e+8 
           6610      1.79776e+8 
           6630      1.77871e+8 
           6650      1.75985e+8 
           6670      1.72484e+8 
           6690      1.70595e+8 
           6710      1.70191e+8 
           6730      1.68315e+8 
           6750      1.66468e+8 
           6770      1.64639e+8 
           6790      1.62837e+8 
           6810      1.61062e+8 
           6830      1.59304e+8 
           6850       1.5758e+8 
           6870      1.55874e+8 
           6890      1.54185e+8 
           6910      1.52528e+8 
           6930      1.50888e+8 
           6950      1.49272e+8 
           6970       1.4768e+8 
           6990      1.46104e+8 
           7010      1.44558e+8 
           7030      1.43028e+8 
           7050      1.41513e+8 
           7070      1.37887e+8 
           7090      1.38549e+8 
           7110        1.371e+8 
           7130      1.35665e+8 
           7150      1.34251e+8 
           7170      1.32829e+8 
           7190      1.31479e+8 
           7210       1.3012e+8 
           7230      1.28745e+8 
           7250      1.27448e+8 
           7270      1.26142e+8 
           7290      1.23863e+8 
           7310       1.2356e+8 
           7330      1.22312e+8 
           7350      1.21075e+8 
           7370      1.19843e+8 
           7390       1.1863e+8 
           7410      1.17434e+8 
           7430      1.16257e+8 
           7450      1.15104e+8 
           7470      1.13949e+8 
           7490       1.1281e+8 
           7510      1.11649e+8 
           7530      1.10579e+8 
           7550      1.09485e+8 
           7570      1.08401e+8 
           7590      1.07333e+8 
           7610      1.06275e+8 
           7630      1.05234e+8 
           7650      1.04208e+8 
           7670      1.03185e+8 
           7690      1.02184e+8 
           7710      1.01192e+8 
           7730      1.00208e+8 
           7750      9.92402e+7 
           7770      9.82807e+7 
           7790      9.73359e+7 
           7810      9.63501e+7 
           7830      9.54837e+7 
           7850      9.46615e+7 
           7870      9.37552e+7 
           7890      9.28206e+7 
           7910      9.19845e+7 
           7930      9.11137e+7 
           7950      9.02386e+7 
           7970      8.92347e+7 
           7990      8.83873e+7 
           8010      8.75354e+7 
           8030      8.67143e+7 
           8050      8.59642e+7 
           8070      8.51916e+7 
           8090      8.42413e+7 
           8110      8.35743e+7 
           8130      8.28844e+7 
           8150       8.1996e+7 
           8170      8.13749e+7 
           8190       8.0523e+7 
           8210      7.96673e+7 
           8230      7.91582e+7 
           8250      7.84649e+7 
           8270      7.73753e+7 
           8290       7.6975e+7 
           8310      7.63048e+7 
           8330      7.55805e+7 
           8350      7.45489e+7 
           8370       7.4107e+7 
           8390      7.35347e+7 
           8410      7.28658e+7 
           8430      7.21441e+7 
           8450      7.10485e+7 
           8470      7.07501e+7 
           8490      7.00931e+7 
           8510      6.92907e+7 
           8530      6.89299e+7 
           8550      6.73761e+7 
           8570      6.84623e+7 
           8590      6.57545e+7 
