# Kurucz ODFNEW /NOVER (2003)
# teff = 29000 K (value for the effective temperature for the model. Temperatures are given in K)
# logg = 4.5 log(cm/s2) (value for Log(G) for the model.)
# meta = 0  (value for the Metallicity for the model.)
# lh = 1.25  (l/Hp where l is the  mixing length of the convective element and Hp is the pressure scale height)
# vtur = 2 km/s (Microturbulence velocity)
# alpha = 0  (Alpha)
#
# column 1: WAVELENGTH (ANGSTROM), Wavelength in Angstrom
# column 2: FLUX (ERG/CM2/S/A), Flux in erg/cm2/s/A
          147.2     5.22901e-10 
            151      1.73932e-9 
          155.2      6.16339e-9 
          158.8      1.73639e-8 
            162      4.21402e-8 
            166      1.22138e-7 
          170.3      3.63245e-7 
          173.4      7.74344e-7 
          176.8      1.72346e-6 
          180.2      3.72947e-6 
          181.7      5.19606e-6 
          186.1      1.33763e-5 
            191      3.65463e-5 
          193.9      6.47462e-5 
          198.4     0.000152366 
          201.8     0.000283921 
            205     0.000500833 
          210.5      0.00127897 
          216.2      0.00321686 
          219.8      0.00562419 
            223      0.00910517 
          226.8       0.0159888 
            230         2.41805 
            234         5.28306 
            240         10.1678 
          246.5         20.5005 
          252.4         37.7553 
          256.8         54.9714 
            260          86.475 
            264         125.944 
          268.5         193.318 
          273.5         297.164 
          278.5         441.717 
            284         797.028 
            290         1251.67 
            296         1914.61 
            301         2670.55 
            308         4553.84 
            318         9615.68 
            328         16715.1 
            338           30593 
            348         52102.7 
            357          174104 
            366          332193 
            375          453227 
            385          698408 
            395      1.24815e+6 
            405      1.69424e+6 
            414      2.36461e+6 
            422      2.91933e+6 
            430       3.8274e+6 
            441      5.19899e+6 
            451      6.52272e+6 
            460      7.90598e+6 
            470      1.02948e+7 
            480      1.29573e+7 
            490      1.62067e+7 
            500      1.99365e+7 
            506       6.8071e+7 
            512      4.23013e+8 
            520      4.24782e+8 
            530      4.37417e+8 
            540      4.23756e+8 
            550      5.66327e+8 
            560        6.547e+8 
            570      7.13258e+8 
            580      6.65738e+8 
            590      7.85212e+8 
            600      7.79307e+8 
            610      8.88346e+8 
            620      9.82005e+8 
            630      9.93601e+8 
            640      9.32534e+8 
            650        9.235e+8 
            658      1.01064e+9 
            665      1.13234e+9 
            675      1.17511e+9 
            685      1.11319e+9 
            695       1.4269e+9 
            705      1.35267e+9 
            716      1.55988e+9 
            726      1.56081e+9 
            735       1.5846e+9 
            745      1.72439e+9 
            755      1.76639e+9 
            765      1.84546e+9 
            775      1.92271e+9 
            785       2.0221e+9 
            795       2.0469e+9 
            805      2.06025e+9 
            815      2.06995e+9 
            825      2.20782e+9 
            835      1.91811e+9 
            845      2.19355e+9 
            855      2.20047e+9 
            865      2.30088e+9 
            875      2.38942e+9 
            885      2.50985e+9 
            895      2.57494e+9 
            905      2.53809e+9 
            915      2.92371e+9 
            925     1.30302e+10 
            935     2.67185e+10 
            945     4.77796e+10 
            955     5.64005e+10 
            965     6.83411e+10 
            975     1.69904e+10 
            985     5.78592e+10 
            995      5.3323e+10 
           1005     5.88728e+10 
           1015     5.99271e+10 
           1025     3.40558e+10 
           1035        5.22e+10 
           1045     6.86584e+10 
           1055     6.37819e+10 
           1065     5.25789e+10 
           1075     5.77079e+10 
           1085     5.20696e+10 
           1095     5.69607e+10 
           1105     5.31668e+10 
           1115     5.21386e+10 
           1125     4.16192e+10 
           1135     5.08788e+10 
           1145     4.67756e+10 
           1155     4.66159e+10 
           1165     4.54554e+10 
           1175     2.80564e+10 
           1185     4.16804e+10 
           1195      3.9796e+10 
           1205     3.35859e+10 
           1215     2.25738e+10 
           1225     3.60204e+10 
           1235     3.98459e+10 
           1245     3.83164e+10 
           1255     3.79378e+10 
           1265     3.86753e+10 
           1275     3.95263e+10 
           1285     3.91759e+10 
           1295     3.24921e+10 
           1305     3.38653e+10 
           1315     3.78401e+10 
           1325     3.55952e+10 
           1335     3.45038e+10 
           1345     3.42176e+10 
           1355     3.38662e+10 
           1365     3.17401e+10 
           1375     3.07322e+10 
           1385     2.97479e+10 
           1395     2.20847e+10 
           1405     2.34909e+10 
           1415     2.68385e+10 
           1425     2.51348e+10 
           1435      2.6295e+10 
           1442     2.66418e+10 
           1447     2.62241e+10 
           1455     2.51856e+10 
           1465     2.36704e+10 
           1475     2.39635e+10 
           1485     2.36743e+10 
           1495     2.30283e+10 
           1505     2.12297e+10 
           1512     1.95225e+10 
           1517     1.99522e+10 
           1525     2.00544e+10 
           1535     1.69864e+10 
           1545     1.59765e+10 
           1555     1.55293e+10 
           1565     1.69782e+10 
           1575     1.79661e+10 
           1585     1.79455e+10 
           1595     1.77716e+10 
           1605     1.74557e+10 
           1615     1.67289e+10 
           1625     1.68133e+10 
           1635     1.74045e+10 
           1645     1.72673e+10 
           1655     1.72422e+10 
           1665     1.71689e+10 
           1672     1.62128e+10 
           1677     1.81471e+10 
           1685     1.72746e+10 
           1695     1.64354e+10 
           1705     1.60228e+10 
           1715     1.52627e+10 
           1725     1.47698e+10 
           1735     1.52495e+10 
           1745     1.50072e+10 
           1755     1.49296e+10 
           1765     1.47125e+10 
           1775     1.39015e+10 
           1785     1.41151e+10 
           1795     1.41652e+10 
           1805     1.41903e+10 
           1815     1.30817e+10 
           1825     1.33041e+10 
           1835     1.29995e+10 
           1845     1.18684e+10 
           1855     1.21218e+10 
           1865     1.22597e+10 
           1875     1.23597e+10 
           1885     1.11898e+10 
           1895      1.0494e+10 
           1905     1.11606e+10 
           1915     1.06448e+10 
           1925     1.00087e+10 
           1935     1.06452e+10 
           1945     1.09144e+10 
           1955      9.76484e+9 
           1967     1.04419e+10 
           1976     1.09172e+10 
           1984     1.01163e+10 
           1995      9.93878e+9 
           2005     1.01698e+10 
           2015     1.01182e+10 
           2025     1.02749e+10 
           2035      9.47185e+9 
           2045      9.52268e+9 
           2055      8.76116e+9 
           2065      8.68075e+9 
           2074       9.0349e+9 
           2078      8.41797e+9 
           2085       8.7275e+9 
           2095      8.50001e+9 
           2105      8.90083e+9 
           2115      8.89097e+9 
           2125      8.91928e+9 
           2135       8.7384e+9 
           2145      8.36808e+9 
           2155      8.58507e+9 
           2165      8.44486e+9 
           2175      8.36022e+9 
           2185      8.14657e+9 
           2195      8.19996e+9 
           2205      8.11878e+9 
           2215      7.96501e+9 
           2225       7.8053e+9 
           2235      7.64662e+9 
           2245      7.64966e+9 
           2255      7.43676e+9 
           2265      7.44981e+9 
           2275      7.34588e+9 
           2285      7.25214e+9 
           2295      6.60443e+9 
           2305      6.98226e+9 
           2315       6.8503e+9 
           2325      6.77449e+9 
           2335      6.63485e+9 
           2345      6.65189e+9 
           2355      6.55918e+9 
           2365      6.48349e+9 
           2375      6.33249e+9 
           2385      6.24129e+9 
           2395      6.16636e+9 
           2405       6.0931e+9 
           2415      6.00858e+9 
           2425       5.9663e+9 
           2435      5.81739e+9 
           2445      5.78578e+9 
           2455      5.74437e+9 
           2465      5.66425e+9 
           2475       5.5698e+9 
           2485      5.45917e+9 
           2495      4.59433e+9 
           2505      5.26218e+9 
           2513      5.04881e+9 
           2518      5.18404e+9 
           2525      5.20409e+9 
           2535      5.15449e+9 
           2545      4.99076e+9 
           2555      4.98166e+9 
           2565       4.9244e+9 
           2575      4.88549e+9 
           2585      4.82865e+9 
           2595      4.77221e+9 
           2605      4.72731e+9 
           2615      4.65475e+9 
           2625      4.61345e+9 
           2635      4.56027e+9 
           2645      4.48471e+9 
           2655       4.4434e+9 
           2665      4.30239e+9 
           2675      4.27728e+9 
           2685      4.27265e+9 
           2695      4.12549e+9 
           2705      4.06493e+9 
           2715      4.04996e+9 
           2725      4.02237e+9 
           2735      3.97579e+9 
           2745      3.92292e+9 
           2755      3.89365e+9 
           2765      3.82444e+9 
           2775       3.8369e+9 
           2785       3.7733e+9 
           2795      3.64272e+9 
           2805      3.65845e+9 
           2815      3.65827e+9 
           2825      3.59012e+9 
           2835      3.48633e+9 
           2845      3.52334e+9 
           2855      3.46016e+9 
           2865      3.43462e+9 
           2875      3.39505e+9 
           2885      3.35521e+9 
           2895      3.30969e+9 
           2910      3.23593e+9 
           2930      3.18795e+9 
           2950      3.08609e+9 
           2970      3.03877e+9 
           2990      2.96214e+9 
           3010      2.86307e+9 
           3030      2.82958e+9 
           3050      2.78049e+9 
           3070      2.73259e+9 
           3090      2.62599e+9 
           3110      2.60946e+9 
           3130      2.54042e+9 
           3150      2.49429e+9 
           3170      2.43218e+9 
           3190      2.37616e+9 
           3210      2.34046e+9 
           3230      2.28311e+9 
           3250      2.24629e+9 
           3270      2.19303e+9 
           3290      2.14828e+9 
           3310       2.1072e+9 
           3330      2.05846e+9 
           3350      2.01885e+9 
           3370      1.97694e+9 
           3390      1.94523e+9 
           3410      1.90654e+9 
           3430      1.86435e+9 
           3450      1.82071e+9 
           3470      1.78698e+9 
           3490      1.75069e+9 
           3510      1.71998e+9 
           3530       1.6938e+9 
           3550      1.65982e+9 
           3570      1.63545e+9 
           3590      1.58726e+9 
           3610      1.56307e+9 
           3630      1.53312e+9 
           3640      1.53073e+9 
           3650      1.49547e+9 
           3670      1.47678e+9 
           3690      1.44933e+9 
           3710      1.39491e+9 
           3730      1.34568e+9 
           3750      1.34993e+9 
           3770      1.32025e+9 
           3790       1.3695e+9 
           3810      1.41252e+9 
           3830      1.25031e+9 
           3850      1.42874e+9 
           3870       1.4173e+9 
           3890      1.17676e+9 
           3910       1.4096e+9 
           3930      1.37394e+9 
           3950      1.34751e+9 
           3970      1.09047e+9 
           3990      1.30174e+9 
           4010      1.29659e+9 
           4030      1.22644e+9 
           4050      1.25687e+9 
           4070      1.19965e+9 
           4090      1.11532e+9 
           4110      1.00206e+9 
           4130      1.14358e+9 
           4150      1.13626e+9 
           4170      1.13076e+9 
           4190      1.11377e+9 
           4210      1.10176e+9 
           4230      1.07912e+9 
           4250      1.04915e+9 
           4270      1.02166e+9 
           4290      1.00749e+9 
           4310      9.76883e+8 
           4330      8.98075e+8 
           4350      8.27521e+8 
           4370      9.28897e+8 
           4390       9.1537e+8 
           4410      9.13905e+8 
           4430       9.0667e+8 
           4450      8.90187e+8 
           4470      8.45868e+8 
           4490      8.62269e+8 
           4510      8.53249e+8 
           4530      8.40352e+8 
           4550      8.26375e+8 
           4570      8.12917e+8 
           4590      7.98409e+8 
           4610      7.80967e+8 
           4630      7.68189e+8 
           4650      7.40845e+8 
           4670      7.45533e+8 
           4690      7.36996e+8 
           4710      7.11153e+8 
           4730      7.14632e+8 
           4750      7.02516e+8 
           4770      6.99286e+8 
           4790        6.874e+8 
           4810      6.73147e+8 
           4830      6.58331e+8 
           4850      6.13626e+8 
           4870       5.5254e+8 
           4890      6.29481e+8 
           4910      6.23879e+8 
           4930      6.02072e+8 
           4950      6.04551e+8 
           4970      6.00457e+8 
           4990      5.90812e+8 
           5010      5.68229e+8 
           5030      5.72459e+8 
           5050       5.6071e+8 
           5070       5.5738e+8 
           5090      5.48268e+8 
           5110      5.39714e+8 
           5130      5.29516e+8 
           5150      5.22641e+8 
           5170      5.16971e+8 
           5190      5.10421e+8 
           5210      5.02887e+8 
           5230      4.95922e+8 
           5250      4.88925e+8 
           5270      4.81341e+8 
           5290      4.75447e+8 
           5310      4.68599e+8 
           5330       4.6237e+8 
           5350      4.55616e+8 
           5370      4.49812e+8 
           5390      4.43212e+8 
           5410      4.37276e+8 
           5430      4.31506e+8 
           5450      4.25389e+8 
           5470      4.19653e+8 
           5490      4.13989e+8 
           5510      4.08941e+8 
           5530      4.02847e+8 
           5550      3.98127e+8 
           5570       3.9265e+8 
           5590      3.87543e+8 
           5610      3.82378e+8 
           5630      3.77491e+8 
           5650      3.71732e+8 
           5670      3.65575e+8 
           5690      3.59239e+8 
           5710      3.56877e+8 
           5730      3.52738e+8 
           5750      3.47121e+8 
           5770      3.44176e+8 
           5790      3.39453e+8 
           5810      3.35234e+8 
           5830      3.30234e+8 
           5850      3.26526e+8 
           5870      3.13219e+8 
           5890      3.16025e+8 
           5910       3.1362e+8 
           5930      3.09409e+8 
           5950      3.05449e+8 
           5970      3.03078e+8 
           5990      2.98212e+8 
           6010      2.95229e+8 
           6030      2.91119e+8 
           6050      2.87828e+8 
           6070      2.84636e+8 
           6090      2.81216e+8 
           6110      2.77733e+8 
           6130        2.745e+8 
           6150      2.70197e+8 
           6170      2.67291e+8 
           6190      2.64455e+8 
           6210      2.61475e+8 
           6230       2.5842e+8 
           6250      2.54946e+8 
           6270      2.52058e+8 
           6290      2.49229e+8 
           6310      2.46128e+8 
           6330      2.43428e+8 
           6350      2.40197e+8 
           6370      2.37735e+8 
           6390      2.34856e+8 
           6410      2.32136e+8 
           6430      2.29546e+8 
           6450      2.26821e+8 
           6470      2.23531e+8 
           6490      2.21136e+8 
           6510      2.18739e+8 
           6530      2.15263e+8 
           6550      2.06399e+8 
           6570      1.83604e+8 
           6590      2.06035e+8 
           6610      2.06152e+8 
           6630      2.04405e+8 
           6650      2.02036e+8 
           6670      1.97913e+8 
           6690      1.95788e+8 
           6710      1.95493e+8 
           6730      1.92894e+8 
           6750      1.91232e+8 
           6770       1.8915e+8 
           6790      1.85962e+8 
           6810       1.8479e+8 
           6830       1.8274e+8 
           6850      1.80904e+8 
           6870       1.7891e+8 
           6890      1.76746e+8 
           6910      1.74644e+8 
           6930      1.73166e+8 
           6950      1.71313e+8 
           6970      1.69471e+8 
           6990      1.67623e+8 
           7010      1.65825e+8 
           7030      1.63999e+8 
           7050      1.62281e+8 
           7070      1.58071e+8 
           7090      1.58874e+8 
           7110      1.56647e+8 
           7130      1.55058e+8 
           7150      1.53897e+8 
           7170      1.52271e+8 
           7190      1.50703e+8 
           7210      1.49129e+8 
           7230      1.45869e+8 
           7250      1.45782e+8 
           7270      1.44511e+8 
           7290      1.41897e+8 
           7310      1.41516e+8 
           7330      1.40037e+8 
           7350      1.38641e+8 
           7370      1.37245e+8 
           7390      1.35841e+8 
           7410      1.34457e+8 
           7430      1.33079e+8 
           7450      1.31741e+8 
           7470      1.29943e+8 
           7490      1.29021e+8 
           7510       1.2774e+8 
           7530      1.26425e+8 
           7550       1.2526e+8 
           7570      1.24014e+8 
           7590      1.22766e+8 
           7610      1.21393e+8 
           7630      1.20324e+8 
           7650      1.19142e+8 
           7670      1.17984e+8 
           7690      1.16804e+8 
           7710      1.15647e+8 
           7730      1.14482e+8 
           7750      1.13428e+8 
           7770      1.12152e+8 
           7790      1.11242e+8 
           7810      1.10111e+8 
           7830        1.091e+8 
           7850      1.08105e+8 
           7870      1.06918e+8 
           7890      1.05759e+8 
           7910      1.04936e+8 
           7930       1.0391e+8 
           7950      1.02953e+8 
           7970      1.01921e+8 
           7990      1.00974e+8 
           8010        9.996e+7 
           8030      9.89777e+7 
           8050      9.81028e+7 
           8070       9.7218e+7 
           8090      9.61566e+7 
           8110      9.49154e+7 
           8130      9.45231e+7 
           8150      9.35776e+7 
           8170      9.28322e+7 
           8190      9.15762e+7 
           8210      9.06443e+7 
           8230      8.97538e+7 
           8250      8.92748e+7 
           8270      8.77419e+7 
           8290      8.75657e+7 
           8310      8.68501e+7 
           8330      8.60373e+7 
           8350      8.48854e+7 
           8370      8.43189e+7 
           8390        8.373e+7 
           8410      8.29274e+7 
           8430      8.21845e+7 
           8450      8.08726e+7 
           8470      8.06855e+7 
           8490      7.97831e+7 
           8510      7.90548e+7 
           8530      7.83532e+7 
           8550      7.72913e+7 
           8570      7.74696e+7 
           8590      7.51232e+7 
