# Kurucz ODFNEW /NOVER (2003)
# teff = 9750 K (value for the effective temperature for the model. Temperatures are given in K)
# logg = 4.5 log(cm/s2) (value for Log(G) for the model.)
# meta = -0.5  (value for the Metallicity for the model.)
# lh = 1.25  (l/Hp where l is the  mixing length of the convective element and Hp is the pressure scale height)
# vtur = 2 km/s (Microturbulence velocity)
# alpha = 0.4  (Alpha)
#
# column 1: WAVELENGTH (ANGSTROM), Wavelength in Angstrom
# column 2: FLUX (ERG/CM2/S/A), Flux in erg/cm2/s/A
          268.5     1.25818e-23 
          273.5     1.18349e-22 
          278.5     4.94212e-22 
            284     2.18632e-21 
            290     1.03428e-20 
            296     4.59001e-20 
            301     1.52279e-19 
            308     7.65539e-19 
            318     6.81044e-18 
            328     5.31877e-17 
            338     3.68143e-16 
            348     2.28158e-15 
            357     1.07953e-14 
            366     4.73485e-14 
            375       1.931e-13 
            385     8.52378e-13 
            395     3.48612e-12 
            405     1.32864e-11 
            414     4.18434e-11 
            422     1.11153e-10 
            430     2.84778e-10 
            441     9.81277e-10 
            451      2.86102e-9 
            460       7.1867e-9 
            470      1.91776e-8 
            480      4.90729e-8 
            490       1.2064e-7 
            500       2.8547e-7 
            506      4.99449e-7 
            512      8.31784e-7 
            520       1.5561e-6 
            530      3.31439e-6 
            540      6.83953e-6 
            550      1.37852e-5 
            560      2.70246e-5 
            570      5.16452e-5 
            580      9.62967e-5 
            590     0.000176211 
            600     0.000315281 
            610     0.000552671 
            620     0.000950272 
            630      0.00160478 
            640      0.00266451 
            650      0.00435125 
            658        0.006367 
            665      0.00881201 
            675       0.0138471 
            685       0.0214649 
            695       0.0328151 
            705       0.0495143 
            716       0.0767633 
            726         0.11296 
            735        0.158384 
            745        0.228166 
            755        0.325282 
            765        0.459086 
            775        0.641781 
            785        0.888904 
            795         1.21997 
            805         1.66039 
            815         2.24101 
            825         3.00083 
            835          3.9874 
            845         5.25962 
            855         6.88809 
            865         8.95873 
            875         11.5751 
            885         14.8614 
            895          18.961 
            905         24.0465 
            915         171.787 
            925         1241.86 
            935         2232.34 
            945         4015.37 
            955         5919.28 
            965         7932.06 
            975          6248.8 
            985         11480.2 
            995         12788.7 
           1005         15701.4 
           1015         17155.4 
           1025         11211.3 
           1035         21823.9 
           1045         27185.6 
           1055         31230.9 
           1065         34503.4 
           1075         40322.5 
           1085         45512.5 
           1095         49520.5 
           1105         82536.3 
           1115      2.36281e+6 
           1125      3.97558e+6 
           1135      5.34318e+6 
           1145       4.4517e+6 
           1155      3.80845e+6 
           1165      2.66989e+6 
           1175      1.04896e+6 
           1185          525888 
           1195          152182 
           1205          129630 
           1215         33282.9 
           1225          135654 
           1235          286371 
           1245          534558 
           1255      2.37037e+6 
           1265      5.48229e+6 
           1275       1.6411e+7 
           1285      3.25047e+7 
           1295      3.91595e+7 
           1305      2.15405e+7 
           1315      4.87637e+7 
           1325      5.91909e+7 
           1335      6.18354e+7 
           1345      7.28313e+7 
           1355      6.71887e+7 
           1365      6.28878e+7 
           1375       6.5872e+7 
           1385      5.78363e+7 
           1395      6.07754e+7 
           1405      7.14288e+7 
           1415       7.7917e+7 
           1425       8.5417e+7 
           1435      7.51199e+7 
           1442      8.77595e+7 
           1447      9.26148e+7 
           1455      9.52792e+7 
           1465      8.75672e+7 
           1475      8.36099e+7 
           1485      8.58087e+7 
           1495      9.34161e+7 
           1505      9.40998e+7 
           1512      8.79623e+7 
           1517      9.45896e+7 
           1525      8.64673e+7 
           1535      9.02369e+7 
           1545      1.08764e+8 
           1555      8.33018e+7 
           1565      7.02507e+7 
           1575      9.76622e+7 
           1585      1.12517e+8 
           1595      1.19988e+8 
           1605      1.17929e+8 
           1615      1.17661e+8 
           1625      1.03496e+8 
           1635      1.05881e+8 
           1645      1.23165e+8 
           1655      9.92788e+7 
           1665      1.20576e+8 
           1672      9.51329e+7 
           1677      1.14377e+8 
           1685      1.24912e+8 
           1695      1.08284e+8 
           1705      1.09287e+8 
           1715      1.14463e+8 
           1725      1.12894e+8 
           1735      1.19297e+8 
           1745      1.15075e+8 
           1755      1.24124e+8 
           1765      1.06604e+8 
           1775      1.20302e+8 
           1785      1.19029e+8 
           1795       1.2692e+8 
           1805      1.18684e+8 
           1815      1.18375e+8 
           1825      1.13405e+8 
           1835      1.11701e+8 
           1845      1.03417e+8 
           1855      1.09228e+8 
           1865      1.10228e+8 
           1875      1.12806e+8 
           1885      1.13086e+8 
           1895      1.11581e+8 
           1905      1.05212e+8 
           1915      1.10382e+8 
           1925      1.11444e+8 
           1935      1.07478e+8 
           1945      1.13227e+8 
           1955      1.11924e+8 
           1967       1.1326e+8 
           1976      1.10021e+8 
           1984      1.07862e+8 
           1995      1.06089e+8 
           2005      1.04087e+8 
           2015      1.00143e+8 
           2025      9.95425e+7 
           2035      1.02924e+8 
           2045      1.04694e+8 
           2055      9.96191e+7 
           2065      9.97432e+7 
           2074      1.02286e+8 
           2078      1.05086e+8 
           2085      1.03749e+8 
           2095      1.00675e+8 
           2105      9.86837e+7 
           2115      9.84096e+7 
           2125      9.88121e+7 
           2135      8.80204e+7 
           2145      9.64131e+7 
           2155      9.54636e+7 
           2165      9.14572e+7 
           2175      9.07535e+7 
           2185      9.10216e+7 
           2195      9.49794e+7 
           2205      9.12685e+7 
           2215      8.47794e+7 
           2225      8.46963e+7 
           2235      9.20853e+7 
           2245      8.48758e+7 
           2255      8.29616e+7 
           2265      8.25684e+7 
           2275      8.72888e+7 
           2285        8.916e+7 
           2295      8.39072e+7 
           2305      8.34076e+7 
           2315      8.17888e+7 
           2325      8.17419e+7 
           2335      7.91845e+7 
           2345      7.35506e+7 
           2355       8.0542e+7 
           2365      7.42921e+7 
           2375      7.76284e+7 
           2385      6.99783e+7 
           2395      7.52733e+7 
           2405      7.24341e+7 
           2415      7.35731e+7 
           2425      7.64334e+7 
           2435      7.28015e+7 
           2445      7.67698e+7 
           2455      7.41892e+7 
           2465      7.39171e+7 
           2475      7.10455e+7 
           2485      7.43487e+7 
           2495      7.20897e+7 
           2505      7.73808e+7 
           2513      7.19913e+7 
           2518      7.17651e+7 
           2525      6.78992e+7 
           2535      6.68956e+7 
           2545      6.71736e+7 
           2555      7.05961e+7 
           2565      7.06479e+7 
           2575      7.43956e+7 
           2585      7.48078e+7 
           2595      7.43666e+7 
           2605      7.14817e+7 
           2615      7.10848e+7 
           2625       7.3267e+7 
           2635      7.33413e+7 
           2645      7.86789e+7 
           2655      7.78575e+7 
           2665      7.33968e+7 
           2675      7.53762e+7 
           2685      7.58086e+7 
           2695      7.28766e+7 
           2705      7.36054e+7 
           2715      7.08461e+7 
           2725      7.09815e+7 
           2735       7.4432e+7 
           2745      6.69761e+7 
           2755       6.7136e+7 
           2765      6.91053e+7 
           2775      7.18174e+7 
           2785      6.98309e+7 
           2795      5.26368e+7 
           2805      5.92432e+7 
           2815      7.23439e+7 
           2825      7.25171e+7 
           2835       7.0619e+7 
           2845      6.84944e+7 
           2855       6.6541e+7 
           2865      6.95884e+7 
           2875       6.8303e+7 
           2885      6.94462e+7 
           2895      6.82975e+7 
           2910       7.2173e+7 
           2930      6.94752e+7 
           2950      6.93156e+7 
           2970      6.95682e+7 
           2990      6.94076e+7 
           3010      6.99312e+7 
           3030      6.93188e+7 
           3050      6.84775e+7 
           3070      6.74123e+7 
           3090      6.77577e+7 
           3110      6.66436e+7 
           3130      6.63177e+7 
           3150      6.63439e+7 
           3170      6.58768e+7 
           3190      6.38908e+7 
           3210      6.45413e+7 
           3230      6.32101e+7 
           3250      6.35866e+7 
           3270      6.36391e+7 
           3290      6.37831e+7 
           3310      6.36473e+7 
           3330      6.23517e+7 
           3350      6.13677e+7 
           3370      6.14077e+7 
           3390      6.08295e+7 
           3410      6.13298e+7 
           3430      6.10137e+7 
           3450      6.04793e+7 
           3470      5.98686e+7 
           3490      5.95648e+7 
           3510      5.95301e+7 
           3530      5.93321e+7 
           3550      5.90929e+7 
           3570      5.82524e+7 
           3590      5.78799e+7 
           3610      5.75641e+7 
           3630      5.72089e+7 
           3640      5.69234e+7 
           3650       5.7432e+7 
           3670      5.71937e+7 
           3690      5.55738e+7 
           3710      5.49407e+7 
           3730      5.38169e+7 
           3750      6.39094e+7 
           3770      6.72567e+7 
           3790      8.28699e+7 
           3810      9.84717e+7 
           3830      7.79788e+7 
           3850      1.10448e+8 
           3870      1.28411e+8 
           3890       6.7284e+7 
           3910       1.2852e+8 
           3930      1.37355e+8 
           3950      1.28611e+8 
           3970      6.45064e+7 
           3990      1.21265e+8 
           4010      1.43098e+8 
           4030      1.44151e+8 
           4050      1.41941e+8 
           4070      1.32583e+8 
           4090      9.46863e+7 
           4110      7.12664e+7 
           4130      1.22744e+8 
           4150      1.32656e+8 
           4170      1.32468e+8 
           4190      1.31668e+8 
           4210       1.3025e+8 
           4230       1.2748e+8 
           4250      1.26162e+8 
           4270      1.23425e+8 
           4290      1.20373e+8 
           4310      1.10524e+8 
           4330      7.71406e+7 
           4350      6.53456e+7 
           4370      1.05744e+8 
           4390      1.11398e+8 
           4410      1.12373e+8 
           4430      1.11674e+8 
           4450      1.11028e+8 
           4470      1.09722e+8 
           4490      1.07119e+8 
           4510      1.07171e+8 
           4530      1.05564e+8 
           4550      1.03577e+8 
           4570      1.03203e+8 
           4590      1.01665e+8 
           4610      1.01299e+8 
           4630      9.93135e+7 
           4650      9.87224e+7 
           4670      9.74312e+7 
           4690      9.56086e+7 
           4710       9.2769e+7 
           4730       9.3537e+7 
           4750      9.22968e+7 
           4770      9.08969e+7 
           4790      8.92118e+7 
           4810      8.65191e+7 
           4830       8.0496e+7 
           4850      5.91876e+7 
           4870      4.80059e+7 
           4890      7.47989e+7 
           4910      8.08602e+7 
           4930      8.11773e+7 
           4950      8.13299e+7 
           4970      8.07956e+7 
           4990       7.9824e+7 
           5010      7.83024e+7 
           5030      7.80011e+7 
           5050      7.66325e+7 
           5070      7.64307e+7 
           5090      7.55593e+7 
           5110      7.46791e+7 
           5130      7.37744e+7 
           5150      7.28431e+7 
           5170      7.11714e+7 
           5190       7.0498e+7 
           5210      7.03686e+7 
           5230      6.92379e+7 
           5250      6.88877e+7 
           5270      6.74895e+7 
           5290      6.73221e+7 
           5310      6.63256e+7 
           5330      6.53686e+7 
           5350      6.51085e+7 
           5370      6.43174e+7 
           5390       6.3614e+7 
           5410      6.27365e+7 
           5430       6.2173e+7 
           5450      6.15945e+7 
           5470       6.0907e+7 
           5490      6.02365e+7 
           5510      5.96077e+7 
           5530      5.88755e+7 
           5550      5.83492e+7 
           5570       5.7699e+7 
           5590      5.70445e+7 
           5610      5.64829e+7 
           5630        5.591e+7 
           5650      5.52812e+7 
           5670      5.46657e+7 
           5690      5.41239e+7 
           5710      5.35501e+7 
           5730      5.30232e+7 
           5750      5.24259e+7 
           5770      5.19013e+7 
           5790      5.13478e+7 
           5810      5.08253e+7 
           5830       5.0302e+7 
           5850      4.97759e+7 
           5870      4.92154e+7 
           5890      4.85255e+7 
           5910      4.82516e+7 
           5930      4.77638e+7 
           5950      4.72283e+7 
           5970      4.67845e+7 
           5990      4.62521e+7 
           6010      4.58134e+7 
           6030      4.53701e+7 
           6050      4.48988e+7 
           6070      4.44786e+7 
           6090      4.40305e+7 
           6110      4.35813e+7 
           6130      4.31239e+7 
           6150      4.23977e+7 
           6170      4.22331e+7 
           6190      4.18938e+7 
           6210       4.1473e+7 
           6230      4.10557e+7 
           6250      4.05484e+7 
           6270      4.02719e+7 
           6290      3.98839e+7 
           6310      3.94696e+7 
           6330      3.90965e+7 
           6350      3.84358e+7 
           6370      3.81707e+7 
           6390      3.79709e+7 
           6410      3.75298e+7 
           6430      3.71509e+7 
           6450      3.65895e+7 
           6470      3.63006e+7 
           6490      3.57499e+7 
           6510      3.50114e+7 
           6530      3.33872e+7 
           6550      2.81415e+7 
           6570      2.28744e+7 
           6590      3.10644e+7 
           6610      3.30513e+7 
           6630      3.33861e+7 
           6650        3.331e+7 
           6670      3.31003e+7 
           6690      3.28547e+7 
           6710      3.25872e+7 
           6730      3.23107e+7 
           6750      3.20277e+7 
           6770      3.17705e+7 
           6790      3.14774e+7 
           6810      3.11929e+7 
           6830       3.0899e+7 
           6850      3.06257e+7 
           6870      3.03527e+7 
           6890      3.00799e+7 
           6910       2.9809e+7 
           6930       2.9536e+7 
           6950       2.9275e+7 
           6970      2.90118e+7 
           6990      2.87581e+7 
           7010       2.8444e+7 
           7030      2.82389e+7 
           7050      2.79925e+7 
           7070      2.77492e+7 
           7090      2.75105e+7 
           7110      2.71733e+7 
           7130      2.70137e+7 
           7150      2.67574e+7 
           7170      2.65482e+7 
           7190      2.63177e+7 
           7210      2.60907e+7 
           7230      2.58629e+7 
           7250      2.56165e+7 
           7270       2.5423e+7 
           7290      2.51916e+7 
           7310      2.49834e+7 
           7330      2.47694e+7 
           7350      2.45651e+7 
           7370       2.4357e+7 
           7390      2.41447e+7 
           7410      2.39246e+7 
           7430      2.36868e+7 
           7450       2.3515e+7 
           7470      2.32927e+7 
           7490      2.31174e+7 
           7510      2.29404e+7 
           7530      2.27542e+7 
           7550      2.25697e+7 
           7570      2.23783e+7 
           7590      2.21951e+7 
           7610       2.2011e+7 
           7630      2.18271e+7 
           7650      2.16417e+7 
           7670      2.14579e+7 
           7690      2.12802e+7 
           7710      2.11116e+7 
           7730      2.09445e+7 
           7750      2.07701e+7 
           7770      2.02302e+7 
           7790      2.04369e+7 
           7810        2.027e+7 
           7830      2.01002e+7 
           7850      1.99239e+7 
           7870      1.97072e+7 
           7890      1.95106e+7 
           7910      1.94488e+7 
           7930      1.92903e+7 
           7950      1.90825e+7 
           7970      1.90017e+7 
           7990      1.86925e+7 
           8010      1.86973e+7 
           8030      1.85464e+7 
           8050      1.84026e+7 
           8070      1.82554e+7 
           8090      1.81129e+7 
           8110      1.79687e+7 
           8130      1.78319e+7 
           8150      1.76935e+7 
           8170       1.7555e+7 
           8190      1.73632e+7 
           8210      1.72704e+7 
           8230      1.71192e+7 
           8250      1.70125e+7 
           8270      1.69739e+7 
           8290      1.68471e+7 
           8310      1.67274e+7 
           8330      1.65635e+7 
           8350      1.64892e+7 
           8370      1.63712e+7 
           8390      1.62381e+7 
           8410      1.61034e+7 
           8430      1.59609e+7 
           8450       1.5668e+7 
           8470      1.55994e+7 
           8490       1.5597e+7 
           8510       1.5104e+7 
           8530      1.54143e+7 
           8550      1.43807e+7 
           8570      1.53667e+7 
           8590      1.44921e+7 
           8610      1.42211e+7 
           8630      1.53015e+7 
           8650      1.46145e+7 
           8670      1.26201e+7 
           8690      1.48235e+7 
           8710      1.53613e+7 
           8730      1.46005e+7 
           8750      1.17867e+7 
           8770      1.38162e+7 
           8790         1.52e+7 
           8810      1.53752e+7 
           8830      1.48573e+7 
           8850      1.29547e+7 
           8870      1.11486e+7 
           8890      1.39114e+7 
           8910      1.48593e+7 
           8930      1.50914e+7 
           8950      1.50936e+7 
           8970      1.46687e+7 
           8990       1.3585e+7 
           9010      1.07951e+7 
           9030      1.16811e+7 
           9050      1.36621e+7 
           9070      1.41803e+7 
           9090      1.42461e+7 
           9110      1.43933e+7 
           9130      1.43602e+7 
           9150      1.42111e+7 
           9170      1.39265e+7 
