# Kurucz ODFNEW /NOVER (2003)
# teff = 27000 K (value for the effective temperature for the model. Temperatures are given in K)
# logg = 5 log(cm/s2) (value for Log(G) for the model.)
# meta = -1.5  (value for the Metallicity for the model.)
# lh = 1.25  (l/Hp where l is the  mixing length of the convective element and Hp is the pressure scale height)
# vtur = 2 km/s (Microturbulence velocity)
# alpha = 0.4  (Alpha)
#
# column 1: WAVELENGTH (ANGSTROM), Wavelength in Angstrom
# column 2: FLUX (ERG/CM2/S/A), Flux in erg/cm2/s/A
          147.2     5.96742e-12 
            151     2.37676e-11 
          155.2     1.01673e-10 
          158.8     3.33623e-10 
            162     9.20392e-10 
            166       3.1056e-9 
          170.3      1.08004e-8 
          173.4      2.55713e-8 
          176.8       6.3627e-8 
          180.2      1.53095e-7 
          181.7      2.23231e-7 
          186.1      6.52455e-7 
            191      2.03478e-6 
          193.9      3.88341e-6 
          198.4      1.01996e-5 
          201.8      2.05584e-5 
            205       3.8928e-5 
          210.5     0.000111462 
          216.2     0.000313135 
          219.8     0.000584588 
            223      0.00100074 
          226.8      0.00185705 
            230       0.0526616 
            234        0.119611 
            240        0.264502 
          246.5        0.597283 
          252.4          1.2211 
          256.8         1.92397 
            260         2.86604 
            264         4.37664 
          268.5          6.9773 
          273.5         11.4546 
          278.5         18.5115 
            284         30.8325 
            290         52.2359 
            296         86.4514 
            301         129.043 
            308         213.336 
            318          464.97 
            328         912.164 
            338         1745.58 
            348         3179.85 
            357         5372.39 
            366         8795.58 
            375         13728.1 
            385         22270.8 
            395         34873.3 
            405         53342.7 
            414         77189.6 
            422          104256 
            430          139724 
            441          206359 
            451          289676 
            460          383922 
            470          521145 
            480          694562 
            490          915071 
            500       1.1926e+6 
            506      6.21707e+6 
            512      2.32927e+7 
            520      2.68336e+7 
            530       3.3734e+7 
            540      3.46911e+7 
            550      4.48576e+7 
            560       4.9674e+7 
            570      5.70022e+7 
            580      5.64288e+7 
            590      6.89769e+7 
            600      7.73248e+7 
            610      8.67713e+7 
            620        9.425e+7 
            630      1.04277e+8 
            640      1.09984e+8 
            650      1.22435e+8 
            658      1.32145e+8 
            665      1.39626e+8 
            675      1.47285e+8 
            685      1.56786e+8 
            695      1.76859e+8 
            705      1.86134e+8 
            716      2.03673e+8 
            726      2.15898e+8 
            735      2.30539e+8 
            745      2.47938e+8 
            755      2.63785e+8 
            765      2.79291e+8 
            775      2.97877e+8 
            785      3.16093e+8 
            795      3.30817e+8 
            805      3.49322e+8 
            815      3.65996e+8 
            825      3.86778e+8 
            835      3.92337e+8 
            845      4.21104e+8 
            855      4.38635e+8 
            865      4.60942e+8 
            875      4.82804e+8 
            885      5.05048e+8 
            895      5.25335e+8 
            905       5.3849e+8 
            915      6.51382e+8 
            925      2.78374e+9 
            935      7.08276e+9 
            945     2.16097e+10 
            955     3.31843e+10 
            965     4.61149e+10 
            975     1.60405e+10 
            985     5.53081e+10 
            995     5.26989e+10 
           1005     5.54077e+10 
           1015     4.79219e+10 
           1025     1.30325e+10 
           1035     4.14667e+10 
           1045     5.44624e+10 
           1055     5.30862e+10 
           1065      4.7786e+10 
           1075     4.95514e+10 
           1085     4.49909e+10 
           1095     4.82763e+10 
           1105      4.5438e+10 
           1115     4.45569e+10 
           1125     4.07024e+10 
           1135     4.29712e+10 
           1145     3.95487e+10 
           1155     4.03579e+10 
           1165     3.97152e+10 
           1175     3.32436e+10 
           1185     3.72672e+10 
           1195     3.42454e+10 
           1205     2.73643e+10 
           1215      9.33999e+9 
           1225     2.69927e+10 
           1235     3.24088e+10 
           1245     3.21138e+10 
           1255     3.15706e+10 
           1265     3.09063e+10 
           1275     3.07896e+10 
           1285      3.0027e+10 
           1295     2.67885e+10 
           1305      2.6833e+10 
           1315      2.7921e+10 
           1325     2.68402e+10 
           1335     2.57885e+10 
           1345     2.55856e+10 
           1355     2.55315e+10 
           1365     2.43358e+10 
           1375      2.4031e+10 
           1385     2.36322e+10 
           1395     2.13219e+10 
           1405     2.14203e+10 
           1415     2.19032e+10 
           1425     2.13853e+10 
           1435     2.10792e+10 
           1442     2.10254e+10 
           1447     2.07382e+10 
           1455     2.03346e+10 
           1465     1.97999e+10 
           1475     1.94111e+10 
           1485     1.89781e+10 
           1495     1.85784e+10 
           1505     1.77418e+10 
           1512     1.75005e+10 
           1517     1.74508e+10 
           1525     1.71451e+10 
           1535     1.62333e+10 
           1545     1.60475e+10 
           1555     1.55229e+10 
           1565     1.56431e+10 
           1575     1.55362e+10 
           1585     1.52478e+10 
           1595     1.50365e+10 
           1605     1.45061e+10 
           1615     1.41875e+10 
           1625     1.40865e+10 
           1635      1.3938e+10 
           1645     1.34471e+10 
           1655     1.34595e+10 
           1665     1.32622e+10 
           1672     1.29963e+10 
           1677     1.31064e+10 
           1685      1.2868e+10 
           1695     1.25521e+10 
           1705     1.22478e+10 
           1715     1.19186e+10 
           1725     1.17098e+10 
           1735     1.16137e+10 
           1745     1.13906e+10 
           1755     1.12587e+10 
           1765     1.08601e+10 
           1775     1.07194e+10 
           1785     1.05822e+10 
           1795     1.05074e+10 
           1805     1.03728e+10 
           1815     1.00849e+10 
           1825      9.96664e+9 
           1835      9.78066e+9 
           1845      9.32708e+9 
           1855      9.13362e+9 
           1865      9.11057e+9 
           1875      9.09626e+9 
           1885      8.65606e+9 
           1895       8.3373e+9 
           1905      8.49945e+9 
           1915      8.20022e+9 
           1925      8.01216e+9 
           1935      8.05462e+9 
           1945       8.0461e+9 
           1955       7.6474e+9 
           1967      7.73665e+9 
           1976      7.77517e+9 
           1984      7.50299e+9 
           1995      7.27613e+9 
           2005      7.32387e+9 
           2015      7.28152e+9 
           2025      7.23109e+9 
           2035      7.01073e+9 
           2045      6.90793e+9 
           2055      6.65209e+9 
           2065      6.59357e+9 
           2074       6.6505e+9 
           2078       6.4787e+9 
           2085      6.46317e+9 
           2095      6.30574e+9 
           2105      6.34502e+9 
           2115      6.29266e+9 
           2125      6.24141e+9 
           2135      6.13506e+9 
           2145      6.01372e+9 
           2155      5.95958e+9 
           2165      5.88215e+9 
           2175      5.78733e+9 
           2185      5.71191e+9 
           2195      5.64129e+9 
           2205      5.55878e+9 
           2215      5.48137e+9 
           2225      5.39644e+9 
           2235      5.31545e+9 
           2245      5.25453e+9 
           2255      5.17098e+9 
           2265      5.10964e+9 
           2275       5.0389e+9 
           2285      4.97116e+9 
           2295      4.83552e+9 
           2305      4.83088e+9 
           2315      4.76126e+9 
           2325      4.69864e+9 
           2335      4.62421e+9 
           2345      4.56958e+9 
           2355      4.51455e+9 
           2365      4.45322e+9 
           2375      4.39062e+9 
           2385      4.33023e+9 
           2395      4.27438e+9 
           2405      4.21923e+9 
           2415      4.15988e+9 
           2425      4.11386e+9 
           2435      4.05282e+9 
           2445      4.00379e+9 
           2455      3.95499e+9 
           2465      3.90405e+9 
           2475      3.85313e+9 
           2485      3.80376e+9 
           2495      3.66167e+9 
           2505      3.70316e+9 
           2513       3.6313e+9 
           2518      3.63811e+9 
           2525      3.61164e+9 
           2535      3.56702e+9 
           2545       3.4967e+9 
           2555      3.47163e+9 
           2565      3.43105e+9 
           2575      3.39456e+9 
           2585      3.35341e+9 
           2595      3.31212e+9 
           2605      3.29201e+9 
           2615      3.25256e+9 
           2625      3.21383e+9 
           2635      3.17304e+9 
           2645      3.13418e+9 
           2655      3.09255e+9 
           2665      3.04551e+9 
           2675      3.00446e+9 
           2685      2.98981e+9 
           2695      2.92435e+9 
           2705      2.91631e+9 
           2715       2.8826e+9 
           2725      2.82105e+9 
           2735      2.81395e+9 
           2745      2.77729e+9 
           2755      2.74714e+9 
           2765      2.68931e+9 
           2775      2.68753e+9 
           2785      2.65524e+9 
           2795       2.5854e+9 
           2805      2.58031e+9 
           2815      2.56581e+9 
           2825      2.50321e+9 
           2835      2.47396e+9 
           2845      2.47875e+9 
           2855      2.44968e+9 
           2865      2.42274e+9 
           2875      2.39548e+9 
           2885      2.36904e+9 
           2895      2.34231e+9 
           2910      2.30217e+9 
           2930      2.25084e+9 
           2950      2.18094e+9 
           2970      2.15487e+9 
           2990      2.10713e+9 
           3010      2.06118e+9 
           3030      2.01871e+9 
           3050      1.97616e+9 
           3070      1.93463e+9 
           3090      1.88828e+9 
           3110      1.85395e+9 
           3130      1.81633e+9 
           3150      1.77929e+9 
           3170      1.74244e+9 
           3190      1.68842e+9 
           3210      1.67172e+9 
           3230      1.63711e+9 
           3250      1.60411e+9 
           3270      1.57405e+9 
           3290      1.54018e+9 
           3310      1.51251e+9 
           3330      1.48264e+9 
           3350      1.45066e+9 
           3370      1.42533e+9 
           3390      1.39797e+9 
           3410      1.37112e+9 
           3430       1.3384e+9 
           3450      1.30764e+9 
           3470      1.28689e+9 
           3490      1.26265e+9 
           3510      1.24075e+9 
           3530      1.21914e+9 
           3550      1.19749e+9 
           3570       1.1842e+9 
           3590      1.15149e+9 
           3610      1.13631e+9 
           3630       1.1105e+9 
           3640      1.11112e+9 
           3650      1.09036e+9 
           3670      1.07605e+9 
           3690      1.05766e+9 
           3710      1.02248e+9 
           3730      9.86495e+8 
           3750      9.76643e+8 
           3770      9.50007e+8 
           3790      9.90993e+8 
           3810      1.03444e+9 
           3830      8.96822e+8 
           3850      1.07101e+9 
           3870      1.09853e+9 
           3890      8.39544e+8 
           3910      1.08262e+9 
           3930       1.0828e+9 
           3950      1.04948e+9 
           3970      7.80283e+8 
           3990      1.00107e+9 
           4010      1.01318e+9 
           4030      9.38454e+8 
           4050      9.94736e+8 
           4070      9.65334e+8 
           4090      8.56419e+8 
           4110      7.40095e+8 
           4130      9.01311e+8 
           4150      9.01001e+8 
           4170      8.97318e+8 
           4190      8.85296e+8 
           4210      8.71549e+8 
           4230      8.56399e+8 
           4250      8.40745e+8 
           4270      8.22102e+8 
           4290      8.08887e+8 
           4310      7.85883e+8 
           4330      6.84985e+8 
           4350      6.21561e+8 
           4370      7.43658e+8 
           4390      7.15395e+8 
           4410      7.32437e+8 
           4430      7.20253e+8 
           4450      7.11073e+8 
           4470      6.55306e+8 
           4490      6.86612e+8 
           4510      6.79017e+8 
           4530      6.68151e+8 
           4550      6.56922e+8 
           4570      6.46242e+8 
           4590      6.36242e+8 
           4610      6.26514e+8 
           4630      6.16878e+8 
           4650      6.04562e+8 
           4670      5.97391e+8 
           4690      5.88419e+8 
           4710       5.6932e+8 
           4730       5.7051e+8 
           4750      5.61375e+8 
           4770      5.53929e+8 
           4790      5.44469e+8 
           4810      5.34268e+8 
           4830      5.20034e+8 
           4850      4.64407e+8 
           4870      4.12122e+8 
           4890      4.93581e+8 
           4910      4.93772e+8 
           4930      4.72568e+8 
           4950      4.83102e+8 
           4970      4.76843e+8 
           4990      4.69851e+8 
           5010      4.55255e+8 
           5030      4.56243e+8 
           5050      4.46063e+8 
           5070      4.43342e+8 
           5090      4.36957e+8 
           5110      4.30715e+8 
           5130      4.24529e+8 
           5150      4.18497e+8 
           5170      4.12672e+8 
           5190       4.0691e+8 
           5210      4.01044e+8 
           5230      3.95641e+8 
           5250      3.90131e+8 
           5270       3.8472e+8 
           5290      3.79421e+8 
           5310      3.74203e+8 
           5330      3.69053e+8 
           5350      3.63956e+8 
           5370      3.59094e+8 
           5390      3.54204e+8 
           5410      3.49414e+8 
           5430      3.44673e+8 
           5450      3.40055e+8 
           5470      3.35521e+8 
           5490      3.31081e+8 
           5510      3.26684e+8 
           5530      3.22354e+8 
           5550      3.18115e+8 
           5570      3.13916e+8 
           5590      3.09817e+8 
           5610      3.05745e+8 
           5630      3.01793e+8 
           5650      2.97772e+8 
           5670      2.93882e+8 
           5690      2.90051e+8 
           5710      2.86475e+8 
           5730      2.82826e+8 
           5750      2.79107e+8 
           5770      2.75682e+8 
           5790      2.72185e+8 
           5810      2.68741e+8 
           5830      2.65337e+8 
           5850      2.62007e+8 
           5870      2.48515e+8 
           5890      2.54464e+8 
           5910      2.52314e+8 
           5930      2.49179e+8 
           5950       2.4607e+8 
           5970      2.43092e+8 
           5990      2.40075e+8 
           6010      2.37166e+8 
           6030      2.34259e+8 
           6050      2.31426e+8 
           6070      2.28615e+8 
           6090      2.25846e+8 
           6110      2.23129e+8 
           6130      2.20452e+8 
           6150      2.17765e+8 
           6170      2.15208e+8 
           6190       2.1265e+8 
           6210       2.1012e+8 
           6230      2.07637e+8 
           6250      2.05172e+8 
           6270      2.02773e+8 
           6290      2.00391e+8 
           6310      1.98034e+8 
           6330      1.95741e+8 
           6350      1.93389e+8 
           6370      1.91192e+8 
           6390      1.89001e+8 
           6410      1.86824e+8 
           6430      1.84689e+8 
           6450      1.82576e+8 
           6470       1.8045e+8 
           6490      1.78275e+8 
           6510      1.75759e+8 
           6530      1.72555e+8 
           6550      1.61668e+8 
           6570      1.42252e+8 
           6590      1.64838e+8 
           6610      1.65774e+8 
           6630      1.64475e+8 
           6650       1.6307e+8 
           6670      1.58952e+8 
           6690       1.5727e+8 
           6710      1.57748e+8 
           6730      1.55997e+8 
           6750      1.54305e+8 
           6770      1.52614e+8 
           6790      1.50891e+8 
           6810      1.49299e+8 
           6830      1.47675e+8 
           6850      1.46083e+8 
           6870      1.44508e+8 
           6890       1.4294e+8 
           6910      1.41403e+8 
           6930      1.39898e+8 
           6950      1.38408e+8 
           6970      1.36932e+8 
           6990      1.35479e+8 
           7010       1.3404e+8 
           7030      1.32623e+8 
           7050      1.31227e+8 
           7070      1.27418e+8 
           7090      1.28492e+8 
           7110      1.27144e+8 
           7130      1.25816e+8 
           7150      1.24509e+8 
           7170      1.23207e+8 
           7190      1.21947e+8 
           7210      1.20684e+8 
           7230      1.19167e+8 
           7250       1.1821e+8 
           7270      1.17011e+8 
           7290      1.14719e+8 
           7310       1.1462e+8 
           7330       1.1347e+8 
           7350      1.12323e+8 
           7370      1.11187e+8 
           7390      1.10062e+8 
           7410      1.08961e+8 
           7430      1.07863e+8 
           7450      1.06803e+8 
           7470      1.05712e+8 
           7490      1.04685e+8 
           7510      1.03607e+8 
           7530      1.02619e+8 
           7550      1.01607e+8 
           7570      1.00604e+8 
           7590      9.96165e+7 
           7610      9.86317e+7 
           7630      9.76753e+7 
           7650      9.67211e+7 
           7670      9.57819e+7 
           7690      9.48511e+7 
           7710      9.39287e+7 
           7730      9.30209e+7 
           7750      9.21274e+7 
           7770       9.1192e+7 
           7790      9.03705e+7 
           7810      8.94512e+7 
           7830      8.86507e+7 
           7850      8.78816e+7 
           7870      8.70402e+7 
           7890      8.61577e+7 
           7910      8.54215e+7 
           7930      8.46197e+7 
           7950      8.37832e+7 
           7970      8.28829e+7 
           7990      8.20849e+7 
           8010      8.12938e+7 
           8030      8.05271e+7 
           8050      7.97729e+7 
           8070      7.90367e+7 
           8090      7.82319e+7 
           8110      7.75372e+7 
           8130      7.69168e+7 
           8150      7.61541e+7 
           8170      7.55164e+7 
           8190      7.47493e+7 
           8210      7.39049e+7 
           8230      7.34015e+7 
           8250      7.27638e+7 
           8270      7.17733e+7 
           8290      7.14274e+7 
           8310      7.08276e+7 
           8330      7.01404e+7 
           8350      6.91889e+7 
           8370      6.87995e+7 
           8390      6.82952e+7 
           8410      6.76885e+7 
           8430      6.70443e+7 
           8450      6.59728e+7 
           8470      6.58717e+7 
           8490      6.51331e+7 
           8510      6.46765e+7 
           8530      6.39542e+7 
           8550      6.32997e+7 
           8570      6.31431e+7 
