# Kurucz ODFNEW /NOVER (2003)
# teff = 30000 K (value for the effective temperature for the model. Temperatures are given in K)
# logg = 5 log(cm/s2) (value for Log(G) for the model.)
# meta = -0.5  (value for the Metallicity for the model.)
# lh = 1.25  (l/Hp where l is the  mixing length of the convective element and Hp is the pressure scale height)
# vtur = 2 km/s (Microturbulence velocity)
# alpha = 0  (Alpha)
#
# column 1: WAVELENGTH (ANGSTROM), Wavelength in Angstrom
# column 2: FLUX (ERG/CM2/S/A), Flux in erg/cm2/s/A
          147.2      6.84683e-9 
            151       2.1856e-8 
          155.2       7.4229e-8 
          158.8      2.01979e-7 
            162      4.75663e-7 
            166      1.32974e-6 
          170.3      3.81716e-6 
          173.4      7.92624e-6 
          176.8      1.71731e-5 
          180.2      3.61879e-5 
          181.7      4.98474e-5 
          186.1     0.000124082 
            191     0.000326645 
          193.9     0.000566349 
          198.4      0.00128928 
          201.8      0.00234327 
            205      0.00403847 
          210.5      0.00991088 
          216.2       0.0239373 
          219.8        0.040803 
            223       0.0645938 
          226.8        0.109807 
            230         21.3447 
            234         51.4236 
            240         95.6278 
          246.5         184.445 
          252.4         327.264 
          256.8          450.93 
            260         681.234 
            264          944.04 
          268.5         1402.36 
          273.5         2094.31 
          278.5         3033.86 
            284         4973.95 
            290         7541.31 
            296         11202.6 
            301           15136 
            308         22986.8 
            318         46318.2 
            328         77426.6 
            338          133928 
            348          217398 
            357          432422 
            366          688460 
            375          939647 
            385      1.39344e+6 
            395      2.07289e+6 
            405      2.81907e+6 
            414      3.78782e+6 
            422      4.63772e+6 
            430      5.87975e+6 
            441      7.87044e+6 
            451      1.00868e+7 
            460      1.22601e+7 
            470      1.56071e+7 
            480       1.9327e+7 
            490      2.38621e+7 
            500      2.92779e+7 
            506      1.11293e+8 
            512      5.45986e+8 
            520      5.59981e+8 
            530      6.03934e+8 
            540      5.75404e+8 
            550      7.16595e+8 
            560      7.93378e+8 
            570      8.64901e+8 
            580      8.18323e+8 
            590      9.42992e+8 
            600      9.63391e+8 
            610      1.04838e+9 
            620      1.13097e+9 
            630      1.16929e+9 
            640      1.14868e+9 
            650      1.24361e+9 
            658       1.2816e+9 
            665       1.3454e+9 
            675      1.35759e+9 
            685       1.3339e+9 
            695      1.56666e+9 
            705      1.54474e+9 
            716       1.6901e+9 
            726      1.71105e+9 
            735      1.74876e+9 
            745      1.86435e+9 
            755      1.91297e+9 
            765      1.98405e+9 
            775      2.05405e+9 
            785      2.14957e+9 
            795      2.18047e+9 
            805      2.21855e+9 
            815      2.24271e+9 
            825      2.35312e+9 
            835      2.20794e+9 
            845      2.39283e+9 
            855      2.42609e+9 
            865      2.51336e+9 
            875       2.5977e+9 
            885      2.69171e+9 
            895      2.75385e+9 
            905      2.74972e+9 
            915      2.96074e+9 
            925     1.05147e+10 
            935     2.22045e+10 
            945     4.75476e+10 
            955     6.04651e+10 
            965     7.93934e+10 
            975     2.55584e+10 
            985     7.89007e+10 
            995      7.1592e+10 
           1005      7.6974e+10 
           1015     7.32853e+10 
           1025     3.21224e+10 
           1035     6.46003e+10 
           1045     8.20541e+10 
           1055      7.8096e+10 
           1065        6.72e+10 
           1075     7.15236e+10 
           1085      6.4067e+10 
           1095     7.01161e+10 
           1105     6.60914e+10 
           1115     6.48839e+10 
           1125     5.58058e+10 
           1135     6.24653e+10 
           1145     5.71606e+10 
           1155     5.77537e+10 
           1165     5.63141e+10 
           1175     4.07584e+10 
           1185     5.20683e+10 
           1195     4.94383e+10 
           1205     4.25292e+10 
           1215     2.18495e+10 
           1225     4.26104e+10 
           1235     4.76338e+10 
           1245     4.63151e+10 
           1255     4.58742e+10 
           1265     4.57827e+10 
           1275     4.58159e+10 
           1285     4.50371e+10 
           1295     3.95998e+10 
           1305     4.03358e+10 
           1315     4.24828e+10 
           1325      4.0344e+10 
           1335     3.90083e+10 
           1345     3.85637e+10 
           1355     3.83865e+10 
           1365     3.63319e+10 
           1375      3.5642e+10 
           1385     3.47953e+10 
           1395     2.91313e+10 
           1405     2.98689e+10 
           1415     3.18923e+10 
           1425     3.00975e+10 
           1435     3.06748e+10 
           1442     3.09429e+10 
           1447     3.03804e+10 
           1455     2.95116e+10 
           1465     2.83641e+10 
           1475     2.80327e+10 
           1485     2.76172e+10 
           1495        2.69e+10 
           1505     2.53462e+10 
           1512     2.40228e+10 
           1517     2.42527e+10 
           1525      2.4075e+10 
           1535     2.14184e+10 
           1545     2.06939e+10 
           1555     1.99643e+10 
           1565     2.09482e+10 
           1575     2.14894e+10 
           1585     2.13256e+10 
           1595     2.11079e+10 
           1605       2.029e+10 
           1615     1.95758e+10 
           1625     1.96609e+10 
           1635     1.98496e+10 
           1645     1.92915e+10 
           1655     1.94635e+10 
           1665     1.92385e+10 
           1672     1.85159e+10 
           1677     1.96407e+10 
           1685     1.89915e+10 
           1695      1.8342e+10 
           1705      1.7784e+10 
           1715     1.71609e+10 
           1725     1.66904e+10 
           1735     1.69378e+10 
           1745     1.66205e+10 
           1755     1.64634e+10 
           1765     1.60247e+10 
           1775     1.55194e+10 
           1785     1.55221e+10 
           1795     1.54432e+10 
           1805     1.53662e+10 
           1815     1.45867e+10 
           1825     1.45902e+10 
           1835     1.42951e+10 
           1845     1.32397e+10 
           1855      1.3244e+10 
           1865     1.33385e+10 
           1875     1.33509e+10 
           1885     1.23285e+10 
           1895     1.16753e+10 
           1905     1.21873e+10 
           1915     1.16987e+10 
           1925     1.11688e+10 
           1935      1.1595e+10 
           1945     1.17519e+10 
           1955      1.0805e+10 
           1967     1.12208e+10 
           1976     1.15684e+10 
           1984     1.08724e+10 
           1995      1.0608e+10 
           2005     1.07105e+10 
           2015     1.06944e+10 
           2025     1.07489e+10 
           2035     1.01469e+10 
           2045     1.00695e+10 
           2055       9.3874e+9 
           2065       9.2967e+9 
           2074      9.52711e+9 
           2078      9.08827e+9 
           2085       9.1764e+9 
           2095      8.96111e+9 
           2105      9.29448e+9 
           2115      9.27333e+9 
           2125      9.26801e+9 
           2135      9.08057e+9 
           2145      8.80777e+9 
           2155      8.85196e+9 
           2165      8.71492e+9 
           2175      8.59753e+9 
           2185      8.44958e+9 
           2195      8.41108e+9 
           2205      8.28847e+9 
           2215      8.14853e+9 
           2225      8.01609e+9 
           2235      7.86835e+9 
           2245      7.81635e+9 
           2255      7.64049e+9 
           2265      7.59668e+9 
           2275      7.49219e+9 
           2285      7.38346e+9 
           2295      6.99689e+9 
           2305      7.13322e+9 
           2315      7.03166e+9 
           2325      6.94064e+9 
           2335      6.81443e+9 
           2345      6.77466e+9 
           2355      6.68315e+9 
           2365      6.59496e+9 
           2375      6.47722e+9 
           2385      6.36905e+9 
           2395      6.29522e+9 
           2405      6.21855e+9 
           2415      6.12937e+9 
           2425      6.06534e+9 
           2435      5.94688e+9 
           2445      5.88755e+9 
           2455      5.82306e+9 
           2465      5.74677e+9 
           2475      5.66162e+9 
           2485      5.58015e+9 
           2495       5.1094e+9 
           2505      5.40621e+9 
           2513      5.20833e+9 
           2518      5.29967e+9 
           2525      5.29331e+9 
           2535      5.22895e+9 
           2545       5.1022e+9 
           2555      5.06349e+9 
           2565      5.01384e+9 
           2575      4.95594e+9 
           2585      4.89782e+9 
           2595      4.83654e+9 
           2605      4.79415e+9 
           2615      4.73039e+9 
           2625      4.67611e+9 
           2635      4.61751e+9 
           2645      4.55116e+9 
           2655      4.49711e+9 
           2665      4.40513e+9 
           2675      4.35557e+9 
           2685      4.33322e+9 
           2695      4.21559e+9 
           2705      4.18772e+9 
           2715      4.14788e+9 
           2725      4.08183e+9 
           2735      4.04559e+9 
           2745      3.99792e+9 
           2755      3.96046e+9 
           2765      3.88101e+9 
           2775      3.87912e+9 
           2785      3.82518e+9 
           2795      3.71486e+9 
           2805      3.71246e+9 
           2815      3.69616e+9 
           2825      3.61575e+9 
           2835      3.54093e+9 
           2845        3.565e+9 
           2855      3.51336e+9 
           2865      3.47648e+9 
           2875      3.43671e+9 
           2885      3.39717e+9 
           2895      3.35567e+9 
           2910      3.29056e+9 
           2930      3.22218e+9 
           2950      3.11929e+9 
           2970      3.07601e+9 
           2990      3.00141e+9 
           3010       2.9222e+9 
           3030      2.87074e+9 
           3050      2.81159e+9 
           3070      2.75393e+9 
           3090       2.6686e+9 
           3110      2.63225e+9 
           3130      2.57103e+9 
           3150      2.51779e+9 
           3170      2.46123e+9 
           3190      2.39152e+9 
           3210      2.36013e+9 
           3230       2.3085e+9 
           3250      2.26369e+9 
           3270      2.21594e+9 
           3290      2.16795e+9 
           3310      2.12701e+9 
           3330      2.08122e+9 
           3350      2.03721e+9 
           3370      1.99791e+9 
           3390      1.96047e+9 
           3410      1.92131e+9 
           3430      1.87617e+9 
           3450      1.83239e+9 
           3470      1.80006e+9 
           3490      1.76443e+9 
           3510      1.73236e+9 
           3530      1.70136e+9 
           3550        1.669e+9 
           3570      1.64731e+9 
           3590      1.59945e+9 
           3610      1.57689e+9 
           3630      1.54175e+9 
           3640      1.54123e+9 
           3650      1.50969e+9 
           3670      1.48925e+9 
           3690      1.46297e+9 
           3710      1.41379e+9 
           3730      1.37238e+9 
           3750      1.34961e+9 
           3770      1.30577e+9 
           3790      1.34105e+9 
           3810      1.38452e+9 
           3830      1.22085e+9 
           3850      1.41267e+9 
           3870      1.42903e+9 
           3890      1.14213e+9 
           3910      1.40824e+9 
           3930      1.39382e+9 
           3950      1.35777e+9 
           3970       1.0587e+9 
           3990      1.30099e+9 
           4010       1.3077e+9 
           4030      1.22467e+9 
           4050      1.27653e+9 
           4070      1.22888e+9 
           4090      1.11599e+9 
           4110      9.86244e+8 
           4130      1.15922e+9 
           4150        1.155e+9 
           4170      1.14887e+9 
           4190      1.13089e+9 
           4210      1.11609e+9 
           4230      1.09526e+9 
           4250      1.07021e+9 
           4270      1.04317e+9 
           4290       1.0298e+9 
           4310      1.00014e+9 
           4330      8.94639e+8 
           4350      8.19219e+8 
           4370      9.47855e+8 
           4390      9.21293e+8 
           4410       9.3068e+8 
           4430      9.19877e+8 
           4450      9.05292e+8 
           4470       8.4634e+8 
           4490       8.7477e+8 
           4510      8.65232e+8 
           4530      8.51312e+8 
           4550      8.36202e+8 
           4570      8.22513e+8 
           4590      8.08745e+8 
           4610       7.9467e+8 
           4630      7.81844e+8 
           4650      7.59313e+8 
           4670      7.57401e+8 
           4690      7.46159e+8 
           4710      7.22158e+8 
           4730      7.24146e+8 
           4750      7.11966e+8 
           4770      7.04982e+8 
           4790      6.93262e+8 
           4810        6.794e+8 
           4830        6.624e+8 
           4850      6.03952e+8 
           4870      5.41866e+8 
           4890      6.30773e+8 
           4910      6.28208e+8 
           4930       6.0356e+8 
           4950      6.11838e+8 
           4970      6.05277e+8 
           4990      5.96047e+8 
           5010      5.76244e+8 
           5030      5.78237e+8 
           5050      5.66147e+8 
           5070      5.62011e+8 
           5090      5.53503e+8 
           5110      5.45283e+8 
           5130      5.36545e+8 
           5150       5.2892e+8 
           5170      5.22101e+8 
           5190      5.14994e+8 
           5210      5.07481e+8 
           5230      5.00425e+8 
           5250      4.93408e+8 
           5270      4.86265e+8 
           5290      4.79647e+8 
           5310      4.72888e+8 
           5330      4.66335e+8 
           5350      4.59722e+8 
           5370      4.53626e+8 
           5390      4.47232e+8 
           5410      4.40958e+8 
           5430      4.35109e+8 
           5450      4.29093e+8 
           5470      4.23279e+8 
           5490      4.17576e+8 
           5510      4.12105e+8 
           5530      4.06383e+8 
           5550      4.01135e+8 
           5570      3.95734e+8 
           5590       3.9052e+8 
           5610      3.85299e+8 
           5630      3.80272e+8 
           5650      3.74965e+8 
           5670      3.69477e+8 
           5690      3.63859e+8 
           5710      3.60321e+8 
           5730      3.55767e+8 
           5750      3.50665e+8 
           5770      3.46823e+8 
           5790      3.42308e+8 
           5810      3.37935e+8 
           5830      3.33359e+8 
           5850      3.29256e+8 
           5870      3.14093e+8 
           5890      3.19207e+8 
           5910      3.16673e+8 
           5930      3.12569e+8 
           5950       3.0862e+8 
           5970      3.05276e+8 
           5990       3.0112e+8 
           6010      2.97607e+8 
           6030      2.93771e+8 
           6050      2.90237e+8 
           6070      2.86794e+8 
           6090      2.83267e+8 
           6110      2.79812e+8 
           6130      2.76435e+8 
           6150      2.72717e+8 
           6170      2.69557e+8 
           6190      2.66441e+8 
           6210      2.63282e+8 
           6230      2.60138e+8 
           6250      2.56895e+8 
           6270      2.53897e+8 
           6290      2.50914e+8 
           6310      2.47888e+8 
           6330      2.45008e+8 
           6350      2.41991e+8 
           6370      2.39257e+8 
           6390      2.36433e+8 
           6410      2.33677e+8 
           6430      2.30986e+8 
           6450      2.28288e+8 
           6470      2.25349e+8 
           6490      2.22808e+8 
           6510      2.19895e+8 
           6530      2.16155e+8 
           6550      2.04634e+8 
           6570      1.81492e+8 
           6590      2.06529e+8 
           6610      2.07221e+8 
           6630      2.05613e+8 
           6650      2.03467e+8 
           6670      1.98785e+8 
           6690      1.96647e+8 
           6710      1.96773e+8 
           6730      1.94416e+8 
           6750      1.92431e+8 
           6770      1.90309e+8 
           6790      1.87743e+8 
           6810      1.86049e+8 
           6830      1.83992e+8 
           6850      1.82036e+8 
           6870      1.80036e+8 
           6890         1.78e+8 
           6910      1.76001e+8 
           6930      1.74225e+8 
           6950      1.72343e+8 
           6970      1.70487e+8 
           6990      1.68649e+8 
           7010      1.66837e+8 
           7030      1.65028e+8 
           7050      1.63274e+8 
           7070      1.58907e+8 
           7090      1.59826e+8 
           7110      1.58101e+8 
           7130      1.56444e+8 
           7150      1.54804e+8 
           7170      1.53165e+8 
           7190      1.51578e+8 
           7210      1.49991e+8 
           7230      1.47375e+8 
           7250      1.46793e+8 
           7270      1.45352e+8 
           7290      1.42641e+8 
           7310      1.42341e+8 
           7330      1.40886e+8 
           7350      1.39443e+8 
           7370      1.38022e+8 
           7390      1.36607e+8 
           7410      1.35218e+8 
           7430      1.33836e+8 
           7450      1.32494e+8 
           7470      1.30989e+8 
           7490       1.2982e+8 
           7510      1.28489e+8 
           7530      1.27209e+8 
           7550      1.25961e+8 
           7570      1.24705e+8 
           7590       1.2346e+8 
           7610      1.22174e+8 
           7630      1.21017e+8 
           7650      1.19825e+8 
           7670      1.18643e+8 
           7690      1.17473e+8 
           7710      1.16319e+8 
           7730       1.1517e+8 
           7750      1.14062e+8 
           7770       1.1287e+8 
           7790       1.1185e+8 
           7810      1.10716e+8 
           7830      1.09697e+8 
           7850       1.0871e+8 
           7870      1.07617e+8 
           7890      1.06509e+8 
           7910      1.05616e+8 
           7930      1.04569e+8 
           7950      1.03573e+8 
           7970      1.02532e+8 
           7990      1.01606e+8 
           8010      1.00629e+8 
           8030      9.96146e+7 
           8050      9.86551e+7 
           8070      9.77502e+7 
           8090      9.66861e+7 
           8110      9.56944e+7 
           8130      9.50417e+7 
           8150      9.40881e+7 
           8170      9.33063e+7 
           8190      9.22389e+7 
           8210      9.12479e+7 
           8230      9.04991e+7 
           8250      8.97896e+7 
           8270      8.85186e+7 
           8290      8.81194e+7 
           8310      8.73684e+7 
           8330      8.65313e+7 
           8350      8.54095e+7 
           8370       8.4862e+7 
           8390      8.42224e+7 
           8410      8.34494e+7 
           8430      8.26723e+7 
           8450      8.14161e+7 
           8470      8.12053e+7 
           8490       8.0311e+7 
           8510      7.97051e+7 
           8530      7.88399e+7 
           8550      7.80952e+7 
           8570      7.77363e+7 
           8590      7.57818e+7 
