# Kurucz ODFNEW /NOVER (2003)
# teff = 33000 K (value for the effective temperature for the model. Temperatures are given in K)
# logg = 4.5 log(cm/s2) (value for Log(G) for the model.)
# meta = 0.2  (value for the Metallicity for the model.)
# lh = 1.25  (l/Hp where l is the  mixing length of the convective element and Hp is the pressure scale height)
# vtur = 2 km/s (Microturbulence velocity)
# alpha = 0.4  (Alpha)
#
# column 1: WAVELENGTH (ANGSTROM), Wavelength in Angstrom
# column 2: FLUX (ERG/CM2/S/A), Flux in erg/cm2/s/A
          147.2      2.74221e-6 
            151      7.46139e-6 
          155.2      2.13303e-5 
          158.8      5.03109e-5 
            162      0.00010462 
            166      0.00025165 
          170.3     0.000614246 
          173.4      0.00114712 
          176.8      0.00222664 
          180.2      0.00418356 
          181.7      0.00554318 
          186.1       0.0119774 
            191       0.0271779 
          193.9       0.0432299 
          198.4       0.0870728 
          201.8        0.144084 
            205        0.228019 
          210.5        0.486795 
          216.2         1.01737 
          219.8         1.61111 
            223         2.37921 
          226.8         3.92935 
            230         776.248 
            234         1624.33 
            240         2646.59 
          246.5          4520.4 
          252.4         7545.14 
          256.8         10471.9 
            260         16589.5 
            264         23974.2 
          268.5         36135.9 
          273.5         50559.8 
          278.5         65007.7 
            284          146724 
            290          213092 
            296          285540 
            301          402073 
            308       1.0747e+6 
            318      2.18038e+6 
            328      3.16994e+6 
            338      5.53566e+6 
            348      8.45887e+6 
            357       1.9097e+7 
            366      4.04442e+7 
            375      4.86098e+7 
            385      7.27941e+7 
            395       1.5068e+8 
            405      1.85127e+8 
            414      2.69476e+8 
            422      2.99739e+8 
            430      3.41277e+8 
            441      4.16651e+8 
            451      4.70835e+8 
            460      4.86757e+8 
            470       5.8249e+8 
            480      6.77197e+8 
            490      7.17433e+8 
            500       8.8444e+8 
            506      1.22112e+9 
            512      9.41723e+9 
            520      8.73416e+9 
            530      7.99702e+9 
            540      7.64104e+9 
            550      8.74772e+9 
            560     1.14606e+10 
            570     1.23072e+10 
            580     1.12168e+10 
            590     1.20021e+10 
            600      8.58786e+9 
            610     1.13768e+10 
            620     1.37491e+10 
            630      1.3279e+10 
            640       1.294e+10 
            650     1.25154e+10 
            658      9.44251e+9 
            665     1.20995e+10 
            675     1.39538e+10 
            685     1.07987e+10 
            695     1.45958e+10 
            705     1.06563e+10 
            716     1.56811e+10 
            726     1.51435e+10 
            735     1.52219e+10 
            745     1.40354e+10 
            755     1.41406e+10 
            765     1.48741e+10 
            775     1.54599e+10 
            785     1.56952e+10 
            795     1.57916e+10 
            805     1.48494e+10 
            815     1.47102e+10 
            825     1.58452e+10 
            835      1.2092e+10 
            845      1.5046e+10 
            855     1.48398e+10 
            865     1.53335e+10 
            875     1.53856e+10 
            885      1.5669e+10 
            895     1.57455e+10 
            905     1.51791e+10 
            915     1.58022e+10 
            925     4.39945e+10 
            935      6.9789e+10 
            945     9.36355e+10 
            955     1.03986e+11 
            965     1.18566e+11 
            975     4.70483e+10 
            985     9.51274e+10 
            995      8.4644e+10 
           1005     8.77944e+10 
           1015     9.36242e+10 
           1025     7.17404e+10 
           1035     8.96927e+10 
           1045      1.0523e+11 
           1055     9.91287e+10 
           1065     8.20802e+10 
           1075     8.70964e+10 
           1085     8.01445e+10 
           1095     8.61841e+10 
           1105     8.14626e+10 
           1115     7.96231e+10 
           1125      5.9473e+10 
           1135     7.57275e+10 
           1145     7.21261e+10 
           1155     6.75898e+10 
           1165     6.70062e+10 
           1175     4.38118e+10 
           1185     6.09565e+10 
           1195      5.8239e+10 
           1205     5.44795e+10 
           1215     4.29064e+10 
           1225     5.42942e+10 
           1235     5.82153e+10 
           1245     5.58741e+10 
           1255     5.56857e+10 
           1265     5.68311e+10 
           1275     5.86035e+10 
           1285     5.83748e+10 
           1295     5.25661e+10 
           1305     5.31108e+10 
           1315     5.68441e+10 
           1325     5.44722e+10 
           1335     5.28538e+10 
           1345     5.18876e+10 
           1355     5.13174e+10 
           1365     4.87061e+10 
           1375     4.70597e+10 
           1385     4.49921e+10 
           1395     3.13827e+10 
           1405     3.37716e+10 
           1415     4.29352e+10 
           1425     3.86224e+10 
           1435     4.12601e+10 
           1442     4.09275e+10 
           1447     4.06775e+10 
           1455     3.85569e+10 
           1465     3.73109e+10 
           1475     3.77002e+10 
           1485     3.74897e+10 
           1495     3.62684e+10 
           1505     3.46271e+10 
           1512      3.3887e+10 
           1517     3.41699e+10 
           1525     3.30347e+10 
           1535     2.85734e+10 
           1545     2.44374e+10 
           1555     2.44061e+10 
           1565     2.72977e+10 
           1575     2.86774e+10 
           1585     2.84951e+10 
           1595     2.86187e+10 
           1605     2.72278e+10 
           1615     2.58661e+10 
           1625     2.63777e+10 
           1635     2.66676e+10 
           1645     2.66103e+10 
           1655     2.65551e+10 
           1665     2.59436e+10 
           1672     2.40706e+10 
           1677     2.81134e+10 
           1685     2.67312e+10 
           1695     2.56785e+10 
           1705      2.5281e+10 
           1715     2.41365e+10 
           1725     2.29928e+10 
           1735     2.38373e+10 
           1745     2.36478e+10 
           1755     2.32824e+10 
           1765     2.28658e+10 
           1775      2.1956e+10 
           1785     2.22711e+10 
           1795     2.18097e+10 
           1805     2.17606e+10 
           1815     2.10057e+10 
           1825     2.07434e+10 
           1835     2.06096e+10 
           1845     1.93521e+10 
           1855     1.96804e+10 
           1865     1.97256e+10 
           1875     1.92157e+10 
           1885     1.81811e+10 
           1895     1.76802e+10 
           1905      1.8227e+10 
           1915     1.75779e+10 
           1925     1.64859e+10 
           1935     1.74992e+10 
           1945     1.77081e+10 
           1955     1.60281e+10 
           1967      1.6765e+10 
           1976     1.72407e+10 
           1984     1.64751e+10 
           1995     1.60961e+10 
           2005     1.63323e+10 
           2015     1.62727e+10 
           2025     1.62235e+10 
           2035     1.54723e+10 
           2045     1.52916e+10 
           2055     1.26328e+10 
           2065      1.2213e+10 
           2074     1.26082e+10 
           2078     1.24009e+10 
           2085     1.29617e+10 
           2095      1.3488e+10 
           2105     1.40403e+10 
           2115     1.41631e+10 
           2125      1.3844e+10 
           2135     1.37386e+10 
           2145     1.34553e+10 
           2155     1.34856e+10 
           2165     1.29064e+10 
           2175     1.31057e+10 
           2185      1.2713e+10 
           2195     1.29204e+10 
           2205     1.27182e+10 
           2215     1.22251e+10 
           2225     1.22928e+10 
           2235     1.20978e+10 
           2245     1.19334e+10 
           2255     1.15241e+10 
           2265     1.16105e+10 
           2275     1.14825e+10 
           2285     1.10958e+10 
           2295     1.00029e+10 
           2305     1.06509e+10 
           2315     1.05844e+10 
           2325     1.05639e+10 
           2335     1.03997e+10 
           2345     1.03023e+10 
           2355     1.00927e+10 
           2365       9.9247e+9 
           2375      9.69503e+9 
           2385      9.30925e+9 
           2395      9.34135e+9 
           2405      9.34655e+9 
           2415      9.16143e+9 
           2425       9.1155e+9 
           2435      8.93912e+9 
           2445      8.85039e+9 
           2455      8.72218e+9 
           2465      8.61994e+9 
           2475      8.47724e+9 
           2485      8.14621e+9 
           2495      5.78043e+9 
           2505      7.66904e+9 
           2513      7.56481e+9 
           2518      7.66552e+9 
           2525      7.91675e+9 
           2535      7.87376e+9 
           2545      7.64565e+9 
           2555      7.60323e+9 
           2565      7.48051e+9 
           2575      7.44013e+9 
           2585      7.35787e+9 
           2595        7.214e+9 
           2605      7.18648e+9 
           2615      7.03356e+9 
           2625      6.98663e+9 
           2635      6.90223e+9 
           2645      6.79252e+9 
           2655      6.71633e+9 
           2665      6.53872e+9 
           2675      6.39463e+9 
           2685      6.43697e+9 
           2695       6.2814e+9 
           2705      6.21959e+9 
           2715      6.14473e+9 
           2725      6.06978e+9 
           2735      5.93734e+9 
           2745      5.96115e+9 
           2755      5.88073e+9 
           2765      5.78604e+9 
           2775      5.78453e+9 
           2785      5.66535e+9 
           2795      5.45031e+9 
           2805      5.51015e+9 
           2815      5.49389e+9 
           2825      5.41306e+9 
           2835      5.29197e+9 
           2845       5.3037e+9 
           2855      5.20653e+9 
           2865      5.13491e+9 
           2875       5.0678e+9 
           2885      5.01508e+9 
           2895      4.94858e+9 
           2910      4.80827e+9 
           2930      4.76611e+9 
           2950      4.62595e+9 
           2970      4.52755e+9 
           2990      4.38501e+9 
           3010      4.23088e+9 
           3030      4.12885e+9 
           3050      4.08945e+9 
           3070      4.03035e+9 
           3090      3.87801e+9 
           3110      3.85711e+9 
           3130      3.73903e+9 
           3150      3.68118e+9 
           3170      3.58746e+9 
           3190      3.51862e+9 
           3210      3.42505e+9 
           3230      3.35409e+9 
           3250       3.3068e+9 
           3270        3.202e+9 
           3290      3.15226e+9 
           3310      3.07972e+9 
           3330      3.00207e+9 
           3350      2.93206e+9 
           3370      2.87308e+9 
           3390      2.84039e+9 
           3410      2.77743e+9 
           3430      2.73479e+9 
           3450      2.65564e+9 
           3470      2.61225e+9 
           3490      2.55865e+9 
           3510      2.50917e+9 
           3530      2.47224e+9 
           3550      2.41639e+9 
           3570      2.37109e+9 
           3590      2.31297e+9 
           3610      2.27357e+9 
           3630      2.22554e+9 
           3640      2.20216e+9 
           3650      2.11675e+9 
           3670      2.08533e+9 
           3690      2.04477e+9 
           3710      1.96498e+9 
           3730      1.92931e+9 
           3750      1.92245e+9 
           3770      1.87332e+9 
           3790      1.93777e+9 
           3810      1.97779e+9 
           3830      1.78607e+9 
           3850      1.96931e+9 
           3870      1.90411e+9 
           3890      1.67657e+9 
           3910      1.92338e+9 
           3930      1.86315e+9 
           3950       1.8062e+9 
           3970      1.54159e+9 
           3990      1.77615e+9 
           4010      1.75016e+9 
           4030      1.67795e+9 
           4050      1.69548e+9 
           4070      1.61213e+9 
           4090      1.51425e+9 
           4110      1.39199e+9 
           4130      1.54538e+9 
           4150      1.52851e+9 
           4170      1.52675e+9 
           4190      1.49594e+9 
           4210       1.4688e+9 
           4230      1.44966e+9 
           4250      1.40363e+9 
           4270      1.37266e+9 
           4290      1.34225e+9 
           4310      1.30407e+9 
           4330      1.22755e+9 
           4350      1.14334e+9 
           4370      1.25004e+9 
           4390      1.22988e+9 
           4410      1.21594e+9 
           4430      1.20934e+9 
           4450      1.18489e+9 
           4470       1.1439e+9 
           4490      1.15188e+9 
           4510       1.1297e+9 
           4530      1.11975e+9 
           4550      1.09517e+9 
           4570      1.08548e+9 
           4590      1.06357e+9 
           4610      1.03976e+9 
           4630      1.01746e+9 
           4650      9.67518e+8 
           4670      9.88252e+8 
           4690      9.70165e+8 
           4710      9.48935e+8 
           4730      9.60881e+8 
           4750      9.42988e+8 
           4770      9.35975e+8 
           4790      9.20671e+8 
           4810      9.02137e+8 
           4830      8.82312e+8 
           4850      8.35139e+8 
           4870      7.59435e+8 
           4890      8.42092e+8 
           4910      8.32152e+8 
           4930      8.08906e+8 
           4950      8.04351e+8 
           4970       8.0181e+8 
           4990      7.89389e+8 
           5010      7.59985e+8 
           5030       7.5985e+8 
           5050      7.48806e+8 
           5070      7.43701e+8 
           5090      7.30946e+8 
           5110      7.19739e+8 
           5130      7.08326e+8 
           5150      6.98546e+8 
           5170      6.87697e+8 
           5190      6.79218e+8 
           5210      6.69905e+8 
           5230      6.60715e+8 
           5250      6.49635e+8 
           5270      6.39356e+8 
           5290      6.32942e+8 
           5310      6.23533e+8 
           5330       6.1503e+8 
           5350       6.0636e+8 
           5370      5.97907e+8 
           5390      5.88524e+8 
           5410      5.76265e+8 
           5430       5.7342e+8 
           5450      5.65123e+8 
           5470       5.5717e+8 
           5490      5.49656e+8 
           5510      5.42161e+8 
           5530      5.34711e+8 
           5550      5.27978e+8 
           5570      5.20611e+8 
           5590      5.12323e+8 
           5610      5.06869e+8 
           5630      5.00208e+8 
           5650      4.93085e+8 
           5670      4.85371e+8 
           5690      4.73552e+8 
           5710      4.65006e+8 
           5730      4.59769e+8 
           5750       4.5236e+8 
           5770      4.48381e+8 
           5790      4.42288e+8 
           5810      4.36034e+8 
           5830      4.29833e+8 
           5850      4.25942e+8 
           5870      4.11455e+8 
           5890      4.14269e+8 
           5910      4.10456e+8 
           5930      4.05913e+8 
           5950       4.0138e+8 
           5970      3.98061e+8 
           5990      3.92866e+8 
           6010      3.89234e+8 
           6030      3.84097e+8 
           6050       3.7975e+8 
           6070       3.7535e+8 
           6090      3.70766e+8 
           6110      3.65911e+8 
           6130      3.61562e+8 
           6150      3.56017e+8 
           6170      3.51822e+8 
           6190      3.48323e+8 
           6210      3.44305e+8 
           6230      3.39963e+8 
           6250       3.3537e+8 
           6270      3.31691e+8 
           6290      3.27757e+8 
           6310      3.23222e+8 
           6330      3.20008e+8 
           6350      3.15697e+8 
           6370      3.12501e+8 
           6390       3.0874e+8 
           6410      3.04909e+8 
           6430      3.01521e+8 
           6450      2.97807e+8 
           6470      2.93421e+8 
           6490      2.89988e+8 
           6510      2.86031e+8 
           6530      2.82055e+8 
           6550      2.73161e+8 
           6570      2.46077e+8 
           6590      2.71521e+8 
           6610      2.70613e+8 
           6630      2.68014e+8 
           6650       2.6465e+8 
           6670      2.58933e+8 
           6690      2.55872e+8 
           6710      2.55328e+8 
           6730      2.52041e+8 
           6750      2.50028e+8 
           6770      2.47534e+8 
           6790      2.43888e+8 
           6810      2.41922e+8 
           6830       2.3898e+8 
           6850      2.36551e+8 
           6870      2.33803e+8 
           6890        2.304e+8 
           6910      2.27648e+8 
           6930      2.26423e+8 
           6950       2.2392e+8 
           6970      2.21481e+8 
           6990      2.18998e+8 
           7010      2.16339e+8 
           7030      2.13822e+8 
           7050      2.11595e+8 
           7070      2.06638e+8 
           7090      2.07385e+8 
           7110      2.04603e+8 
           7130       2.0253e+8 
           7150      2.00817e+8 
           7170      1.98379e+8 
           7190       1.9641e+8 
           7210      1.94488e+8 
           7230      1.90833e+8 
           7250      1.89911e+8 
           7270      1.88383e+8 
           7290      1.85132e+8 
           7310      1.84346e+8 
           7330      1.82472e+8 
           7350      1.80567e+8 
           7370      1.78721e+8 
           7390      1.76893e+8 
           7410      1.75033e+8 
           7430      1.73246e+8 
           7450      1.71367e+8 
           7470      1.68864e+8 
           7490      1.67439e+8 
           7510      1.66161e+8 
           7530      1.64363e+8 
           7550      1.62885e+8 
           7570      1.61204e+8 
           7590       1.5908e+8 
           7610      1.57543e+8 
           7630      1.56271e+8 
           7650      1.54657e+8 
           7670      1.53269e+8 
           7690      1.51339e+8 
           7710       1.5006e+8 
           7730      1.48144e+8 
           7750      1.47192e+8 
           7770      1.45767e+8 
           7790      1.44387e+8 
           7810      1.42932e+8 
           7830      1.41569e+8 
           7850      1.40152e+8 
           7870      1.38413e+8 
           7890      1.37058e+8 
           7910      1.36059e+8 
           7930      1.34733e+8 
           7950      1.33537e+8 
           7970      1.32108e+8 
           7990      1.30911e+8 
           8010      1.29659e+8 
           8030      1.28354e+8 
           8050      1.27217e+8 
           8070      1.25997e+8 
           8090      1.24707e+8 
           8110      1.22695e+8 
           8130       1.2244e+8 
           8150      1.21182e+8 
           8170      1.20149e+8 
           8190      1.18237e+8 
           8210      1.16773e+8 
           8230      1.15456e+8 
           8250       1.1488e+8 
           8270      1.12898e+8 
           8290      1.12689e+8 
           8310      1.11858e+8 
           8330      1.10637e+8 
           8350      1.09227e+8 
           8370      1.08507e+8 
           8390      1.07819e+8 
           8410      1.06715e+8 
           8430       1.0586e+8 
           8450      1.04431e+8 
           8470      1.03954e+8 
           8490      1.02858e+8 
           8510      1.01642e+8 
           8530      1.01016e+8 
           8550      9.98273e+7 
           8570      9.96645e+7 
