# Kurucz ODFNEW /NOVER (2003)
# teff = 22000 K (value for the effective temperature for the model. Temperatures are given in K)
# logg = 5 log(cm/s2) (value for Log(G) for the model.)
# meta = -2.5  (value for the Metallicity for the model.)
# lh = 1.25  (l/Hp where l is the  mixing length of the convective element and Hp is the pressure scale height)
# vtur = 2 km/s (Microturbulence velocity)
# alpha = 0  (Alpha)
#
# column 1: WAVELENGTH (ANGSTROM), Wavelength in Angstrom
# column 2: FLUX (ERG/CM2/S/A), Flux in erg/cm2/s/A
          147.2     4.08341e-18 
            151     2.41245e-17 
          155.2     1.56089e-16 
          158.8     7.17487e-16 
            162     2.63656e-15 
            166     1.25274e-14 
          170.3      6.1761e-14 
          173.4     1.85912e-13 
          176.8     5.96365e-13 
          180.2     1.83144e-12 
          181.7     2.96466e-12 
          186.1     1.16489e-11 
            191     4.96478e-11 
          193.9     1.13037e-10 
          198.4     3.86525e-10 
          201.8     9.43599e-10 
            205      2.12699e-9 
          210.5      8.10163e-9 
          216.2      3.01174e-8 
          219.8       6.6592e-8 
            223      1.31831e-7 
          226.8      2.89097e-7 
            230      7.02063e-7 
            234      1.58209e-6 
            240      4.73685e-6 
          246.5      1.45646e-5 
          252.4       3.8391e-5 
          256.8      7.63442e-5 
            260     0.000124906 
            264     0.000225926 
          268.5      0.00043027 
          273.5     0.000857638 
          278.5      0.00166687 
            284      0.00336448 
            290      0.00701003 
            296       0.0141471 
            301       0.0248464 
            308       0.0527701 
            318        0.146487 
            328        0.379797 
            338        0.927017 
            348         2.14191 
            357         4.35851 
            366         8.54472 
            375         16.1734 
            385         31.6455 
            395         59.6634 
            405         108.718 
            414         181.579 
            422         280.721 
            430         426.322 
            441          736.97 
            451         1181.49 
            460         1771.91 
            470         2724.08 
            480         4104.62 
            490         6070.51 
            500         8820.29 
            506         51726.8 
            512          161948 
            520          207271 
            530          298849 
            540          337945 
            550          474953 
            560          585648 
            570          720354 
            580          763023 
            590      1.01063e+6 
            600      1.26633e+6 
            610      1.51056e+6 
            620      1.78535e+6 
            630      2.10053e+6 
            640      2.44644e+6 
            650      2.85574e+6 
            658      3.21091e+6 
            665      3.54559e+6 
            675      4.05987e+6 
            685        4.622e+6 
            695      5.29749e+6 
            705      5.99963e+6 
            716      6.84609e+6 
            726      7.69003e+6 
            735      8.52309e+6 
            745      9.51623e+6 
            755       1.0587e+7 
            765      1.17327e+7 
            775      1.29705e+7 
            785      1.42915e+7 
            795       1.5695e+7 
            805      1.71934e+7 
            815      1.87779e+7 
            825      2.04675e+7 
            835       2.2067e+7 
            845      2.41125e+7 
            855      2.60496e+7 
            865      2.81586e+7 
            875      3.03298e+7 
            885      3.26102e+7 
            895      3.49778e+7 
            905      3.71759e+7 
            915      5.61792e+7 
            925      2.13544e+8 
            935       5.6232e+8 
            945      2.80164e+9 
            955      7.32206e+9 
            965     1.07024e+10 
            975      3.16843e+9 
            985     1.82788e+10 
            995     2.04612e+10 
           1005     2.06286e+10 
           1015     1.41901e+10 
           1025      1.64049e+9 
           1035      1.1661e+10 
           1045     1.93207e+10 
           1055     1.99093e+10 
           1065     1.89995e+10 
           1075     1.92579e+10 
           1085     1.79794e+10 
           1095     1.85872e+10 
           1105     1.77794e+10 
           1115     1.74358e+10 
           1125     1.66492e+10 
           1135     1.66913e+10 
           1145      1.6045e+10 
           1155     1.59762e+10 
           1165     1.55846e+10 
           1175      1.4068e+10 
           1185       1.452e+10 
           1195     1.29083e+10 
           1205       8.7902e+9 
           1215      1.34818e+9 
           1225      7.62534e+9 
           1235     1.19469e+10 
           1245     1.25254e+10 
           1255     1.24917e+10 
           1265     1.22149e+10 
           1275      1.2193e+10 
           1285     1.19549e+10 
           1295     1.13289e+10 
           1305     1.11612e+10 
           1315     1.12398e+10 
           1325     1.08839e+10 
           1335     1.05016e+10 
           1345     1.05524e+10 
           1355      1.0365e+10 
           1365     1.01349e+10 
           1375      9.94038e+9 
           1385      9.75022e+9 
           1395      9.43554e+9 
           1405      9.29884e+9 
           1415      9.18311e+9 
           1425      9.02388e+9 
           1435      8.85409e+9 
           1442      8.74461e+9 
           1447      8.65999e+9 
           1455      8.52818e+9 
           1465      8.36301e+9 
           1475      8.21103e+9 
           1485      8.05452e+9 
           1495      7.90921e+9 
           1505      7.74457e+9 
           1512        7.646e+9 
           1517      7.58603e+9 
           1525      7.46906e+9 
           1535      7.28732e+9 
           1545      7.19298e+9 
           1555      7.04327e+9 
           1565      6.95816e+9 
           1575      6.84837e+9 
           1585      6.73029e+9 
           1595      6.61936e+9 
           1605      6.47234e+9 
           1615      6.36037e+9 
           1625      6.28347e+9 
           1635      6.18261e+9 
           1645      6.04418e+9 
           1655      5.97329e+9 
           1665      5.88721e+9 
           1672      5.75487e+9 
           1677      5.77258e+9 
           1685      5.69746e+9 
           1695      5.60041e+9 
           1705      5.50432e+9 
           1715      5.40996e+9 
           1725      5.32387e+9 
           1735      5.24866e+9 
           1745       5.1622e+9 
           1755       5.0896e+9 
           1765      4.96449e+9 
           1775      4.92258e+9 
           1785      4.85197e+9 
           1795      4.78274e+9 
           1805      4.71139e+9 
           1815      4.63549e+9 
           1825      4.56843e+9 
           1835      4.49919e+9 
           1845      4.41591e+9 
           1855      4.30088e+9 
           1865      4.25066e+9 
           1875      4.23319e+9 
           1885      4.14737e+9 
           1895      4.06038e+9 
           1905       4.0432e+9 
           1915      3.95136e+9 
           1925      3.89689e+9 
           1935      3.85742e+9 
           1945      3.81975e+9 
           1955      3.73849e+9 
           1967      3.70353e+9 
           1976      3.66543e+9 
           1984      3.61105e+9 
           1995      3.53669e+9 
           2005      3.51593e+9 
           2015      3.47305e+9 
           2025      3.42891e+9 
           2035      3.37728e+9 
           2045      3.33154e+9 
           2055      3.26654e+9 
           2065      3.22756e+9 
           2074      3.20968e+9 
           2078      3.16445e+9 
           2085      3.15693e+9 
           2095      3.10523e+9 
           2105      3.07554e+9 
           2115      3.03828e+9 
           2125      3.00107e+9 
           2135      2.96129e+9 
           2145      2.92146e+9 
           2155      2.88532e+9 
           2165      2.84796e+9 
           2175      2.81108e+9 
           2185       2.7761e+9 
           2195       2.7414e+9 
           2205      2.70621e+9 
           2215      2.67192e+9 
           2225      2.63761e+9 
           2235      2.60546e+9 
           2245      2.57333e+9 
           2255      2.54093e+9 
           2265      2.51017e+9 
           2275      2.47898e+9 
           2285      2.44918e+9 
           2295      2.41329e+9 
           2305      2.38942e+9 
           2315      2.35996e+9 
           2325       2.3319e+9 
           2335      2.30222e+9 
           2345      2.27242e+9 
           2355      2.24855e+9 
           2365      2.22007e+9 
           2375      2.19501e+9 
           2385      2.16631e+9 
           2395      2.14195e+9 
           2405      2.11727e+9 
           2415      2.09234e+9 
           2425      2.06987e+9 
           2435      2.04509e+9 
           2445       2.0214e+9 
           2455      1.99896e+9 
           2465      1.97521e+9 
           2475      1.95295e+9 
           2485      1.93074e+9 
           2495      1.90173e+9 
           2505        1.887e+9 
           2513      1.86749e+9 
           2518      1.85955e+9 
           2525      1.84423e+9 
           2535      1.82273e+9 
           2545      1.80273e+9 
           2555      1.78403e+9 
           2565      1.76368e+9 
           2575      1.74484e+9 
           2585       1.7255e+9 
           2595      1.70635e+9 
           2605        1.699e+9 
           2615      1.68107e+9 
           2625      1.66315e+9 
           2635      1.64376e+9 
           2645      1.62635e+9 
           2655      1.60675e+9 
           2665      1.58548e+9 
           2675      1.56554e+9 
           2685      1.55907e+9 
           2695      1.52984e+9 
           2705      1.52591e+9 
           2715      1.50958e+9 
           2725      1.47995e+9 
           2735      1.47791e+9 
           2745      1.46037e+9 
           2755      1.44537e+9 
           2765      1.41823e+9 
           2775      1.41707e+9 
           2785       1.4022e+9 
           2795      1.37835e+9 
           2805      1.37016e+9 
           2815      1.35935e+9 
           2825      1.32898e+9 
           2835      1.32131e+9 
           2845       1.3179e+9 
           2855      1.30457e+9 
           2865      1.29139e+9 
           2875      1.27828e+9 
           2885       1.2654e+9 
           2895      1.25267e+9 
           2910      1.23392e+9 
           2930      1.20928e+9 
           2950      1.17549e+9 
           2970      1.16236e+9 
           2990      1.13961e+9 
           3010      1.11762e+9 
           3030       1.0961e+9 
           3050      1.07509e+9 
           3070      1.05461e+9 
           3090      1.03461e+9 
           3110      1.01512e+9 
           3130      9.97072e+8 
           3150      9.78414e+8 
           3170      9.60259e+8 
           3190      9.33781e+8 
           3210       9.2485e+8 
           3230      9.07691e+8 
           3250      8.91061e+8 
           3270      8.75826e+8 
           3290      8.59014e+8 
           3310      8.44745e+8 
           3330      8.29702e+8 
           3350      8.13749e+8 
           3370      8.00669e+8 
           3390       7.8666e+8 
           3410      7.72956e+8 
           3430      7.57308e+8 
           3450      7.42064e+8 
           3470      7.31095e+8 
           3490      7.18657e+8 
           3510      7.07065e+8 
           3530      6.96053e+8 
           3550      6.84286e+8 
           3570      6.76433e+8 
           3590      6.60704e+8 
           3610      6.52131e+8 
           3630      6.39104e+8 
           3640      6.38185e+8 
           3650        6.326e+8 
           3670      6.25025e+8 
           3690      6.14837e+8 
           3710      5.94842e+8 
           3730      5.68848e+8 
           3750      5.73298e+8 
           3770      5.65403e+8 
           3790      6.06923e+8 
           3810      6.45361e+8 
           3830      5.48982e+8 
           3850      6.80871e+8 
           3870      7.11079e+8 
           3890      5.10468e+8 
           3910      7.03973e+8 
           3930      7.14705e+8 
           3950      6.85103e+8 
           3970      4.77673e+8 
           3990      6.51747e+8 
           4010      6.69698e+8 
           4030      6.17695e+8 
           4050      6.60738e+8 
           4070      6.42479e+8 
           4090      5.50092e+8 
           4110       4.6433e+8 
           4130      5.97355e+8 
           4150      6.00995e+8 
           4170      5.99447e+8 
           4190       5.9273e+8 
           4210      5.83647e+8 
           4230      5.74077e+8 
           4250      5.64182e+8 
           4270      5.53578e+8 
           4290      5.42902e+8 
           4310      5.25484e+8 
           4330      4.41392e+8 
           4350      3.96569e+8 
           4370       4.9691e+8 
           4390      4.79315e+8 
           4410      4.94445e+8 
           4430      4.85096e+8 
           4450       4.7968e+8 
           4470      4.39856e+8 
           4490      4.64369e+8 
           4510      4.59185e+8 
           4530      4.52129e+8 
           4550      4.45215e+8 
           4570      4.38422e+8 
           4590      4.31785e+8 
           4610      4.25263e+8 
           4630      4.18856e+8 
           4650      4.12542e+8 
           4670      4.06408e+8 
           4690      4.00346e+8 
           4710       3.8797e+8 
           4730      3.88552e+8 
           4750      3.82765e+8 
           4770      3.76979e+8 
           4790      3.70521e+8 
           4810       3.6362e+8 
           4830      3.52476e+8 
           4850      3.04971e+8 
           4870      2.67049e+8 
           4890      3.33544e+8 
           4910      3.36489e+8 
           4930      3.22511e+8 
           4950      3.30504e+8 
           4970      3.26507e+8 
           4990      3.21913e+8 
           5010      3.12219e+8 
           5030      3.12853e+8 
           5050      3.06303e+8 
           5070      3.04331e+8 
           5090      3.00141e+8 
           5110      2.96007e+8 
           5130      2.91942e+8 
           5150      2.87946e+8 
           5170      2.84032e+8 
           5190      2.80182e+8 
           5210      2.76384e+8 
           5230      2.72663e+8 
           5250      2.69004e+8 
           5270      2.65406e+8 
           5290      2.61855e+8 
           5310      2.58376e+8 
           5330      2.54955e+8 
           5350      2.51592e+8 
           5370      2.48284e+8 
           5390      2.45031e+8 
           5410      2.41833e+8 
           5430      2.38675e+8 
           5450      2.35582e+8 
           5470       2.3254e+8 
           5490      2.29537e+8 
           5510      2.26595e+8 
           5530       2.2369e+8 
           5550      2.20834e+8 
           5570      2.18024e+8 
           5590      2.15261e+8 
           5610      2.12544e+8 
           5630       2.0986e+8 
           5650       2.0722e+8 
           5670      2.04636e+8 
           5690      2.02083e+8 
           5710      1.99572e+8 
           5730      1.97091e+8 
           5750      1.94663e+8 
           5770      1.92264e+8 
           5790      1.89904e+8 
           5810      1.87572e+8 
           5830      1.85289e+8 
           5850      1.83034e+8 
           5870      1.73665e+8 
           5890       1.7795e+8 
           5910      1.76478e+8 
           5930      1.74358e+8 
           5950      1.72262e+8 
           5970      1.70211e+8 
           5990      1.68184e+8 
           6010       1.6619e+8 
           6030      1.64219e+8 
           6050      1.62291e+8 
           6070      1.60385e+8 
           6090      1.58501e+8 
           6110      1.56647e+8 
           6130      1.54825e+8 
           6150      1.53032e+8 
           6170       1.5126e+8 
           6190      1.49508e+8 
           6210      1.47794e+8 
           6230      1.46099e+8 
           6250      1.44423e+8 
           6270      1.42775e+8 
           6290      1.41154e+8 
           6310      1.39551e+8 
           6330      1.37975e+8 
           6350      1.36406e+8 
           6370      1.34883e+8 
           6390      1.33375e+8 
           6410      1.31884e+8 
           6430      1.30418e+8 
           6450      1.28968e+8 
           6470      1.27524e+8 
           6490      1.25791e+8 
           6510       1.2405e+8 
           6530      1.21401e+8 
           6550        1.118e+8 
           6570       9.7462e+7 
           6590      1.15678e+8 
           6610      1.17083e+8 
           6630      1.16369e+8 
           6650      1.15364e+8 
           6670      1.12691e+8 
           6690      1.11581e+8 
           6710      1.11904e+8 
           6730      1.10708e+8 
           6750      1.09532e+8 
           6770      1.08368e+8 
           6790      1.07215e+8 
           6810      1.06083e+8 
           6830      1.04962e+8 
           6850       1.0386e+8 
           6870      1.02769e+8 
           6890      1.01697e+8 
           6910      1.00636e+8 
           6930      9.95854e+7 
           6950      9.85529e+7 
           6970      9.75384e+7 
           6990      9.65261e+7 
           7010      9.55391e+7 
           7030      9.45542e+7 
           7050      9.35864e+7 
           7070      9.10453e+7 
           7090      9.16865e+7 
           7110      9.07541e+7 
           7130      8.98381e+7 
           7150      8.89309e+7 
           7170      8.80251e+7 
           7190      8.71498e+7 
           7210      8.62757e+7 
           7230      8.53954e+7 
           7250      8.45594e+7 
           7270       8.3717e+7 
           7290      8.22091e+7 
           7310      8.20631e+7 
           7330      8.12583e+7 
           7350       8.0454e+7 
           7370      7.96642e+7 
           7390      7.88887e+7 
           7410      7.81135e+7 
           7430      7.73523e+7 
           7450      7.66118e+7 
           7470      7.58645e+7 
           7490      7.51309e+7 
           7510      7.43839e+7 
           7530      7.36903e+7 
           7550      7.29832e+7 
           7570      7.22825e+7 
           7590      7.15881e+7 
           7610      7.09066e+7 
           7630      7.02312e+7 
           7650      6.95684e+7 
           7670      6.89051e+7 
           7690      6.82541e+7 
           7710      6.76152e+7 
           7730      6.69758e+7 
           7750      6.63483e+7 
           7770      6.57264e+7 
           7790      6.51161e+7 
           7810      6.44804e+7 
           7830      6.39118e+7 
           7850      6.33726e+7 
           7870      6.27833e+7 
           7890      6.21931e+7 
           7910      6.16321e+7 
           7930        6.107e+7 
           7950      6.05068e+7 
           7970      5.99307e+7 
           7990      5.94068e+7 
           8010      5.88698e+7 
           8030      5.83327e+7 
           8050      5.77833e+7 
           8070      5.72612e+7 
           8090       5.6678e+7 
           8110      5.62017e+7 
           8130       5.5717e+7 
           8150      5.51744e+7 
           8170      5.47347e+7 
           8190      5.41768e+7 
           8210      5.36634e+7 
           8230      5.32927e+7 
           8250      5.28404e+7 
           8270      5.22067e+7 
           8290      5.19129e+7 
           8310      5.14871e+7 
           8330      5.10143e+7 
           8350      5.03936e+7 
           8370      5.00874e+7 
           8390      4.97167e+7 
           8410      4.92813e+7 
           8430      4.88267e+7 
           8450      4.81564e+7 
           8470      4.79691e+7 
           8490        4.747e+7 
           8510      4.70739e+7 
           8530      4.66251e+7 
           8550      4.59965e+7 
           8570      4.60698e+7 
           8590        4.469e+7 
