# Kurucz ODFNEW /NOVER (2003)
# teff = 19000 K (value for the effective temperature for the model. Temperatures are given in K)
# logg = 4.5 log(cm/s2) (value for Log(G) for the model.)
# meta = -2.5  (value for the Metallicity for the model.)
# lh = 1.25  (l/Hp where l is the  mixing length of the convective element and Hp is the pressure scale height)
# vtur = 2 km/s (Microturbulence velocity)
# alpha = 0  (Alpha)
#
# column 1: WAVELENGTH (ANGSTROM), Wavelength in Angstrom
# column 2: FLUX (ERG/CM2/S/A), Flux in erg/cm2/s/A
          147.2     1.47035e-22 
            151     1.26799e-21 
          155.2     1.05638e-20 
          158.8     5.91161e-20 
            162     2.57268e-19 
            166     1.49989e-18 
          170.3     9.13828e-18 
          173.4     3.18536e-17 
          176.8     1.19382e-16 
          180.2     4.26233e-16 
          181.7     7.36219e-16 
          186.1     3.48173e-15 
            191     1.80862e-14 
          193.9     4.60746e-14 
          198.4     1.86362e-13 
          201.8     5.14567e-13 
            205     1.29867e-12 
          210.5     5.96056e-12 
          216.2     2.66268e-11 
          219.8     6.58013e-11 
            223     1.43346e-10 
          226.8      3.5135e-10 
            230     7.85506e-10 
            234      1.93724e-9 
            240      6.87662e-9 
          246.5      2.52206e-8 
          252.4      7.73201e-8 
          256.8      1.71866e-7 
            260      3.02883e-7 
            264      6.01396e-7 
          268.5      1.26774e-6 
          273.5      2.81849e-6 
          278.5      6.08549e-6 
            284      1.37308e-5 
            290      3.21479e-5 
            296      7.25631e-5 
            301     0.000139384 
            308      0.00033461 
            318      0.00109132 
            328      0.00329656 
            338      0.00928897 
            348       0.0245734 
            357       0.0561123 
            366        0.122697 
            375        0.257716 
            385        0.562711 
            395         1.17724 
            405         2.36798 
            414         4.30501 
            422         7.15469 
            430         11.6487 
            441         22.0636 
            451         38.2821 
            460         61.4678 
            470         101.613 
            480         164.149 
            490         259.506 
            500             402 
            506          3147.9 
            512         8204.17 
            520         10701.8 
            530           16063 
            540           19445 
            550         28580.4 
            560         37263.3 
            570         48200.3 
            580         53953.8 
            590         74852.4 
            600         97996.7 
            610          122192 
            620          150800 
            630          184891 
            640          224355 
            650          271878 
            658          314965 
            665          356808 
            675          423839 
            685          500119 
            695          590670 
            705          690957 
            716          815986 
            726          944761 
            735      1.07407e+6 
            745      1.23365e+6 
            755      1.41062e+6 
            765      1.60567e+6 
            775      1.82172e+6 
            785      2.05848e+6 
            795      2.31715e+6 
            805      2.59974e+6 
            815      2.90624e+6 
            825      3.24016e+6 
            835      3.57572e+6 
            845      3.98818e+6 
            855      4.40186e+6 
            865      4.85492e+6 
            875      5.33437e+6 
            885      5.84893e+6 
            895      6.39432e+6 
            905      6.92857e+6 
            915       1.2422e+7 
            925      4.40429e+7 
            935      1.20678e+8 
            945      8.27516e+8 
            955       2.7921e+9 
            965      4.13817e+9 
            975      1.09394e+9 
            985      7.81086e+9 
            995      9.11624e+9 
           1005      9.12782e+9 
           1015      5.99015e+9 
           1025      4.71815e+8 
           1035      4.80924e+9 
           1045      8.79878e+9 
           1055      9.18685e+9 
           1065      8.80688e+9 
           1075      9.04966e+9 
           1085      8.53735e+9 
           1095      8.81478e+9 
           1105      8.42394e+9 
           1115      8.33988e+9 
           1125      7.97796e+9 
           1135       8.0234e+9 
           1145      7.74019e+9 
           1155      7.75698e+9 
           1165      7.61078e+9 
           1175      6.95215e+9 
           1185      7.10842e+9 
           1195      6.12122e+9 
           1205      3.79006e+9 
           1215       3.8198e+8 
           1225      3.18053e+9 
           1235      5.76595e+9 
           1245      6.25239e+9 
           1255      6.24189e+9 
           1265       6.1596e+9 
           1275       6.1936e+9 
           1285      6.10191e+9 
           1295      5.78497e+9 
           1305      5.67431e+9 
           1315      5.79051e+9 
           1325      5.62275e+9 
           1335      5.42151e+9 
           1345      5.49384e+9 
           1355      5.40895e+9 
           1365      5.30269e+9 
           1375      5.21309e+9 
           1385      5.13062e+9 
           1395      4.99363e+9 
           1405      4.93864e+9 
           1415      4.87511e+9 
           1425       4.8047e+9 
           1435      4.72699e+9 
           1442      4.67704e+9 
           1447      4.63758e+9 
           1455      4.57409e+9 
           1465      4.49658e+9 
           1475      4.42578e+9 
           1485      4.35048e+9 
           1495      4.28152e+9 
           1505      4.20535e+9 
           1512      4.15645e+9 
           1517      4.13041e+9 
           1525      4.06856e+9 
           1535      3.97607e+9 
           1545      3.94765e+9 
           1555      3.86977e+9 
           1565      3.81863e+9 
           1575      3.77166e+9 
           1585      3.71522e+9 
           1595      3.66463e+9 
           1605      3.58621e+9 
           1615      3.52994e+9 
           1625      3.49191e+9 
           1635      3.44299e+9 
           1645      3.38636e+9 
           1655      3.33373e+9 
           1665      3.30209e+9 
           1672      3.21278e+9 
           1677      3.24201e+9 
           1685      3.20666e+9 
           1695      3.15661e+9 
           1705      3.10439e+9 
           1715       3.0569e+9 
           1725       3.0089e+9 
           1735      2.97969e+9 
           1745      2.93277e+9 
           1755      2.89957e+9 
           1765      2.82291e+9 
           1775      2.81463e+9 
           1785      2.77502e+9 
           1795      2.74325e+9 
           1805      2.70554e+9 
           1815       2.6662e+9 
           1825      2.63299e+9 
           1835      2.59654e+9 
           1845      2.55342e+9 
           1855      2.48797e+9 
           1865      2.46061e+9 
           1875      2.45747e+9 
           1885      2.41195e+9 
           1895      2.36548e+9 
           1905      2.35981e+9 
           1915      2.30914e+9 
           1925      2.28084e+9 
           1935      2.26014e+9 
           1945      2.24174e+9 
           1955      2.19886e+9 
           1967      2.18087e+9 
           1976      2.16009e+9 
           1984      2.13102e+9 
           1995      2.09055e+9 
           2005      2.07978e+9 
           2015      2.05649e+9 
           2025       2.0332e+9 
           2035      2.00599e+9 
           2045      1.98138e+9 
           2055      1.93814e+9 
           2065      1.92366e+9 
           2074      1.91497e+9 
           2078      1.88937e+9 
           2085      1.88719e+9 
           2095      1.85926e+9 
           2105      1.84283e+9 
           2115      1.82241e+9 
           2125      1.80254e+9 
           2135      1.78049e+9 
           2145      1.75893e+9 
           2155      1.73916e+9 
           2165       1.7171e+9 
           2175      1.69737e+9 
           2185      1.67847e+9 
           2195      1.66024e+9 
           2205      1.63995e+9 
           2215      1.62018e+9 
           2225      1.60094e+9 
           2235      1.58498e+9 
           2245      1.56678e+9 
           2255      1.54825e+9 
           2265      1.53167e+9 
           2275      1.51401e+9 
           2285      1.49805e+9 
           2295      1.47837e+9 
           2305      1.46408e+9 
           2315      1.44745e+9 
           2325      1.43231e+9 
           2335       1.4133e+9 
           2345      1.39202e+9 
           2355      1.38437e+9 
           2365      1.36521e+9 
           2375      1.35354e+9 
           2385      1.33261e+9 
           2395      1.32098e+9 
           2405      1.30774e+9 
           2415      1.29376e+9 
           2425      1.28401e+9 
           2435      1.26917e+9 
           2445      1.25572e+9 
           2455      1.24401e+9 
           2465      1.22953e+9 
           2475       1.2174e+9 
           2485      1.20476e+9 
           2495      1.18834e+9 
           2505      1.18019e+9 
           2513      1.16869e+9 
           2518      1.16453e+9 
           2525       1.1546e+9 
           2535      1.14088e+9 
           2545      1.13106e+9 
           2555      1.12135e+9 
           2565      1.10851e+9 
           2575      1.09878e+9 
           2585      1.08725e+9 
           2595      1.07581e+9 
           2605      1.06795e+9 
           2615      1.05848e+9 
           2625      1.04901e+9 
           2635      1.03748e+9 
           2645      1.02959e+9 
           2655      1.01838e+9 
           2665       1.0063e+9 
           2675      9.96153e+8 
           2685      9.90628e+8 
           2695      9.75665e+8 
           2705      9.71245e+8 
           2715      9.61446e+8 
           2725      9.46386e+8 
           2735      9.43105e+8 
           2745      9.29646e+8 
           2755       9.2152e+8 
           2765      9.10086e+8 
           2775      9.07697e+8 
           2785      8.98811e+8 
           2795      8.80576e+8 
           2805      8.77421e+8 
           2815      8.73812e+8 
           2825      8.58951e+8 
           2835      8.53699e+8 
           2845      8.49198e+8 
           2855      8.41411e+8 
           2865      8.33757e+8 
           2875      8.25916e+8 
           2885      8.18345e+8 
           2895      8.10858e+8 
           2910      7.99718e+8 
           2930      7.84932e+8 
           2950      7.66965e+8 
           2970      7.57055e+8 
           2990      7.43463e+8 
           3010      7.30331e+8 
           3030      7.17398e+8 
           3050      7.04781e+8 
           3070       6.9243e+8 
           3090      6.80379e+8 
           3110      6.68579e+8 
           3130      6.57447e+8 
           3150      6.46164e+8 
           3170      6.35149e+8 
           3190      6.20916e+8 
           3210      6.13678e+8 
           3230      6.03322e+8 
           3250      5.93208e+8 
           3270      5.83684e+8 
           3290      5.73651e+8 
           3310      5.64608e+8 
           3330      5.55366e+8 
           3350      5.45867e+8 
           3370       5.3745e+8 
           3390        5.288e+8 
           3410      5.20283e+8 
           3430      5.11255e+8 
           3450      5.02432e+8 
           3470      4.95093e+8 
           3490      4.87301e+8 
           3510      4.80265e+8 
           3530      4.72782e+8 
           3550      4.65378e+8 
           3570      4.59262e+8 
           3590      4.50856e+8 
           3610      4.44573e+8 
           3630      4.37115e+8 
           3640      4.35171e+8 
           3650      4.32055e+8 
           3670      4.27051e+8 
           3690      4.18699e+8 
           3710      4.05301e+8 
           3730      3.87292e+8 
           3750      4.15213e+8 
           3770      4.21474e+8 
           3790      4.63644e+8 
           3810      4.98626e+8 
           3830      4.20649e+8 
           3850      5.26976e+8 
           3870      5.50773e+8 
           3890      3.89075e+8 
           3910      5.43652e+8 
           3930      5.49133e+8 
           3950      5.28979e+8 
           3970      3.65354e+8 
           3990       5.0463e+8 
           4010      5.15985e+8 
           4030      4.83922e+8 
           4050      5.06785e+8 
           4070      4.94129e+8 
           4090      4.27286e+8 
           4110       3.5728e+8 
           4130      4.62096e+8 
           4150      4.63078e+8 
           4170      4.60618e+8 
           4190      4.55287e+8 
           4210      4.48081e+8 
           4230       4.4099e+8 
           4250      4.34013e+8 
           4270      4.26238e+8 
           4290      4.18404e+8 
           4310      4.06702e+8 
           4330      3.43798e+8 
           4350      3.07297e+8 
           4370      3.85826e+8 
           4390      3.75027e+8 
           4410      3.82074e+8 
           4430      3.75522e+8 
           4450      3.71222e+8 
           4470      3.47243e+8 
           4490      3.59685e+8 
           4510      3.55076e+8 
           4530      3.49763e+8 
           4550      3.44566e+8 
           4570      3.39482e+8 
           4590      3.34474e+8 
           4610      3.29557e+8 
           4630      3.24748e+8 
           4650      3.20009e+8 
           4670      3.15373e+8 
           4690      3.10805e+8 
           4710      3.02652e+8 
           4730        3.019e+8 
           4750      2.97543e+8 
           4770      2.93364e+8 
           4790      2.88539e+8 
           4810       2.8349e+8 
           4830      2.75883e+8 
           4850      2.39931e+8 
           4870      2.08563e+8 
           4890      2.61891e+8 
           4910      2.63388e+8 
           4930      2.54714e+8 
           4950      2.58272e+8 
           4970      2.54886e+8 
           4990      2.51394e+8 
           5010      2.45023e+8 
           5030      2.44583e+8 
           5050      2.39975e+8 
           5070      2.38027e+8 
           5090      2.34822e+8 
           5110      2.31675e+8 
           5130      2.28584e+8 
           5150      2.25533e+8 
           5170      2.22552e+8 
           5190      2.19609e+8 
           5210      2.16705e+8 
           5230      2.13866e+8 
           5250      2.11064e+8 
           5270      2.08312e+8 
           5290      2.05609e+8 
           5310      2.02941e+8 
           5330       2.0032e+8 
           5350      1.97733e+8 
           5370      1.95204e+8 
           5390      1.92708e+8 
           5410      1.90256e+8 
           5430      1.87835e+8 
           5450      1.85457e+8 
           5470      1.83121e+8 
           5490      1.80827e+8 
           5510      1.78561e+8 
           5530      1.76323e+8 
           5550      1.74138e+8 
           5570      1.71979e+8 
           5590      1.69846e+8 
           5610      1.67751e+8 
           5630      1.65694e+8 
           5650      1.63661e+8 
           5670      1.61665e+8 
           5690      1.59693e+8 
           5710      1.57756e+8 
           5730      1.55842e+8 
           5750      1.53962e+8 
           5770      1.52116e+8 
           5790      1.50291e+8 
           5810      1.48499e+8 
           5830      1.46729e+8 
           5850      1.44978e+8 
           5870      1.39225e+8 
           5890      1.41376e+8 
           5910      1.39914e+8 
           5930      1.38265e+8 
           5950      1.36645e+8 
           5970      1.35055e+8 
           5990      1.33482e+8 
           6010      1.31938e+8 
           6030      1.30412e+8 
           6050      1.28913e+8 
           6070      1.27431e+8 
           6090      1.25976e+8 
           6110      1.24537e+8 
           6130      1.23124e+8 
           6150      1.21727e+8 
           6170      1.20345e+8 
           6190      1.18989e+8 
           6210      1.17647e+8 
           6230       1.1633e+8 
           6250      1.15027e+8 
           6270      1.13748e+8 
           6290      1.12483e+8 
           6310      1.11232e+8 
           6330      1.10004e+8 
           6350      1.08779e+8 
           6370      1.07596e+8 
           6390      1.06425e+8 
           6410      1.05258e+8 
           6430      1.04112e+8 
           6450      1.02979e+8 
           6470      1.01866e+8 
           6490      1.00622e+8 
           6510      9.92401e+7 
           6530      9.73256e+7 
           6550      8.99532e+7 
           6570      7.80621e+7 
           6590       9.2985e+7 
           6610      9.38372e+7 
           6630      9.32034e+7 
           6650      9.24732e+7 
           6670      9.07086e+7 
           6690      8.97967e+7 
           6710      8.96136e+7 
           6730      8.86825e+7 
           6750      8.77526e+7 
           6770      8.68404e+7 
           6790      8.59373e+7 
           6810      8.50515e+7 
           6830      8.41746e+7 
           6850      8.33064e+7 
           6870      8.24549e+7 
           6890      8.16118e+7 
           6910      8.07772e+7 
           6930      7.99507e+7 
           6950      7.91403e+7 
           6970      7.83378e+7 
           6990      7.75509e+7 
           7010       7.6764e+7 
           7030      7.59955e+7 
           7050      7.52329e+7 
           7070      7.35749e+7 
           7090      7.37389e+7 
           7110      7.30057e+7 
           7130       7.2281e+7 
           7150      7.15655e+7 
           7170      7.08583e+7 
           7190      7.01622e+7 
           7210      6.94728e+7 
           7230       6.8787e+7 
           7250      6.81206e+7 
           7270      6.74569e+7 
           7290      6.64514e+7 
           7310      6.61496e+7 
           7330      6.55136e+7 
           7350      6.48814e+7 
           7370      6.42571e+7 
           7390      6.36401e+7 
           7410      6.30308e+7 
           7430      6.24285e+7 
           7450      6.18372e+7 
           7470      6.12493e+7 
           7490      6.06688e+7 
           7510      6.00876e+7 
           7530      5.95276e+7 
           7550      5.89675e+7 
           7570      5.84137e+7 
           7590      5.78663e+7 
           7610      5.73257e+7 
           7630      5.67907e+7 
           7650      5.62624e+7 
           7670      5.57407e+7 
           7690      5.52244e+7 
           7710      5.47145e+7 
           7730      5.42105e+7 
           7750      5.37115e+7 
           7770      5.32145e+7 
           7790      5.27323e+7 
           7810      5.22421e+7 
           7830      5.17753e+7 
           7850      5.13247e+7 
           7870      5.08592e+7 
           7890      5.03959e+7 
           7910      4.99451e+7 
           7930      4.94958e+7 
           7950       4.9051e+7 
           7970      4.86076e+7 
           7990      4.81763e+7 
           8010       4.7747e+7 
           8030      4.73219e+7 
           8050      4.69016e+7 
           8070       4.6486e+7 
           8090      4.60659e+7 
           8110      4.56655e+7 
           8130      4.52666e+7 
           8150      4.48508e+7 
           8170      4.44763e+7 
           8190      4.40695e+7 
           8210      4.36521e+7 
           8230      4.33312e+7 
           8250      4.29741e+7 
           8270      4.25286e+7 
           8290      4.22458e+7 
           8310      4.19025e+7 
           8330      4.15408e+7 
           8350      4.11043e+7 
           8370      4.08167e+7 
           8390      4.04981e+7 
           8410       4.0131e+7 
           8430      3.97574e+7 
           8450      3.93167e+7 
           8470      3.89737e+7 
           8490      3.86759e+7 
           8510      3.81463e+7 
           8530      3.80634e+7 
           8550      3.69981e+7 
           8570       3.7772e+7 
