# Kurucz ODFNEW /NOVER (2003)
# teff = 24000 K (value for the effective temperature for the model. Temperatures are given in K)
# logg = 3.5 log(cm/s2) (value for Log(G) for the model.)
# meta = 0  (value for the Metallicity for the model.)
# lh = 1.25  (l/Hp where l is the  mixing length of the convective element and Hp is the pressure scale height)
# vtur = 2 km/s (Microturbulence velocity)
# alpha = 0  (Alpha)
#
# column 1: WAVELENGTH (ANGSTROM), Wavelength in Angstrom
# column 2: FLUX (ERG/CM2/S/A), Flux in erg/cm2/s/A
          147.2     1.60379e-15 
            151     7.31269e-15 
          155.2     3.61605e-14 
          158.8     1.34002e-13 
            162     4.11612e-13 
            166     1.58342e-12 
          170.3       6.306e-12 
          173.4     1.64649e-11 
          176.8     4.54752e-11 
          180.2     1.21261e-10 
          181.7     1.84856e-10 
          186.1     6.15101e-10 
            191      2.20909e-9 
          193.9       4.5748e-9 
          198.4      1.36058e-8 
          201.8      3.00684e-8 
            205      6.19835e-8 
          210.5      2.04739e-7 
          216.2      6.63852e-7 
          219.8      1.35347e-6 
            223      2.50193e-6 
          226.8      5.08133e-6 
            230     0.000463997 
            234      0.00108479 
            240      0.00259786 
          246.5       0.0064524 
          252.4       0.0142902 
          256.8       0.0237293 
            260       0.0396753 
            264       0.0636315 
          268.5        0.107784 
          273.5        0.188414 
          278.5        0.323358 
            284        0.613745 
            290         1.10528 
            296         1.95786 
            301         3.05426 
            308          5.8028 
            318         14.2251 
            328         30.1677 
            338         65.0812 
            348          129.72 
            357         466.592 
            366         885.577 
            375         1381.14 
            385         2349.87 
            395         4188.75 
            405         6535.95 
            414         9869.05 
            422         13822.6 
            430           19888 
            441           30519 
            451         42901.4 
            460         57844.7 
            470         82786.7 
            480          114065 
            490          157172 
            500          209883 
            506      1.28891e+6 
            512      1.01628e+7 
            520      1.15042e+7 
            530      1.34236e+7 
            540         1.44e+7 
            550      2.12899e+7 
            560      2.55362e+7 
            570      3.05222e+7 
            580      2.91932e+7 
            590      3.86697e+7 
            600       4.3484e+7 
            610      5.16051e+7 
            620      5.75081e+7 
            630      6.15135e+7 
            640      5.80252e+7 
            650      4.39619e+7 
            658      6.82424e+7 
            665      8.24447e+7 
            675        8.681e+7 
            685      8.84368e+7 
            695      1.15602e+8 
            705      1.16902e+8 
            716      1.33112e+8 
            726      1.37683e+8 
            735      1.43146e+8 
            745      1.64091e+8 
            755      1.75277e+8 
            765      1.88621e+8 
            775      2.02263e+8 
            785       2.1706e+8 
            795       2.2579e+8 
            805      2.34511e+8 
            815      2.41156e+8 
            825      2.64409e+8 
            835      2.31925e+8 
            845      2.73209e+8 
            855      2.79322e+8 
            865      2.98725e+8 
            875      3.19609e+8 
            885      3.46588e+8 
            895      3.63116e+8 
            905      3.59547e+8 
            915      5.86136e+8 
            925      5.15324e+9 
            935     1.09447e+10 
            945     1.76387e+10 
            955     2.06084e+10 
            965     2.18527e+10 
            975      4.03073e+9 
            985     1.63342e+10 
            995     1.74836e+10 
           1005     2.12612e+10 
           1015     2.18101e+10 
           1025     1.40078e+10 
           1035     1.70411e+10 
           1045     2.57685e+10 
           1055     2.35351e+10 
           1065     1.91061e+10 
           1075     2.20977e+10 
           1085     1.95766e+10 
           1095     2.22693e+10 
           1105     2.00394e+10 
           1115       1.923e+10 
           1125     1.52737e+10 
           1135      2.0553e+10 
           1145     1.88151e+10 
           1155     1.92255e+10 
           1165      1.8953e+10 
           1175     1.06828e+10 
           1185     1.78733e+10 
           1195     1.65924e+10 
           1205     1.06966e+10 
           1215     1.02681e+10 
           1225     1.58389e+10 
           1235     1.77746e+10 
           1245     1.71134e+10 
           1255     1.69329e+10 
           1265     1.72007e+10 
           1275     1.78193e+10 
           1285     1.75905e+10 
           1295     1.21899e+10 
           1305     1.34132e+10 
           1315     1.70927e+10 
           1325     1.59395e+10 
           1335     1.52402e+10 
           1345     1.56629e+10 
           1355     1.53909e+10 
           1365     1.41189e+10 
           1375     1.36963e+10 
           1385     1.32635e+10 
           1395      9.20923e+9 
           1405     1.01882e+10 
           1415     1.17067e+10 
           1425     1.15431e+10 
           1435     1.20193e+10 
           1442     1.22958e+10 
           1447     1.20491e+10 
           1455     1.16404e+10 
           1465     1.06526e+10 
           1475     1.09759e+10 
           1485     1.08612e+10 
           1495     1.06125e+10 
           1505       9.6114e+9 
           1512      8.48774e+9 
           1517       8.7976e+9 
           1525      9.10857e+9 
           1535      7.61877e+9 
           1545        7.371e+9 
           1555      7.17087e+9 
           1565      7.86506e+9 
           1575       8.4316e+9 
           1585      8.47355e+9 
           1595      8.35475e+9 
           1605      8.47121e+9 
           1615      8.27303e+9 
           1625      8.13657e+9 
           1635      8.67025e+9 
           1645      8.65634e+9 
           1655      8.54985e+9 
           1665      8.68853e+9 
           1672      8.24454e+9 
           1677      9.09966e+9 
           1685      8.76135e+9 
           1695      8.21992e+9 
           1705      8.02179e+9 
           1715      7.52786e+9 
           1725      7.45109e+9 
           1735      7.77056e+9 
           1745      7.57684e+9 
           1755      7.63018e+9 
           1765      7.55206e+9 
           1775      7.02156e+9 
           1785      7.18549e+9 
           1795      7.40931e+9 
           1805       7.4862e+9 
           1815      6.57916e+9 
           1825      6.89896e+9 
           1835      6.68726e+9 
           1845      6.06304e+9 
           1855      6.13032e+9 
           1865      6.22376e+9 
           1875      6.53989e+9 
           1885      5.76816e+9 
           1895      5.33932e+9 
           1905      5.86164e+9 
           1915      5.46989e+9 
           1925      5.17145e+9 
           1935      5.54848e+9 
           1945      5.65837e+9 
           1955       5.0523e+9 
           1967      5.55987e+9 
           1976      5.79802e+9 
           1984      5.36996e+9 
           1995      5.26433e+9 
           2005      5.51034e+9 
           2015      5.43537e+9 
           2025      5.60369e+9 
           2035      5.04959e+9 
           2045      5.18022e+9 
           2055      4.95232e+9 
           2065      4.92744e+9 
           2074      5.27056e+9 
           2078      4.66279e+9 
           2085      5.00079e+9 
           2095      4.72055e+9 
           2105      4.89329e+9 
           2115      4.92469e+9 
           2125      4.96121e+9 
           2135      4.88947e+9 
           2145      4.58566e+9 
           2155      4.81966e+9 
           2165      4.81446e+9 
           2175      4.75365e+9 
           2185      4.56852e+9 
           2195      4.65334e+9 
           2205      4.64222e+9 
           2215      4.55855e+9 
           2225       4.4367e+9 
           2235      4.36519e+9 
           2245      4.41444e+9 
           2255      4.26462e+9 
           2265       4.3239e+9 
           2275      4.25904e+9 
           2285       4.2621e+9 
           2295      3.85847e+9 
           2305      4.11068e+9 
           2315      3.98287e+9 
           2325      3.93816e+9 
           2335      3.81482e+9 
           2345      3.84997e+9 
           2355      3.83969e+9 
           2365      3.80196e+9 
           2375      3.72133e+9 
           2385      3.69303e+9 
           2395      3.65306e+9 
           2405      3.58478e+9 
           2415      3.55431e+9 
           2425      3.54818e+9 
           2435      3.44381e+9 
           2445      3.45653e+9 
           2455      3.46006e+9 
           2465      3.39323e+9 
           2475      3.33868e+9 
           2485      3.27337e+9 
           2495      2.78403e+9 
           2505      3.16944e+9 
           2513      3.04257e+9 
           2518       3.1605e+9 
           2525      3.12362e+9 
           2535      3.08701e+9 
           2545      2.97474e+9 
           2555      3.01988e+9 
           2565       2.9776e+9 
           2575      2.98605e+9 
           2585      2.93819e+9 
           2595      2.91217e+9 
           2605      2.89297e+9 
           2615      2.84741e+9 
           2625      2.82833e+9 
           2635      2.80294e+9 
           2645      2.77263e+9 
           2655      2.76114e+9 
           2665      2.65389e+9 
           2675      2.66604e+9 
           2685      2.65787e+9 
           2695      2.56406e+9 
           2705      2.51785e+9 
           2715      2.52137e+9 
           2725      2.51355e+9 
           2735      2.49656e+9 
           2745      2.43256e+9 
           2755      2.42545e+9 
           2765      2.39966e+9 
           2775      2.41322e+9 
           2785      2.37285e+9 
           2795       2.2908e+9 
           2805      2.31127e+9 
           2815      2.31042e+9 
           2825      2.27922e+9 
           2835       2.1968e+9 
           2845      2.22365e+9 
           2855      2.18379e+9 
           2865      2.18459e+9 
           2875      2.16098e+9 
           2885      2.13946e+9 
           2895      2.10354e+9 
           2910      2.06389e+9 
           2930      2.03546e+9 
           2950      1.97518e+9 
           2970      1.94824e+9 
           2990      1.90566e+9 
           3010      1.83755e+9 
           3030      1.83295e+9 
           3050      1.80235e+9 
           3070      1.77267e+9 
           3090      1.70398e+9 
           3110      1.69659e+9 
           3130       1.6566e+9 
           3150      1.62963e+9 
           3170      1.58836e+9 
           3190      1.55596e+9 
           3210      1.53568e+9 
           3230      1.49957e+9 
           3250      1.47731e+9 
           3270      1.44443e+9 
           3290      1.41617e+9 
           3310      1.39175e+9 
           3330      1.36248e+9 
           3350       1.3385e+9 
           3370      1.31261e+9 
           3390      1.29202e+9 
           3410      1.26878e+9 
           3430      1.23997e+9 
           3450      1.21342e+9 
           3470      1.19277e+9 
           3490      1.16971e+9 
           3510      1.15223e+9 
           3530      1.13673e+9 
           3550      1.11582e+9 
           3570      1.09966e+9 
           3590      1.06853e+9 
           3610      1.04953e+9 
           3630      1.03553e+9 
           3640        1.034e+9 
           3650      1.01039e+9 
           3670      9.99044e+8 
           3690      9.73026e+8 
           3710      9.44034e+8 
           3730       9.2029e+8 
           3750      9.82644e+8 
           3770      9.77256e+8 
           3790      1.00476e+9 
           3810      1.03527e+9 
           3830      9.25637e+8 
           3850      1.03583e+9 
           3870      1.01509e+9 
           3890      8.83013e+8 
           3910      1.00724e+9 
           3930       9.7199e+8 
           3950      9.65891e+8 
           3970      8.18862e+8 
           3990      9.33843e+8 
           4010      9.23684e+8 
           4030      8.82876e+8 
           4050      8.93287e+8 
           4070      8.57215e+8 
           4090      8.18269e+8 
           4110      7.44623e+8 
           4130      8.17117e+8 
           4150      8.10879e+8 
           4170      8.05199e+8 
           4190      7.95878e+8 
           4210      7.88079e+8 
           4230      7.71128e+8 
           4250      7.52124e+8 
           4270      7.32264e+8 
           4290      7.24285e+8 
           4310      7.04823e+8 
           4330      6.65353e+8 
           4350      6.15927e+8 
           4370      6.71082e+8 
           4390      6.65235e+8 
           4410      6.59835e+8 
           4430      6.52566e+8 
           4450      6.42908e+8 
           4470      6.18785e+8 
           4490      6.23413e+8 
           4510      6.17692e+8 
           4530       6.0744e+8 
           4550      5.98855e+8 
           4570        5.887e+8 
           4590      5.79307e+8 
           4610      5.66581e+8 
           4630      5.58709e+8 
           4650      5.41839e+8 
           4670      5.42494e+8 
           4690      5.38082e+8 
           4710      5.18901e+8 
           4730      5.18866e+8 
           4750      5.10582e+8 
           4770      5.09952e+8 
           4790      5.01154e+8 
           4810      4.91475e+8 
           4830      4.83312e+8 
           4850      4.62341e+8 
           4870      4.19349e+8 
           4890      4.63773e+8 
           4910      4.58455e+8 
           4930      4.44188e+8 
           4950       4.4365e+8 
           4970      4.40513e+8 
           4990      4.33358e+8 
           5010      4.16367e+8 
           5030      4.20567e+8 
           5050      4.11127e+8 
           5070      4.09487e+8 
           5090      4.03222e+8 
           5110      3.96926e+8 
           5130      3.88527e+8 
           5150      3.84407e+8 
           5170      3.81269e+8 
           5190      3.76462e+8 
           5210       3.7033e+8 
           5230      3.65878e+8 
           5250      3.61168e+8 
           5270      3.55543e+8 
           5290      3.51527e+8 
           5310      3.46425e+8 
           5330       3.4208e+8 
           5350      3.37079e+8 
           5370      3.33319e+8 
           5390       3.2858e+8 
           5410      3.24649e+8 
           5430      3.19924e+8 
           5450      3.15589e+8 
           5470      3.11472e+8 
           5490       3.0747e+8 
           5510      3.04038e+8 
           5530      2.99502e+8 
           5550      2.96357e+8 
           5570      2.92253e+8 
           5590      2.88815e+8 
           5610      2.84892e+8 
           5630      2.81529e+8 
           5650       2.7673e+8 
           5670       2.7211e+8 
           5690      2.68036e+8 
           5710      2.66566e+8 
           5730      2.63481e+8 
           5750      2.59475e+8 
           5770      2.57498e+8 
           5790       2.5407e+8 
           5810      2.51007e+8 
           5830       2.4737e+8 
           5850      2.44702e+8 
           5870      2.35942e+8 
           5890       2.3684e+8 
           5910      2.35196e+8 
           5930      2.31888e+8 
           5950      2.28905e+8 
           5970      2.27607e+8 
           5990      2.23822e+8 
           6010      2.21855e+8 
           6030      2.18769e+8 
           6050      2.16388e+8 
           6070      2.14178e+8 
           6090      2.11635e+8 
           6110      2.09142e+8 
           6130      2.06807e+8 
           6150      2.03432e+8 
           6170      2.01413e+8 
           6190      1.99416e+8 
           6210      1.97273e+8 
           6230      1.95038e+8 
           6250      1.92394e+8 
           6270      1.90334e+8 
           6290      1.88279e+8 
           6310       1.8597e+8 
           6330      1.84054e+8 
           6350      1.81383e+8 
           6370      1.79726e+8 
           6390       1.7768e+8 
           6410       1.7573e+8 
           6430      1.73864e+8 
           6450      1.71845e+8 
           6470      1.69417e+8 
           6490      1.67578e+8 
           6510      1.66043e+8 
           6530      1.63835e+8 
           6550      1.59227e+8 
           6570      1.42828e+8 
           6590      1.57031e+8 
           6610      1.56824e+8 
           6630      1.55322e+8 
           6650      1.53571e+8 
           6670      1.50848e+8 
           6690      1.49257e+8 
           6710      1.48779e+8 
           6730      1.46839e+8 
           6750      1.45623e+8 
           6770      1.44057e+8 
           6790      1.41453e+8 
           6810       1.4077e+8 
           6830      1.39276e+8 
           6850      1.37942e+8 
           6870       1.3647e+8 
           6890      1.34893e+8 
           6910      1.33364e+8 
           6930      1.32163e+8 
           6950      1.30811e+8 
           6970      1.29449e+8 
           6990      1.28062e+8 
           7010      1.26726e+8 
           7030      1.25389e+8 
           7050      1.24087e+8 
           7070      1.20929e+8 
           7090      1.21559e+8 
           7110      1.19505e+8 
           7130      1.18361e+8 
           7150      1.17818e+8 
           7170      1.16619e+8 
           7190      1.15461e+8 
           7210      1.14278e+8 
           7230      1.11521e+8 
           7250      1.11788e+8 
           7270      1.10824e+8 
           7290      1.08863e+8 
           7310      1.08578e+8 
           7330      1.07475e+8 
           7350      1.06444e+8 
           7370      1.05389e+8 
           7390      1.04343e+8 
           7410      1.03307e+8 
           7430      1.02247e+8 
           7450      1.01264e+8 
           7470      9.98992e+7 
           7490      9.92388e+7 
           7510      9.82501e+7 
           7530      9.72637e+7 
           7550      9.63988e+7 
           7570      9.54694e+7 
           7590      9.45222e+7 
           7610      9.35187e+7 
           7630      9.26861e+7 
           7650      9.18094e+7 
           7670      9.09278e+7 
           7690      9.00541e+7 
           7710      8.91629e+7 
           7730      8.83049e+7 
           7750      8.74984e+7 
           7770       8.6331e+7 
           7790      8.58572e+7 
           7810      8.49795e+7 
           7830      8.42387e+7 
           7850      8.34616e+7 
           7870         8.26e+7 
           7890      8.16613e+7 
           7910      8.10742e+7 
           7930      8.02525e+7 
           7950        7.942e+7 
           7970      7.86898e+7 
           7990      7.79187e+7 
           8010      7.72423e+7 
           8030      7.65542e+7 
           8050      7.59243e+7 
           8070      7.52534e+7 
           8090      7.44501e+7 
           8110      7.35621e+7 
           8130      7.32405e+7 
           8150      7.24675e+7 
           8170      7.19607e+7 
           8190      7.10481e+7 
           8210      7.02328e+7 
           8230       6.9586e+7 
           8250       6.9238e+7 
           8270      6.80277e+7 
           8290      6.79081e+7 
           8310      6.73416e+7 
           8330      6.67526e+7 
           8350      6.58496e+7 
           8370      6.53794e+7 
           8390      6.49235e+7 
           8410      6.42955e+7 
           8430      6.36727e+7 
           8450      6.26436e+7 
           8470      6.23218e+7 
           8490      6.20442e+7 
           8510      6.09206e+7 
           8530      6.11789e+7 
           8550      5.90739e+7 
           8570      6.09067e+7 
           8590      5.81931e+7 
