# Kurucz ODFNEW /NOVER (2003)
# teff = 25000 K (value for the effective temperature for the model. Temperatures are given in K)
# logg = 4 log(cm/s2) (value for Log(G) for the model.)
# meta = -1  (value for the Metallicity for the model.)
# lh = 1.25  (l/Hp where l is the  mixing length of the convective element and Hp is the pressure scale height)
# vtur = 2 km/s (Microturbulence velocity)
# alpha = 0.4  (Alpha)
#
# column 1: WAVELENGTH (ANGSTROM), Wavelength in Angstrom
# column 2: FLUX (ERG/CM2/S/A), Flux in erg/cm2/s/A
          147.2     3.18018e-14 
            151     1.43372e-13 
          155.2     6.99686e-13 
          158.8     2.55924e-12 
            162     7.74891e-12 
            166     2.92363e-11 
          170.3     1.13995e-10 
          173.4     2.92149e-10 
          176.8     7.90188e-10 
          180.2      2.06022e-9 
          181.7      3.10913e-9 
          186.1      1.00193e-8 
            191      3.46379e-8 
          193.9      7.00719e-8 
          198.4      2.00718e-7 
          201.8      4.30836e-7 
            205      8.63667e-7 
          210.5      2.71574e-6 
          216.2      8.36192e-6 
          219.8      1.64971e-5 
            223      2.96162e-5 
          226.8      5.80501e-5 
            230       0.0038603 
            234      0.00896965 
            240       0.0208764 
          246.5       0.0498534 
          252.4        0.106924 
          256.8        0.171717 
            260        0.267996 
            264        0.417394 
          268.5          0.6901 
          273.5          1.1712 
          278.5         1.96024 
            284         3.44828 
            290         6.04693 
            296         10.3745 
            301          15.879 
            308         27.4354 
            318         64.2337 
            328         131.269 
            338         267.507 
            348         510.885 
            357         1018.97 
            366          1763.7 
            375         2808.36 
            385         4725.35 
            395         7708.44 
            405         12109.5 
            414         18078.6 
            422         24714.9 
            430         34080.9 
            441         51691.6 
            451         74502.8 
            460          100433 
            470          139873 
            480          190278 
            490          257183 
            500          343547 
            506      2.37056e+6 
            512      8.25288e+6 
            520      9.61705e+6 
            530      1.20571e+7 
            540      1.28135e+7 
            550      1.73395e+7 
            560      1.98696e+7 
            570       2.3652e+7 
            580      2.35086e+7 
            590       2.9936e+7 
            600      3.41547e+7 
            610      3.95925e+7 
            620      4.37531e+7 
            630      4.89264e+7 
            640      5.11969e+7 
            650      5.46663e+7 
            658      6.35612e+7 
            665      6.88366e+7 
            675      7.27074e+7 
            685      7.81672e+7 
            695      9.14165e+7 
            705      9.61256e+7 
            716      1.07767e+8 
            726      1.14182e+8 
            735      1.22065e+8 
            745      1.34856e+8 
            755       1.4483e+8 
            765      1.55282e+8 
            775      1.67495e+8 
            785      1.79878e+8 
            795      1.88977e+8 
            805      2.00438e+8 
            815      2.09825e+8 
            825      2.25459e+8 
            835      2.23079e+8 
            845      2.45377e+8 
            855      2.57286e+8 
            865       2.7284e+8 
            875      2.89254e+8 
            885      3.06987e+8 
            895      3.21677e+8 
            905      3.29437e+8 
            915      4.75937e+8 
            925      3.28374e+9 
            935      8.76985e+9 
            945     2.02412e+10 
            955     2.54988e+10 
            965     3.18217e+10 
            975      9.87056e+9 
            985     3.18239e+10 
            995      2.9504e+10 
           1005     3.13073e+10 
           1015     3.00667e+10 
           1025     1.31185e+10 
           1035     2.55567e+10 
           1045     3.33933e+10 
           1055     3.17285e+10 
           1065     2.75449e+10 
           1075     2.99209e+10 
           1085     2.74339e+10 
           1095     2.97814e+10 
           1105     2.73149e+10 
           1115     2.68436e+10 
           1125     2.38086e+10 
           1135     2.70595e+10 
           1145     2.46367e+10 
           1155     2.54488e+10 
           1165     2.53943e+10 
           1175     1.95483e+10 
           1185     2.40786e+10 
           1195     2.21483e+10 
           1205     1.67162e+10 
           1215       9.4191e+9 
           1225     1.95911e+10 
           1235     2.18194e+10 
           1245     2.15826e+10 
           1255     2.10628e+10 
           1265     2.08495e+10 
           1275     2.10507e+10 
           1285     2.05382e+10 
           1295     1.67016e+10 
           1305     1.72501e+10 
           1315     1.94671e+10 
           1325      1.8559e+10 
           1335     1.79347e+10 
           1345     1.77831e+10 
           1355     1.78971e+10 
           1365     1.68816e+10 
           1375     1.65874e+10 
           1385     1.64426e+10 
           1395     1.36382e+10 
           1405      1.4215e+10 
           1415     1.52336e+10 
           1425     1.47853e+10 
           1435     1.48796e+10 
           1442     1.50376e+10 
           1447      1.4767e+10 
           1455     1.44348e+10 
           1465     1.39142e+10 
           1475      1.3754e+10 
           1485     1.34644e+10 
           1495      1.3192e+10 
           1505     1.24339e+10 
           1512     1.18226e+10 
           1517     1.20054e+10 
           1525     1.19756e+10 
           1535     1.09382e+10 
           1545     1.09506e+10 
           1555     1.04639e+10 
           1565     1.08277e+10 
           1575     1.10281e+10 
           1585     1.08323e+10 
           1595     1.07845e+10 
           1605      1.0436e+10 
           1615     1.02027e+10 
           1625      1.0148e+10 
           1635     1.02727e+10 
           1645     1.00157e+10 
           1655      9.94878e+9 
           1665      9.87856e+9 
           1672      9.63094e+9 
           1677      9.94974e+9 
           1685      9.72453e+9 
           1695      9.40963e+9 
           1705       9.1188e+9 
           1715      8.79246e+9 
           1725      8.65966e+9 
           1735      8.69604e+9 
           1745      8.54284e+9 
           1755       8.5238e+9 
           1765      8.24355e+9 
           1775      8.01964e+9 
           1785      7.98643e+9 
           1795      8.03134e+9 
           1805      7.98434e+9 
           1815      7.56244e+9 
           1825       7.6171e+9 
           1835      7.44514e+9 
           1845      6.92097e+9 
           1855      6.88279e+9 
           1865      6.94565e+9 
           1875      7.00978e+9 
           1885      6.47397e+9 
           1895      6.10159e+9 
           1905      6.41588e+9 
           1915       6.1552e+9 
           1925       5.9376e+9 
           1935       6.1245e+9 
           1945      6.18487e+9 
           1955       5.7338e+9 
           1967      5.96843e+9 
           1976      6.14845e+9 
           1984       5.7882e+9 
           1995      5.64542e+9 
           2005      5.70985e+9 
           2015      5.70352e+9 
           2025      5.75536e+9 
           2035      5.43285e+9 
           2045      5.40606e+9 
           2055      5.21272e+9 
           2065      5.22729e+9 
           2074      5.35447e+9 
           2078      5.09901e+9 
           2085      5.15418e+9 
           2095      4.96998e+9 
           2105      5.05644e+9 
           2115      5.01834e+9 
           2125      5.04756e+9 
           2135      4.94691e+9 
           2145      4.77734e+9 
           2155      4.83248e+9 
           2165      4.78352e+9 
           2175      4.70316e+9 
           2185      4.63543e+9 
           2195      4.60854e+9 
           2205      4.54831e+9 
           2215      4.49237e+9 
           2225      4.40368e+9 
           2235      4.33487e+9 
           2245      4.31891e+9 
           2255      4.23343e+9 
           2265      4.20971e+9 
           2275      4.15459e+9 
           2285      4.11231e+9 
           2295      3.95332e+9 
           2305      3.99694e+9 
           2315      3.92242e+9 
           2325      3.87655e+9 
           2335       3.7945e+9 
           2345      3.77461e+9 
           2355      3.74636e+9 
           2365      3.69736e+9 
           2375      3.63958e+9 
           2385      3.59707e+9 
           2395      3.55139e+9 
           2405      3.50727e+9 
           2415      3.45206e+9 
           2425       3.4346e+9 
           2435      3.37118e+9 
           2445      3.34108e+9 
           2455      3.31129e+9 
           2465      3.26867e+9 
           2475      3.22534e+9 
           2485      3.18387e+9 
           2495      2.97963e+9 
           2505      3.09811e+9 
           2513      3.01208e+9 
           2518      3.04309e+9 
           2525      3.02666e+9 
           2535      2.99333e+9 
           2545      2.91186e+9 
           2555      2.91266e+9 
           2565      2.87442e+9 
           2575       2.8602e+9 
           2585      2.82656e+9 
           2595      2.79441e+9 
           2605      2.77638e+9 
           2615      2.74483e+9 
           2625      2.71581e+9 
           2635      2.68097e+9 
           2645      2.65244e+9 
           2655      2.62053e+9 
           2665      2.57512e+9 
           2675      2.55127e+9 
           2685      2.53972e+9 
           2695      2.48055e+9 
           2705      2.47152e+9 
           2715      2.44711e+9 
           2725      2.40315e+9 
           2735      2.39352e+9 
           2745      2.35381e+9 
           2755      2.33383e+9 
           2765      2.29535e+9 
           2775       2.2937e+9 
           2785       2.2642e+9 
           2795      2.19266e+9 
           2805      2.20013e+9 
           2815      2.19366e+9 
           2825      2.14955e+9 
           2835       2.1113e+9 
           2845      2.12134e+9 
           2855        2.095e+9 
           2865      2.07531e+9 
           2875      2.05287e+9 
           2885      2.03201e+9 
           2895      2.00856e+9 
           2910       1.9734e+9 
           2930      1.93133e+9 
           2950      1.87912e+9 
           2970      1.85347e+9 
           2990      1.81224e+9 
           3010      1.77073e+9 
           3030      1.74046e+9 
           3050      1.70604e+9 
           3070      1.67234e+9 
           3090      1.62566e+9 
           3110      1.60397e+9 
           3130      1.57111e+9 
           3150      1.54075e+9 
           3170      1.50937e+9 
           3190      1.46829e+9 
           3210      1.45137e+9 
           3230      1.42121e+9 
           3250       1.3946e+9 
           3270      1.36889e+9 
           3290      1.34054e+9 
           3310      1.31741e+9 
           3330      1.29184e+9 
           3350      1.26559e+9 
           3370      1.24335e+9 
           3390      1.22082e+9 
           3410      1.19828e+9 
           3430      1.17035e+9 
           3450      1.14454e+9 
           3470      1.12644e+9 
           3490      1.10553e+9 
           3510      1.08936e+9 
           3530      1.07218e+9 
           3550      1.05311e+9 
           3570      1.03948e+9 
           3590       1.0134e+9 
           3610      9.97666e+8 
           3630      9.78669e+8 
           3640      9.77138e+8 
           3650       9.5785e+8 
           3670      9.45956e+8 
           3690       9.2541e+8 
           3710      8.94083e+8 
           3730      8.60936e+8 
           3750      9.04285e+8 
           3770      9.03038e+8 
           3790      9.44256e+8 
           3810      9.79422e+8 
           3830      8.62279e+8 
           3850      9.98978e+8 
           3870      9.99043e+8 
           3890      8.17611e+8 
           3910       9.8329e+8 
           3930      9.61014e+8 
           3950      9.49327e+8 
           3970      7.59415e+8 
           3990      9.12735e+8 
           4010      9.05902e+8 
           4030      8.57522e+8 
           4050      8.83411e+8 
           4070      8.56351e+8 
           4090      7.98383e+8 
           4110      7.06531e+8 
           4130      8.07598e+8 
           4150      8.01888e+8 
           4170      7.95666e+8 
           4190       7.8399e+8 
           4210      7.73392e+8 
           4230      7.59758e+8 
           4250      7.44636e+8 
           4270      7.27098e+8 
           4290      7.18758e+8 
           4310      7.02673e+8 
           4330      6.44858e+8 
           4350      5.89448e+8 
           4370      6.68517e+8 
           4390      6.48404e+8 
           4410      6.52048e+8 
           4430      6.42085e+8 
           4450       6.3372e+8 
           4470      5.99836e+8 
           4490      6.12388e+8 
           4510      6.05765e+8 
           4530      5.96021e+8 
           4550      5.85825e+8 
           4570      5.76236e+8 
           4590      5.67577e+8 
           4610      5.58852e+8 
           4630      5.50748e+8 
           4650      5.37535e+8 
           4670      5.33217e+8 
           4690      5.26641e+8 
           4710      5.09866e+8 
           4730      5.10009e+8 
           4750      5.01632e+8 
           4770      4.96723e+8 
           4790      4.89168e+8 
           4810      4.80647e+8 
           4830      4.70958e+8 
           4850      4.39631e+8 
           4870      3.94887e+8 
           4890      4.50381e+8 
           4910      4.46204e+8 
           4930      4.30733e+8 
           4950      4.33902e+8 
           4970      4.28831e+8 
           4990      4.22556e+8 
           5010      4.10138e+8 
           5030      4.10486e+8 
           5050      4.01525e+8 
           5070      3.99184e+8 
           5090      3.93436e+8 
           5110      3.87866e+8 
           5130      3.82128e+8 
           5150       3.7685e+8 
           5170      3.71953e+8 
           5190      3.66924e+8 
           5210      3.61392e+8 
           5230       3.5698e+8 
           5250      3.52134e+8 
           5270      3.47255e+8 
           5290      3.42628e+8 
           5310      3.37954e+8 
           5330      3.33381e+8 
           5350      3.28747e+8 
           5370      3.24605e+8 
           5390      3.20203e+8 
           5410      3.15987e+8 
           5430      3.11645e+8 
           5450      3.07548e+8 
           5470      3.03515e+8 
           5490      2.99645e+8 
           5510      2.95774e+8 
           5530      2.91864e+8 
           5550       2.8815e+8 
           5570      2.84372e+8 
           5590      2.80762e+8 
           5610      2.77076e+8 
           5630      2.73613e+8 
           5650      2.69768e+8 
           5670       2.6618e+8 
           5690      2.62649e+8 
           5710      2.59818e+8 
           5730      2.56619e+8 
           5750      2.53071e+8 
           5770      2.50279e+8 
           5790      2.47159e+8 
           5810      2.44065e+8 
           5830      2.40975e+8 
           5850      2.38042e+8 
           5870       2.2842e+8 
           5890      2.31595e+8 
           5910      2.29296e+8 
           5930      2.26456e+8 
           5950      2.23617e+8 
           5970      2.21138e+8 
           5990       2.1833e+8 
           6010      2.15805e+8 
           6030      2.13174e+8 
           6050      2.10645e+8 
           6070      2.08155e+8 
           6090      2.05663e+8 
           6110      2.03239e+8 
           6130      2.00842e+8 
           6150      1.98303e+8 
           6170      1.96079e+8 
           6190      1.93821e+8 
           6210      1.91568e+8 
           6230      1.89331e+8 
           6250       1.8708e+8 
           6270      1.84939e+8 
           6290      1.82813e+8 
           6310      1.80662e+8 
           6330      1.78629e+8 
           6350      1.76357e+8 
           6370       1.7448e+8 
           6390       1.7255e+8 
           6410      1.70577e+8 
           6430      1.68688e+8 
           6450      1.66765e+8 
           6470      1.64791e+8 
           6490      1.62963e+8 
           6510      1.61172e+8 
           6530      1.58755e+8 
           6550      1.52509e+8 
           6570      1.36012e+8 
           6590      1.52399e+8 
           6610      1.52237e+8 
           6630      1.50771e+8 
           6650      1.49158e+8 
           6670      1.46157e+8 
           6690      1.44594e+8 
           6710      1.44369e+8 
           6730       1.4273e+8 
           6750      1.41266e+8 
           6770      1.39742e+8 
           6790      1.38062e+8 
           6810      1.36732e+8 
           6830      1.35246e+8 
           6850      1.33831e+8 
           6870      1.32407e+8 
           6890      1.30973e+8 
           6910      1.29569e+8 
           6930      1.28226e+8 
           6950      1.26888e+8 
           6970      1.25556e+8 
           6990      1.24229e+8 
           7010      1.22931e+8 
           7030      1.21646e+8 
           7050      1.20388e+8 
           7070      1.17243e+8 
           7090      1.17909e+8 
           7110      1.16681e+8 
           7130      1.15479e+8 
           7150      1.14296e+8 
           7170      1.13109e+8 
           7190      1.11978e+8 
           7210      1.10836e+8 
           7230      1.09085e+8 
           7250      1.08555e+8 
           7270      1.07496e+8 
           7290      1.05546e+8 
           7310      1.05321e+8 
           7330      1.04285e+8 
           7350      1.03237e+8 
           7370      1.02212e+8 
           7390      1.01191e+8 
           7410      1.00186e+8 
           7430       9.9183e+7 
           7450      9.82235e+7 
           7470      9.71717e+7 
           7490      9.62908e+7 
           7510      9.53177e+7 
           7530      9.44134e+7 
           7550      9.34975e+7 
           7570      9.25899e+7 
           7590      9.16841e+7 
           7610        9.078e+7 
           7630      8.99229e+7 
           7650      8.90542e+7 
           7670      8.81998e+7 
           7690       8.7353e+7 
           7710      8.65138e+7 
           7730      8.56821e+7 
           7750      8.48704e+7 
           7770      8.39223e+7 
           7790      8.32685e+7 
           7810      8.24164e+7 
           7830      8.17009e+7 
           7850      8.09856e+7 
           7870      8.02095e+7 
           7890      7.93738e+7 
           7910      7.87501e+7 
           7930      7.79939e+7 
           7950      7.71549e+7 
           7970       7.6359e+7 
           7990      7.56408e+7 
           8010      7.49582e+7 
           8030       7.4264e+7 
           8050      7.36047e+7 
           8070      7.29916e+7 
           8090      7.21707e+7 
           8110      7.15574e+7 
           8130      7.10462e+7 
           8150      7.02839e+7 
           8170      6.97822e+7 
           8190      6.90205e+7 
           8210       6.8204e+7 
           8230      6.77617e+7 
           8250      6.72121e+7 
           8270      6.62099e+7 
           8290      6.59456e+7 
           8310      6.53831e+7 
           8330      6.47763e+7 
           8350      6.38774e+7 
           8370       6.3508e+7 
           8390       6.3045e+7 
           8410      6.24739e+7 
           8430      6.18544e+7 
           8450      6.08655e+7 
           8470      6.06677e+7 
           8490      6.01156e+7 
           8510      5.94121e+7 
           8530      5.91493e+7 
           8550      5.77288e+7 
           8570      5.88293e+7 
           8590      5.63756e+7 
