# Kurucz ODFNEW /NOVER (2003)
# teff = 8000 K (value for the effective temperature for the model. Temperatures are given in K)
# logg = 5 log(cm/s2) (value for Log(G) for the model.)
# meta = 0.5  (value for the Metallicity for the model.)
# lh = 1.25  (l/Hp where l is the  mixing length of the convective element and Hp is the pressure scale height)
# vtur = 2 km/s (Microturbulence velocity)
# alpha = 0.4  (Alpha)
#
# column 1: WAVELENGTH (ANGSTROM), Wavelength in Angstrom
# column 2: FLUX (ERG/CM2/S/A), Flux in erg/cm2/s/A
            328     8.54946e-25 
            338     8.79367e-24 
            348     7.85942e-23 
            357     5.04606e-22 
            366      2.9462e-21 
            375     1.57111e-20 
            385     9.15817e-20 
            395     4.85203e-19 
            405     2.35558e-18 
            414     9.11271e-18 
            422     2.87914e-17 
            430     8.68943e-17 
            441     3.70103e-16 
            451     1.29325e-15 
            460     3.79364e-15 
            470     1.19095e-14 
            480     3.55081e-14 
            490     1.00932e-13 
            500     2.73973e-13 
            506     6.43278e-13 
            512     1.27398e-12 
            520     2.63683e-12 
            530     6.37489e-12 
            540     1.46054e-11 
            550     3.28869e-11 
            560     7.12434e-11 
            570     1.49741e-10 
            580     3.02134e-10 
            590     6.08308e-10 
            600      1.17874e-9 
            610       2.2378e-9 
            620      4.13746e-9 
            630      7.49007e-9 
            640      1.32729e-8 
            650      2.31049e-8 
            658      3.54877e-8 
            665      5.08087e-8 
            675      8.46437e-8 
            685      1.38906e-7 
            695      2.23554e-7 
            705      3.49083e-7 
            716      5.77407e-7 
            726       8.8801e-7 
            735      1.29241e-6 
            745      1.93155e-6 
            755      2.85952e-6 
            765       4.1947e-6 
            775      6.06944e-6 
            785      8.73803e-6 
            795        1.218e-5 
            805      1.70952e-5 
            815      2.40849e-5 
            825      3.32419e-5 
            835      4.53999e-5 
            845      6.14776e-5 
            855      8.25942e-5 
            865     0.000110014 
            875     0.000143734 
            885     0.000190672 
            895      0.00024846 
            905     0.000319157 
            915       0.0880824 
            925         0.24197 
            935         0.31856 
            945        0.415808 
            955        0.566814 
            965         0.73402 
            975        0.929632 
            985         1.18355 
            995         1.48032 
           1005         1.92605 
           1015         2.41742 
           1025         2.92638 
           1035         3.72958 
           1045         4.61241 
           1055         5.68534 
           1065         6.93324 
           1075         8.52154 
           1085         10.4059 
           1095         12.5258 
           1105         32.7017 
           1115         101.047 
           1125         143.843 
           1135         199.886 
           1145         250.484 
           1155         274.555 
           1165         372.614 
           1175         445.868 
           1185         471.131 
           1195         290.008 
           1205          443.48 
           1215         142.263 
           1225         533.151 
           1235         875.217 
           1245         1525.73 
           1255         2553.59 
           1265         2207.75 
           1275         3069.92 
           1285         3835.91 
           1295         4441.39 
           1305         3736.93 
           1315         5235.62 
           1325         5941.62 
           1335         6564.88 
           1345         7526.99 
           1355         7884.95 
           1365         8664.54 
           1375         9355.74 
           1385         10060.7 
           1395         11276.2 
           1405         12461.9 
           1415         13225.1 
           1425         14425.4 
           1435         14963.1 
           1442         16955.8 
           1447         17517.2 
           1455         19133.4 
           1465         20010.6 
           1475         21494.2 
           1485         23371.9 
           1495         26082.5 
           1505         28556.3 
           1512         29119.7 
           1517         31293.6 
           1525         36222.7 
           1535         63268.8 
           1545          101946 
           1555          113981 
           1565          110575 
           1575          154359 
           1585          178406 
           1595          208206 
           1605          214175 
           1615          216095 
           1625          207594 
           1635          246340 
           1645          305126 
           1655          226407 
           1665          331528 
           1672          243725 
           1677          385151 
           1685          561785 
           1695          523758 
           1705          933107 
           1715      2.80457e+6 
           1725      3.52811e+6 
           1735      6.05838e+6 
           1745      5.93174e+6 
           1755      9.27848e+6 
           1765      3.87719e+6 
           1775      7.72489e+6 
           1785      9.13534e+6 
           1795      1.31188e+7 
           1805      8.38615e+6 
           1815      7.58005e+6 
           1825      7.20968e+6 
           1835      7.26031e+6 
           1845      4.90398e+6 
           1855      8.39824e+6 
           1865      1.23236e+7 
           1875      1.09923e+7 
           1885      1.17348e+7 
           1895      1.22848e+7 
           1905      1.06852e+7 
           1915      1.31729e+7 
           1925      1.12573e+7 
           1935      5.97931e+6 
           1945      1.36191e+7 
           1955      1.44787e+7 
           1967      1.67202e+7 
           1976       1.4846e+7 
           1984      1.30373e+7 
           1995      1.43043e+7 
           2005      1.26813e+7 
           2015      1.25539e+7 
           2025      1.13048e+7 
           2035      1.58261e+7 
           2045      1.70833e+7 
           2055      1.55276e+7 
           2065       1.5875e+7 
           2074      1.89421e+7 
           2078      2.25772e+7 
           2085      2.09682e+7 
           2095      1.87892e+7 
           2105      1.71062e+7 
           2115      1.83942e+7 
           2125      1.83692e+7 
           2135      1.52296e+7 
           2145      1.96625e+7 
           2155      1.96987e+7 
           2165      1.71976e+7 
           2175      1.71154e+7 
           2185      2.03932e+7 
           2195      2.15754e+7 
           2205      1.94779e+7 
           2215      1.56428e+7 
           2225       1.6542e+7 
           2235      2.06675e+7 
           2245      1.88506e+7 
           2255      1.57944e+7 
           2265      1.54518e+7 
           2275      1.73799e+7 
           2285      1.95745e+7 
           2295      1.62421e+7 
           2305      1.81536e+7 
           2315       1.7377e+7 
           2325      1.67219e+7 
           2335      1.32147e+7 
           2345      9.71038e+6 
           2355      1.59291e+7 
           2365       1.0473e+7 
           2375      1.30892e+7 
           2385      8.57211e+6 
           2395      1.07068e+7 
           2405      1.06088e+7 
           2415      1.09959e+7 
           2425      1.54327e+7 
           2435      1.42496e+7 
           2445      1.65967e+7 
           2455      1.68993e+7 
           2465      1.65194e+7 
           2475      1.46088e+7 
           2485      1.40998e+7 
           2495      1.33649e+7 
           2505      1.79857e+7 
           2513        1.157e+7 
           2518      1.01022e+7 
           2525      9.33075e+6 
           2535      8.12936e+6 
           2545      7.38159e+6 
           2555      9.84698e+6 
           2565      1.11085e+7 
           2575      1.58996e+7 
           2585      1.68542e+7 
           2595      1.65528e+7 
           2605       1.4665e+7 
           2615      1.35393e+7 
           2625      1.85045e+7 
           2635      2.04479e+7 
           2645      2.57862e+7 
           2655      2.89229e+7 
           2665      2.06791e+7 
           2675      2.42907e+7 
           2685      2.48156e+7 
           2695      2.13106e+7 
           2705      2.40875e+7 
           2715      2.05434e+7 
           2725      2.08602e+7 
           2735      2.27235e+7 
           2745      1.48466e+7 
           2755      1.66594e+7 
           2765      1.85102e+7 
           2775      1.99137e+7 
           2785        1.251e+7 
           2795       4.9319e+6 
           2805      6.43665e+6 
           2815      1.84765e+7 
           2825      2.56071e+7 
           2835      2.52613e+7 
           2845      2.30738e+7 
           2855      1.67487e+7 
           2865      2.61583e+7 
           2875      2.63135e+7 
           2885      2.50297e+7 
           2895       2.4982e+7 
           2910      3.06372e+7 
           2930      2.75803e+7 
           2950      2.80401e+7 
           2970      3.05226e+7 
           2990      2.98751e+7 
           3010      3.09493e+7 
           3030      3.10295e+7 
           3050       3.0943e+7 
           3070      3.12923e+7 
           3090      3.19013e+7 
           3110        3.097e+7 
           3130       3.0945e+7 
           3150      3.14129e+7 
           3170      3.09582e+7 
           3190      2.81993e+7 
           3210      2.99487e+7 
           3230      2.71563e+7 
           3250      2.98416e+7 
           3270      3.15412e+7 
           3290      3.12372e+7 
           3310      3.21496e+7 
           3330      3.12934e+7 
           3350      3.04213e+7 
           3370      2.96984e+7 
           3390      3.04174e+7 
           3410      3.04174e+7 
           3430      3.03602e+7 
           3450      3.05558e+7 
           3470      3.01502e+7 
           3490      3.03531e+7 
           3510      3.10065e+7 
           3530      3.02904e+7 
           3550      3.21442e+7 
           3570      2.94103e+7 
           3590      2.90288e+7 
           3610      2.93819e+7 
           3630      2.93278e+7 
           3640      2.87517e+7 
           3650      3.13571e+7 
           3670      3.08708e+7 
           3690      3.00723e+7 
           3710      2.97051e+7 
           3730      2.73891e+7 
           3750      2.98062e+7 
           3770      3.15688e+7 
           3790      3.70459e+7 
           3810      4.19938e+7 
           3830      3.24084e+7 
           3850      4.53067e+7 
           3870      5.03005e+7 
           3890      3.22727e+7 
           3910      4.88331e+7 
           3930      3.25631e+7 
           3950      4.51906e+7 
           3970      2.67544e+7 
           3990      5.02547e+7 
           4010       5.8545e+7 
           4030      5.89512e+7 
           4050      5.77066e+7 
           4070      5.54056e+7 
           4090      4.55325e+7 
           4110      3.62186e+7 
           4130      5.36661e+7 
           4150      5.84699e+7 
           4170      5.81075e+7 
           4190       5.8082e+7 
           4210       5.8269e+7 
           4230      5.54159e+7 
           4250      5.72441e+7 
           4270      5.37317e+7 
           4290      5.38276e+7 
           4310      4.83747e+7 
           4330      3.98372e+7 
           4350      3.42934e+7 
           4370      5.11508e+7 
           4390      5.23689e+7 
           4410      5.23637e+7 
           4430      5.02987e+7 
           4450      5.19212e+7 
           4470      5.29113e+7 
           4490       5.1516e+7 
           4510      5.46403e+7 
           4530      5.12032e+7 
           4550      5.12654e+7 
           4570      5.33268e+7 
           4590      5.07388e+7 
           4610      5.18648e+7 
           4630      5.02121e+7 
           4650       5.0579e+7 
           4670      5.10174e+7 
           4690       4.8098e+7 
           4710      4.50395e+7 
           4730      4.89281e+7 
           4750       4.8734e+7 
           4770      4.79536e+7 
           4790      4.72519e+7 
           4810      4.55555e+7 
           4830      4.36449e+7 
           4850      3.39309e+7 
           4870      2.73879e+7 
           4890      4.05669e+7 
           4910      4.31156e+7 
           4930      4.30175e+7 
           4950      4.43573e+7 
           4970      4.47666e+7 
           4990      4.23569e+7 
           5010      4.03054e+7 
           5030      4.19927e+7 
           5050      4.13239e+7 
           5070      4.26136e+7 
           5090      4.18591e+7 
           5110      4.21208e+7 
           5130      4.09412e+7 
           5150      3.97659e+7 
           5170      3.82566e+7 
           5190      3.76057e+7 
           5210      3.89608e+7 
           5230      3.88011e+7 
           5250      3.90514e+7 
           5270      3.46712e+7 
           5290      3.82759e+7 
           5310      3.81231e+7 
           5330      3.46005e+7 
           5350      3.69813e+7 
           5370      3.71975e+7 
           5390      3.66977e+7 
           5410      3.48385e+7 
           5430       3.6044e+7 
           5450      3.64915e+7 
           5470      3.58889e+7 
           5490      3.48942e+7 
           5510      3.50298e+7 
           5530      3.48766e+7 
           5550      3.50232e+7 
           5570       3.4284e+7 
           5590      3.36991e+7 
           5610      3.39489e+7 
           5630      3.40849e+7 
           5650      3.35171e+7 
           5670      3.24748e+7 
           5690      3.27729e+7 
           5710      3.24097e+7 
           5730      3.33404e+7 
           5750      3.21119e+7 
           5770      3.23129e+7 
           5790      3.18091e+7 
           5810      3.18382e+7 
           5830      3.17842e+7 
           5850      3.12656e+7 
           5870      3.10321e+7 
           5890      3.01159e+7 
           5910      3.05844e+7 
           5930      3.03045e+7 
           5950      3.00107e+7 
           5970      2.98998e+7 
           5990      2.94558e+7 
           6010      2.88554e+7 
           6030       2.8569e+7 
           6050      2.86768e+7 
           6070      2.88614e+7 
           6090      2.82871e+7 
           6110       2.7853e+7 
           6130       2.7081e+7 
           6150      2.63404e+7 
           6170      2.61798e+7 
           6190      2.72783e+7 
           6210      2.70267e+7 
           6230      2.65166e+7 
           6250      2.55091e+7 
           6270      2.65244e+7 
           6290      2.63721e+7 
           6310      2.56035e+7 
           6330      2.54241e+7 
           6350      2.46653e+7 
           6370      2.47316e+7 
           6390      2.50845e+7 
           6410      2.43735e+7 
           6430      2.45601e+7 
           6450      2.36338e+7 
           6470       2.3829e+7 
           6490      2.33917e+7 
           6510      2.31682e+7 
           6530       2.2052e+7 
           6550      1.89126e+7 
           6570      1.52516e+7 
           6590       2.0731e+7 
           6610      2.21923e+7 
           6630      2.24665e+7 
           6650      2.25088e+7 
           6670      2.22986e+7 
           6690      2.23364e+7 
           6710      2.21281e+7 
           6730      2.19577e+7 
           6750      2.13036e+7 
           6770        2.169e+7 
           6790      2.14709e+7 
           6810      2.12791e+7 
           6830      2.11644e+7 
           6850      2.08916e+7 
           6870      2.09091e+7 
           6890      2.07117e+7 
           6910      2.05438e+7 
           6930      2.03579e+7 
           6950       2.0255e+7 
           6970      2.00311e+7 
           6990      2.00022e+7 
           7010      1.90871e+7 
           7030      1.95664e+7 
           7050      1.94745e+7 
           7070      1.93042e+7 
           7090      1.92052e+7 
           7110      1.85853e+7 
           7130      1.87376e+7 
           7150      1.85769e+7 
           7170      1.82983e+7 
           7190      1.80895e+7 
           7210      1.82168e+7 
           7230      1.79807e+7 
           7250      1.77053e+7 
           7270      1.78981e+7 
           7290      1.74456e+7 
           7310      1.76358e+7 
           7330      1.74724e+7 
           7350      1.74534e+7 
           7370       1.7302e+7 
           7390      1.69553e+7 
           7410      1.67047e+7 
           7430      1.64989e+7 
           7450      1.64735e+7 
           7470      1.64435e+7 
           7490      1.63914e+7 
           7510      1.64011e+7 
           7530      1.62994e+7 
           7550      1.62258e+7 
           7570       1.6006e+7 
           7590      1.59774e+7 
           7610      1.57686e+7 
           7630      1.57993e+7 
           7650      1.55475e+7 
           7670      1.52187e+7 
           7690      1.50867e+7 
           7710      1.52671e+7 
           7730      1.51378e+7 
           7750      1.49249e+7 
           7770      1.44463e+7 
           7790      1.49546e+7 
           7810      1.46718e+7 
           7830      1.45447e+7 
           7850      1.43606e+7 
           7870      1.43224e+7 
           7890      1.41113e+7 
           7910      1.40183e+7 
           7930      1.35835e+7 
           7950      1.36625e+7 
           7970      1.39469e+7 
           7990       1.3631e+7 
           8010      1.37228e+7 
           8030      1.35084e+7 
           8050      1.34309e+7 
           8070      1.33968e+7 
           8090      1.32944e+7 
           8110      1.32455e+7 
           8130      1.32625e+7 
           8150      1.31414e+7 
           8170      1.30472e+7 
           8190      1.26303e+7 
           8210       1.2414e+7 
           8230      1.24322e+7 
           8250      1.24173e+7 
           8270      1.26515e+7 
           8290      1.25204e+7 
           8310       1.2243e+7 
           8330       1.2174e+7 
           8350      1.21411e+7 
           8370      1.22434e+7 
           8390      1.20861e+7 
           8410      1.20687e+7 
           8430      1.18715e+7 
           8450      1.15168e+7 
           8470      1.17213e+7 
           8490      1.14696e+7 
           8510      1.09585e+7 
           8530      1.12293e+7 
           8550      9.59313e+6 
           8570       1.1394e+7 
           8590      1.10459e+7 
           8610      1.09448e+7 
           8630      1.11703e+7 
           8650      1.08056e+7 
           8670      9.07682e+6 
           8690      1.04778e+7 
           8710       1.0972e+7 
           8730       1.0562e+7 
           8750      9.43712e+6 
           8770      1.03801e+7 
           8790      1.08186e+7 
           8810      1.07758e+7 
           8830      1.04507e+7 
           8850      9.62909e+6 
           8870      8.66636e+6 
           8890      1.00493e+7 
           8910      1.04375e+7 
           8930      1.03908e+7 
           8950      1.06008e+7 
           8970      1.03049e+7 
           8990      9.84427e+6 
           9010      8.19263e+6 
           9030      8.77686e+6 
           9050       9.8586e+6 
           9070       9.8715e+6 
           9090      9.72689e+6 
           9110      9.98791e+6 
           9130       1.0125e+7 
           9150      1.01019e+7 
           9170      9.90109e+6 
           9190      9.58416e+6 
           9210       8.7578e+6 
           9230      7.12927e+6 
           9250      8.36169e+6 
           9270      8.95343e+6 
           9290        9.547e+6 
           9310      9.62511e+6 
           9330      9.56009e+6 
           9350      9.59077e+6 
           9370      9.58034e+6 
