# Kurucz ODFNEW /NOVER (2003)
# teff = 33000 K (value for the effective temperature for the model. Temperatures are given in K)
# logg = 4.5 log(cm/s2) (value for Log(G) for the model.)
# meta = -0.5  (value for the Metallicity for the model.)
# lh = 1.25  (l/Hp where l is the  mixing length of the convective element and Hp is the pressure scale height)
# vtur = 2 km/s (Microturbulence velocity)
# alpha = 0  (Alpha)
#
# column 1: WAVELENGTH (ANGSTROM), Wavelength in Angstrom
# column 2: FLUX (ERG/CM2/S/A), Flux in erg/cm2/s/A
          147.2      5.34376e-6 
            151      1.42399e-5 
          155.2       3.9875e-5 
          158.8      9.25411e-5 
            162     0.000190016 
            166     0.000450186 
          170.3      0.00108824 
          173.4      0.00200596 
          176.8      0.00383235 
          180.2      0.00714836 
          181.7      0.00935385 
          186.1       0.0200693 
            191       0.0451619 
          193.9        0.071639 
          198.4        0.142958 
          201.8        0.236168 
            205        0.373323 
          210.5        0.795514 
          216.2         1.67343 
          219.8         2.63076 
            223         3.88305 
          226.8         6.07292 
            230         4843.43 
            234         13486.5 
            240           21609 
          246.5         36210.2 
          252.4         57740.8 
          256.8         71151.4 
            260          120386 
            264          181149 
          268.5          259490 
          273.5          348711 
          278.5          434858 
            284          806977 
            290       1.1228e+6 
            296      1.44425e+6 
            301      1.90055e+6 
            308      3.43835e+6 
            318      7.45606e+6 
            328      1.03774e+7 
            338      1.68437e+7 
            348      2.45653e+7 
            357      3.84418e+7 
            366      5.92559e+7 
            375      7.12873e+7 
            385      9.55923e+7 
            395      1.29084e+8 
            405      1.57591e+8 
            414      1.93222e+8 
            422      2.16792e+8 
            430      2.49224e+8 
            441      3.06256e+8 
            451      3.56576e+8 
            460      3.94783e+8 
            470      4.62581e+8 
            480      5.35956e+8 
            490      5.98688e+8 
            500      7.02826e+8 
            506       1.8591e+9 
            512      9.03697e+9 
            520      8.48463e+9 
            530      7.92044e+9 
            540      7.19623e+9 
            550      8.28705e+9 
            560      9.59867e+9 
            570      9.94141e+9 
            580      9.15853e+9 
            590      9.72061e+9 
            600      8.81202e+9 
            610      9.72845e+9 
            620     1.08442e+10 
            630     1.06583e+10 
            640     1.05504e+10 
            650     1.07464e+10 
            658     1.00124e+10 
            665     1.07356e+10 
            675     1.11706e+10 
            685      9.94121e+9 
            695     1.15478e+10 
            705     1.05092e+10 
            716     1.20414e+10 
            726     1.18578e+10 
            735     1.19792e+10 
            745     1.18899e+10 
            755     1.18473e+10 
            765     1.19651e+10 
            775     1.21294e+10 
            785     1.24673e+10 
            795     1.24203e+10 
            805      1.2213e+10 
            815     1.22305e+10 
            825     1.25784e+10 
            835     1.13188e+10 
            845     1.23372e+10 
            855     1.23188e+10 
            865     1.25638e+10 
            875     1.26306e+10 
            885     1.27469e+10 
            895     1.28319e+10 
            905     1.25927e+10 
            915     1.31784e+10 
            925     3.87299e+10 
            935     6.19978e+10 
            945     9.07163e+10 
            955     1.00066e+11 
            965     1.17401e+11 
            975     5.82199e+10 
            985     1.04609e+11 
            995     9.47393e+10 
           1005     9.82046e+10 
           1015      9.8901e+10 
           1025      6.9779e+10 
           1035     9.42329e+10 
           1045      1.0396e+11 
           1055     1.00259e+11 
           1065     8.99653e+10 
           1075     9.16538e+10 
           1085     8.40423e+10 
           1095     8.93135e+10 
           1105     8.53779e+10 
           1115     8.37533e+10 
           1125     7.37549e+10 
           1135     8.02808e+10 
           1145     7.61864e+10 
           1155      7.4164e+10 
           1165     7.20719e+10 
           1175     5.42572e+10 
           1185     6.61478e+10 
           1195     6.44676e+10 
           1205     6.10462e+10 
           1215      4.3723e+10 
           1225     5.88457e+10 
           1235     6.17893e+10 
           1245     5.97483e+10 
           1255      5.9264e+10 
           1265     5.95996e+10 
           1275     5.94077e+10 
           1285     5.87171e+10 
           1295     5.48485e+10 
           1305     5.46416e+10 
           1315      5.5757e+10 
           1325     5.36267e+10 
           1335     5.20442e+10 
           1345     5.18001e+10 
           1355     5.06136e+10 
           1365     4.89062e+10 
           1375     4.78906e+10 
           1385     4.66065e+10 
           1395     4.06673e+10 
           1405     4.06973e+10 
           1415     4.35711e+10 
           1425       4.019e+10 
           1435     4.14851e+10 
           1442     4.13351e+10 
           1447     4.08251e+10 
           1455     3.94058e+10 
           1465     3.86432e+10 
           1475     3.80621e+10 
           1485     3.78519e+10 
           1495     3.66578e+10 
           1505     3.57731e+10 
           1512     3.50785e+10 
           1517     3.49147e+10 
           1525     3.40213e+10 
           1535     3.07638e+10 
           1545      2.8211e+10 
           1555     2.78057e+10 
           1565     2.91481e+10 
           1575      2.9865e+10 
           1585     2.98387e+10 
           1595     2.94198e+10 
           1605      2.7744e+10 
           1615     2.67241e+10 
           1625     2.69526e+10 
           1635      2.6848e+10 
           1645     2.60729e+10 
           1655     2.66913e+10 
           1665     2.61664e+10 
           1672     2.48064e+10 
           1677     2.69761e+10 
           1685     2.60359e+10 
           1695     2.53258e+10 
           1705     2.47626e+10 
           1715     2.39636e+10 
           1725     2.32282e+10 
           1735     2.37284e+10 
           1745     2.33187e+10 
           1755     2.28335e+10 
           1765     2.24655e+10 
           1775     2.19823e+10 
           1785     2.19164e+10 
           1795     2.14507e+10 
           1805     2.13062e+10 
           1815     2.07256e+10 
           1825     2.04018e+10 
           1835     2.02651e+10 
           1845     1.93166e+10 
           1855     1.91549e+10 
           1865     1.90551e+10 
           1875     1.87549e+10 
           1885     1.79638e+10 
           1895     1.75512e+10 
           1905     1.77982e+10 
           1915     1.72697e+10 
           1925     1.64849e+10 
           1935     1.69387e+10 
           1945     1.69622e+10 
           1955     1.59059e+10 
           1967     1.62071e+10 
           1976     1.63251e+10 
           1984     1.57994e+10 
           1995      1.5337e+10 
           2005     1.54646e+10 
           2015     1.53523e+10 
           2025     1.52074e+10 
           2035     1.47436e+10 
           2045     1.45205e+10 
           2055     1.22483e+10 
           2065     1.18437e+10 
           2074     1.20801e+10 
           2078     1.19682e+10 
           2085     1.23551e+10 
           2095     1.28846e+10 
           2105     1.32581e+10 
           2115     1.32442e+10 
           2125     1.30148e+10 
           2135     1.28535e+10 
           2145     1.26266e+10 
           2155     1.25649e+10 
           2165     1.21589e+10 
           2175     1.22369e+10 
           2185      1.1879e+10 
           2195     1.19391e+10 
           2205     1.17613e+10 
           2215      1.1372e+10 
           2225     1.14001e+10 
           2235     1.12214e+10 
           2245     1.10596e+10 
           2255     1.07077e+10 
           2265     1.07521e+10 
           2275     1.06061e+10 
           2285     1.03988e+10 
           2295      9.81051e+9 
           2305      9.94467e+9 
           2315      9.95384e+9 
           2325      9.83844e+9 
           2335      9.68663e+9 
           2345      9.56651e+9 
           2355      9.41955e+9 
           2365       9.2855e+9 
           2375      9.13267e+9 
           2385       8.8218e+9 
           2395      8.82972e+9 
           2405      8.76035e+9 
           2415      8.63499e+9 
           2425      8.53189e+9 
           2435      8.39143e+9 
           2445      8.28826e+9 
           2455      8.17275e+9 
           2465      8.06875e+9 
           2475       7.9551e+9 
           2485      7.82165e+9 
           2495      6.86825e+9 
           2505      7.56698e+9 
           2513      7.21762e+9 
           2518      7.36664e+9 
           2525      7.42926e+9 
           2535      7.34145e+9 
           2545      7.20477e+9 
           2555      7.11905e+9 
           2565      7.04132e+9 
           2575       6.9498e+9 
           2585      6.86287e+9 
           2595      6.76421e+9 
           2605       6.7046e+9 
           2615      6.60439e+9 
           2625      6.52957e+9 
           2635      6.44483e+9 
           2645      6.35311e+9 
           2655      6.27221e+9 
           2665      6.16476e+9 
           2675      6.06768e+9 
           2685       6.0372e+9 
           2695      5.91312e+9 
           2705      5.86536e+9 
           2715      5.78902e+9 
           2725      5.70247e+9 
           2735      5.57825e+9 
           2745      5.58818e+9 
           2755      5.52187e+9 
           2765      5.42041e+9 
           2775      5.39462e+9 
           2785      5.32049e+9 
           2795      5.19086e+9 
           2805      5.17211e+9 
           2815      5.13258e+9 
           2825      5.03872e+9 
           2835      4.96526e+9 
           2845      4.94904e+9 
           2855      4.88208e+9 
           2865       4.8196e+9 
           2875      4.76471e+9 
           2885      4.70865e+9 
           2895      4.65145e+9 
           2910      4.56047e+9 
           2930       4.4642e+9 
           2950      4.33244e+9 
           2970      4.25251e+9 
           2990      4.14351e+9 
           3010      4.04352e+9 
           3030      3.95043e+9 
           3050      3.86931e+9 
           3070      3.79152e+9 
           3090      3.68459e+9 
           3110      3.62096e+9 
           3130      3.53669e+9 
           3150      3.45839e+9 
           3170      3.38149e+9 
           3190      3.29528e+9 
           3210      3.22166e+9 
           3230      3.16791e+9 
           3250      3.10464e+9 
           3270      3.03081e+9 
           3290      2.96974e+9 
           3310      2.90938e+9 
           3330      2.84379e+9 
           3350      2.78056e+9 
           3370      2.72666e+9 
           3390      2.67639e+9 
           3410      2.62092e+9 
           3430      2.56223e+9 
           3450      2.50169e+9 
           3470      2.45647e+9 
           3490      2.40666e+9 
           3510      2.36111e+9 
           3530      2.31847e+9 
           3550      2.27093e+9 
           3570      2.23465e+9 
           3590      2.17764e+9 
           3610      2.14002e+9 
           3630      2.09423e+9 
           3640      2.07932e+9 
           3650      2.00735e+9 
           3670      1.97574e+9 
           3690      1.93833e+9 
           3710      1.88051e+9 
           3730      1.83078e+9 
           3750      1.82188e+9 
           3770      1.78257e+9 
           3790      1.82727e+9 
           3810      1.86827e+9 
           3830      1.68632e+9 
           3850      1.86874e+9 
           3870      1.85549e+9 
           3890      1.58682e+9 
           3910      1.81981e+9 
           3930      1.78224e+9 
           3950      1.74596e+9 
           3970      1.46682e+9 
           3990      1.68583e+9 
           4010      1.66463e+9 
           4030      1.59046e+9 
           4050       1.6185e+9 
           4070      1.56849e+9 
           4090      1.47315e+9 
           4110       1.3365e+9 
           4130      1.48418e+9 
           4150      1.46656e+9 
           4170      1.45274e+9 
           4190       1.4256e+9 
           4210      1.39972e+9 
           4230       1.3818e+9 
           4250      1.35253e+9 
           4270      1.32299e+9 
           4290      1.30416e+9 
           4310      1.27387e+9 
           4330      1.18573e+9 
           4350      1.10129e+9 
           4370      1.21114e+9 
           4390      1.17854e+9 
           4410      1.17601e+9 
           4430      1.16075e+9 
           4450      1.14241e+9 
           4470      1.09132e+9 
           4490      1.10475e+9 
           4510      1.08679e+9 
           4530      1.07049e+9 
           4550      1.04696e+9 
           4570      1.03625e+9 
           4590      1.01774e+9 
           4610      1.00101e+9 
           4630      9.82239e+8 
           4650      9.48266e+8 
           4670      9.52149e+8 
           4690      9.27792e+8 
           4710      9.13935e+8 
           4730      9.12587e+8 
           4750      8.97622e+8 
           4770       8.8569e+8 
           4790      8.71791e+8 
           4810      8.57277e+8 
           4830      8.39793e+8 
           4850      7.91864e+8 
           4870       7.2352e+8 
           4890      8.01051e+8 
           4910      7.92366e+8 
           4930      7.67939e+8 
           4950      7.68757e+8 
           4970      7.59563e+8 
           4990      7.48115e+8 
           5010       7.2797e+8 
           5030       7.2535e+8 
           5050      7.12185e+8 
           5070      7.04877e+8 
           5090      6.94347e+8 
           5110      6.84089e+8 
           5130      6.73741e+8 
           5150      6.64015e+8 
           5170      6.54575e+8 
           5190      6.45428e+8 
           5210      6.36291e+8 
           5230      6.27164e+8 
           5250      6.17857e+8 
           5270      6.09039e+8 
           5290      6.00848e+8 
           5310      5.92335e+8 
           5330      5.84053e+8 
           5350      5.75864e+8 
           5370      5.67885e+8 
           5390      5.59879e+8 
           5410      5.49131e+8 
           5430      5.44621e+8 
           5450      5.37067e+8 
           5470      5.29697e+8 
           5490       5.2247e+8 
           5510      5.15395e+8 
           5530      5.08348e+8 
           5550      5.01572e+8 
           5570      4.94771e+8 
           5590      4.87861e+8 
           5610      4.81636e+8 
           5630      4.75225e+8 
           5650       4.6881e+8 
           5670      4.62286e+8 
           5690      4.53677e+8 
           5710      4.45767e+8 
           5730      4.40125e+8 
           5750      4.34106e+8 
           5770      4.28952e+8 
           5790      4.23375e+8 
           5810      4.17865e+8 
           5830      4.12299e+8 
           5850       4.0758e+8 
           5870      3.93437e+8 
           5890      3.96905e+8 
           5910      3.92939e+8 
           5930       3.8829e+8 
           5950      3.83747e+8 
           5970      3.79595e+8 
           5990      3.75185e+8 
           6010      3.71096e+8 
           6030      3.66401e+8 
           6050      3.61924e+8 
           6070      3.57549e+8 
           6090      3.53112e+8 
           6110      3.48745e+8 
           6130      3.44468e+8 
           6150       3.4001e+8 
           6170        3.359e+8 
           6190      3.31953e+8 
           6210      3.27933e+8 
           6230      3.23967e+8 
           6250      3.19978e+8 
           6270      3.16167e+8 
           6290      3.12388e+8 
           6310      3.08585e+8 
           6330      3.04965e+8 
           6350      3.01271e+8 
           6370      2.97749e+8 
           6390      2.94208e+8 
           6410      2.90725e+8 
           6430      2.87334e+8 
           6450      2.83934e+8 
           6470      2.80435e+8 
           6490      2.77225e+8 
           6510      2.74022e+8 
           6530      2.69757e+8 
           6550      2.60727e+8 
           6570      2.36363e+8 
           6590      2.59506e+8 
           6610      2.58447e+8 
           6630      2.55699e+8 
           6650      2.52808e+8 
           6670      2.47814e+8 
           6690      2.44912e+8 
           6710      2.44216e+8 
           6730      2.41394e+8 
           6750      2.38825e+8 
           6770      2.36224e+8 
           6790      2.33339e+8 
           6810      2.30963e+8 
           6830      2.28377e+8 
           6850      2.25881e+8 
           6870      2.23371e+8 
           6890      2.20655e+8 
           6910      2.18338e+8 
           6930      2.16115e+8 
           6950       2.1375e+8 
           6970      2.11416e+8 
           6990      2.09121e+8 
           7010      2.06825e+8 
           7030      2.04499e+8 
           7050       2.0237e+8 
           7070      1.97722e+8 
           7090      1.98077e+8 
           7110      1.95928e+8 
           7130      1.93853e+8 
           7150      1.91804e+8 
           7170      1.89622e+8 
           7190      1.87708e+8 
           7210      1.85777e+8 
           7230      1.83165e+8 
           7250      1.81805e+8 
           7270      1.79986e+8 
           7290      1.76973e+8 
           7310      1.76231e+8 
           7330      1.74408e+8 
           7350      1.72603e+8 
           7370      1.70821e+8 
           7390      1.69063e+8 
           7410      1.67321e+8 
           7430      1.65603e+8 
           7450      1.63914e+8 
           7470      1.62133e+8 
           7490      1.60509e+8 
           7510      1.58927e+8 
           7530       1.5734e+8 
           7550      1.55761e+8 
           7570      1.54189e+8 
           7590      1.52436e+8 
           7610      1.51038e+8 
           7630      1.49587e+8 
           7650      1.48098e+8 
           7670      1.46635e+8 
           7690      1.45134e+8 
           7710      1.43716e+8 
           7730      1.42249e+8 
           7750      1.40913e+8 
           7770      1.39521e+8 
           7790       1.3816e+8 
           7810      1.36762e+8 
           7830      1.35474e+8 
           7850       1.3424e+8 
           7870      1.32872e+8 
           7890      1.31545e+8 
           7910      1.30363e+8 
           7930      1.29089e+8 
           7950      1.27874e+8 
           7970      1.26581e+8 
           7990      1.25423e+8 
           8010       1.2421e+8 
           8030      1.23002e+8 
           8050      1.21834e+8 
           8070      1.20681e+8 
           8090      1.19423e+8 
           8110       1.1817e+8 
           8130      1.17293e+8 
           8150      1.16083e+8 
           8170      1.15103e+8 
           8190        1.138e+8 
           8210      1.12257e+8 
           8230      1.11184e+8 
           8250      1.10369e+8 
           8270      1.08982e+8 
           8290      1.08336e+8 
           8310       1.0739e+8 
           8330      1.06337e+8 
           8350       1.0504e+8 
           8370      1.04323e+8 
           8390      1.03489e+8 
           8410      1.02545e+8 
           8430      1.01582e+8 
           8450       1.0022e+8 
           8470      9.97527e+7 
           8490      9.87136e+7 
           8510      9.77664e+7 
           8530       9.6915e+7 
           8550      9.57973e+7 
           8570      9.56585e+7 
