# Kurucz ODFNEW /NOVER (2003)
# teff = 9000 K (value for the effective temperature for the model. Temperatures are given in K)
# logg = 4 log(cm/s2) (value for Log(G) for the model.)
# meta = -2  (value for the Metallicity for the model.)
# lh = 1.25  (l/Hp where l is the  mixing length of the convective element and Hp is the pressure scale height)
# vtur = 2 km/s (Microturbulence velocity)
# alpha = 0  (Alpha)
#
# column 1: WAVELENGTH (ANGSTROM), Wavelength in Angstrom
# column 2: FLUX (ERG/CM2/S/A), Flux in erg/cm2/s/A
          268.5     4.10094e-23 
          273.5     2.11385e-22 
          278.5     8.97596e-22 
            284     4.08015e-21 
            290     1.98547e-20 
            296     9.03857e-20 
            301     3.05068e-19 
            308     1.56468e-18 
            318     1.42289e-17 
            328     1.12741e-16 
            338     7.86936e-16 
            348     4.89732e-15 
            357     2.31857e-14 
            366     1.01469e-13 
            375     4.12534e-13 
            385     1.81087e-12 
            395     7.35084e-12 
            405     2.77727e-11 
            414     8.67597e-11 
            422      2.2885e-10 
            430     5.81394e-10 
            441      1.97778e-9 
            451      5.70259e-9 
            460      1.41907e-8 
            470      3.74376e-8 
            480      9.46565e-8 
            490      2.29992e-7 
            500      5.38226e-7 
            506      9.35938e-7 
            512      1.55668e-6 
            520      2.89722e-6 
            530      6.13724e-6 
            540      1.25693e-5 
            550      2.51232e-5 
            560      4.88379e-5 
            570      9.26193e-5 
            580     0.000171163 
            590      0.00031081 
            600     0.000551333 
            610     0.000958519 
            620      0.00163501 
            630      0.00273867 
            640       0.0045087 
            650      0.00730151 
            658       0.0106163 
            665       0.0146126 
            675       0.0227861 
            685       0.0350351 
            695       0.0531512 
            705       0.0796095 
            716         0.12242 
            726        0.178824 
            735        0.249082 
            745        0.356289 
            755        0.504452 
            765        0.707271 
            775        0.982178 
            785         1.35151 
            795         1.84346 
            805         2.49318 
            815          3.3445 
            825         4.45156 
            835         5.88038 
            845          7.7116 
            855         10.0446 
            865         12.9953 
            875         16.7018 
            885         21.3322 
            895         27.0813 
            905         34.1783 
            915         75.9691 
            925         335.868 
            935         589.469 
            945         1128.17 
            955         1792.97 
            965         2437.19 
            975         1691.59 
            985         4608.62 
            995            6276 
           1005          6977.9 
           1015         5546.95 
           1025         3099.82 
           1035         7323.76 
           1045         12694.3 
           1055         19821.7 
           1065         61108.4 
           1075          176067 
           1085          347056 
           1095          406130 
           1105      1.41093e+6 
           1115      5.56022e+6 
           1125      5.53653e+6 
           1135      5.61691e+6 
           1145      3.43993e+6 
           1155      1.48627e+6 
           1165          399067 
           1175         91547.5 
           1185           86768 
           1195         38550.8 
           1205         27296.8 
           1215         11127.6 
           1225         30186.1 
           1235         56387.5 
           1245         72532.6 
           1255          126610 
           1265          331875 
           1275      1.36414e+6 
           1285      5.39168e+6 
           1295      9.11416e+6 
           1305      1.31258e+7 
           1315      1.79478e+7 
           1325      2.35141e+7 
           1335      2.75747e+7 
           1345      3.29139e+7 
           1355       3.3503e+7 
           1365      3.57011e+7 
           1375      3.36952e+7 
           1385      2.94867e+7 
           1395      2.74374e+7 
           1405      3.91687e+7 
           1415       5.3041e+7 
           1425      5.64883e+7 
           1435      5.44122e+7 
           1442      6.04292e+7 
           1447      5.91973e+7 
           1455       6.2221e+7 
           1465       5.9147e+7 
           1475      6.06992e+7 
           1485      6.09009e+7 
           1495      6.20863e+7 
           1505      6.35144e+7 
           1512      6.30051e+7 
           1517      6.19438e+7 
           1525      6.18351e+7 
           1535      6.04676e+7 
           1545      6.00267e+7 
           1555      5.65852e+7 
           1565       4.9661e+7 
           1575      5.25982e+7 
           1585      5.25574e+7 
           1595      5.32244e+7 
           1605      5.08814e+7 
           1615      5.52523e+7 
           1625      5.61779e+7 
           1635      6.10143e+7 
           1645      6.55024e+7 
           1655      5.97631e+7 
           1665      6.77392e+7 
           1672      6.28016e+7 
           1677      6.53278e+7 
           1685      6.82743e+7 
           1695      6.54596e+7 
           1705      6.51826e+7 
           1715      6.72259e+7 
           1725      6.60689e+7 
           1735      6.77649e+7 
           1745      6.61616e+7 
           1755       6.7593e+7 
           1765      6.39668e+7 
           1775      6.65017e+7 
           1785      6.54902e+7 
           1795      6.70625e+7 
           1805      6.55837e+7 
           1815      6.49637e+7 
           1825      6.36338e+7 
           1835      6.38719e+7 
           1845      6.15922e+7 
           1855      6.28064e+7 
           1865      6.29968e+7 
           1875      6.31528e+7 
           1885      6.29543e+7 
           1895      6.26535e+7 
           1905      6.14556e+7 
           1915      6.15828e+7 
           1925      6.19572e+7 
           1935      6.04965e+7 
           1945      6.20021e+7 
           1955      6.15863e+7 
           1967       6.1473e+7 
           1976      6.02312e+7 
           1984      5.99101e+7 
           1995      5.98173e+7 
           2005      5.86335e+7 
           2015      5.74852e+7 
           2025      5.72597e+7 
           2035      5.82593e+7 
           2045      5.80612e+7 
           2055      5.65376e+7 
           2065      5.65223e+7 
           2074      5.76181e+7 
           2078      5.76416e+7 
           2085      5.73809e+7 
           2095      5.66962e+7 
           2105      5.64751e+7 
           2115      5.61689e+7 
           2125      5.58475e+7 
           2135       5.4147e+7 
           2145      5.56093e+7 
           2155       5.5014e+7 
           2165      5.35763e+7 
           2175      5.35514e+7 
           2185      5.36116e+7 
           2195      5.47787e+7 
           2205      5.33896e+7 
           2215      5.14389e+7 
           2225       5.1543e+7 
           2235      5.35301e+7 
           2245      5.21282e+7 
           2255      5.07964e+7 
           2265      5.02387e+7 
           2275      5.17349e+7 
           2285      5.19815e+7 
           2295      5.07205e+7 
           2305      5.09047e+7 
           2315      5.03808e+7 
           2325      5.04473e+7 
           2335      4.97722e+7 
           2345      4.73194e+7 
           2355      4.94345e+7 
           2365      4.74439e+7 
           2375      4.86274e+7 
           2385      4.58356e+7 
           2395       4.7994e+7 
           2405      4.73763e+7 
           2415      4.75228e+7 
           2425      4.83501e+7 
           2435      4.71831e+7 
           2445      4.78516e+7 
           2455      4.76639e+7 
           2465      4.66455e+7 
           2475      4.60596e+7 
           2485      4.67933e+7 
           2495      4.59729e+7 
           2505      4.73915e+7 
           2513      4.61149e+7 
           2518      4.59985e+7 
           2525      4.47014e+7 
           2535      4.45165e+7 
           2545      4.45914e+7 
           2555      4.60384e+7 
           2565      4.56492e+7 
           2575      4.64731e+7 
           2585      4.66386e+7 
           2595      4.62479e+7 
           2605      4.55277e+7 
           2615      4.52424e+7 
           2625      4.53188e+7 
           2635      4.55463e+7 
           2645       4.7329e+7 
           2655      4.70341e+7 
           2665      4.59148e+7 
           2675      4.63197e+7 
           2685      4.65862e+7 
           2695      4.59325e+7 
           2705      4.58891e+7 
           2715      4.50242e+7 
           2725      4.49891e+7 
           2735      4.55668e+7 
           2745      4.33745e+7 
           2755      4.34851e+7 
           2765      4.43094e+7 
           2775      4.52303e+7 
           2785      4.49187e+7 
           2795      4.19629e+7 
           2805      4.35823e+7 
           2815      4.53013e+7 
           2825      4.50378e+7 
           2835      4.43775e+7 
           2845      4.40452e+7 
           2855      4.33665e+7 
           2865      4.37482e+7 
           2875      4.36777e+7 
           2885      4.39095e+7 
           2895       4.4094e+7 
           2910      4.44053e+7 
           2930      4.36024e+7 
           2950      4.33547e+7 
           2970      4.33365e+7 
           2990      4.31211e+7 
           3010      4.32402e+7 
           3030      4.30857e+7 
           3050      4.28465e+7 
           3070      4.25139e+7 
           3090      4.24743e+7 
           3110      4.22297e+7 
           3130       4.1911e+7 
           3150      4.17639e+7 
           3170      4.16472e+7 
           3190      4.10267e+7 
           3210      4.11166e+7 
           3230      4.07499e+7 
           3250      4.07813e+7 
           3270       4.0749e+7 
           3290      4.06031e+7 
           3310      4.04475e+7 
           3330      4.01296e+7 
           3350      3.97458e+7 
           3370      3.96138e+7 
           3390      3.94527e+7 
           3410      3.94351e+7 
           3430      3.92295e+7 
           3450      3.90609e+7 
           3470      3.88559e+7 
           3490      3.86871e+7 
           3510      3.85441e+7 
           3530      3.83807e+7 
           3550      3.82006e+7 
           3570       3.7957e+7 
           3590      3.77837e+7 
           3610      3.76004e+7 
           3630      3.74274e+7 
           3640        3.733e+7 
           3650      3.74594e+7 
           3670      3.73152e+7 
           3690      3.59628e+7 
           3710      3.72156e+7 
           3730      3.85018e+7 
           3750      4.88188e+7 
           3770      5.19945e+7 
           3790      6.35851e+7 
           3810      7.57243e+7 
           3830      6.02735e+7 
           3850      8.54767e+7 
           3870      9.85736e+7 
           3890      5.16817e+7 
           3910      9.87257e+7 
           3930      1.09119e+8 
           3950      9.80668e+7 
           3970      4.99138e+7 
           3990       9.2362e+7 
           4010      1.08086e+8 
           4030      1.09092e+8 
           4050      1.07292e+8 
           4070      1.01011e+8 
           4090      7.28614e+7 
           4110      5.48453e+7 
           4130      9.41111e+7 
           4150      1.00368e+8 
           4170       1.0069e+8 
           4190      9.98834e+7 
           4210      9.87326e+7 
           4230      9.73211e+7 
           4250      9.60172e+7 
           4270      9.43161e+7 
           4290      9.19138e+7 
           4310      8.57128e+7 
           4330      6.01637e+7 
           4350      5.08756e+7 
           4370      8.10928e+7 
           4390      8.59287e+7 
           4410      8.63366e+7 
           4430       8.5816e+7 
           4450       8.4995e+7 
           4470      8.39835e+7 
           4490      8.29081e+7 
           4510      8.21725e+7 
           4530       8.1164e+7 
           4550      8.00754e+7 
           4570      7.92461e+7 
           4590      7.82584e+7 
           4610      7.73965e+7 
           4630      7.64165e+7 
           4650      7.55532e+7 
           4670      7.46553e+7 
           4690      7.37168e+7 
           4710      7.25673e+7 
           4730      7.18404e+7 
           4750      7.09028e+7 
           4770      6.98839e+7 
           4790      6.86711e+7 
           4810      6.68474e+7 
           4830       6.2571e+7 
           4850        4.691e+7 
           4870      3.79606e+7 
           4890      5.85037e+7 
           4910      6.26848e+7 
           4930      6.31507e+7 
           4950       6.2952e+7 
           4970      6.24509e+7 
           4990      6.18378e+7 
           5010        6.118e+7 
           5030      6.06245e+7 
           5050      5.99399e+7 
           5070      5.93082e+7 
           5090       5.8654e+7 
           5110      5.80096e+7 
           5130      5.73707e+7 
           5150      5.67385e+7 
           5170      5.59423e+7 
           5190      5.54309e+7 
           5210      5.49076e+7 
           5230       5.4286e+7 
           5250      5.37406e+7 
           5270      5.31232e+7 
           5290       5.2593e+7 
           5310      5.20159e+7 
           5330      5.14645e+7 
           5350       5.0937e+7 
           5370      5.03897e+7 
           5390      4.98647e+7 
           5410       4.9332e+7 
           5430      4.88236e+7 
           5450      4.83162e+7 
           5470      4.78163e+7 
           5490      4.73235e+7 
           5510      4.68366e+7 
           5530      4.63469e+7 
           5550      4.58778e+7 
           5570      4.54044e+7 
           5590      4.49402e+7 
           5610      4.44839e+7 
           5630      4.40353e+7 
           5650      4.35884e+7 
           5670       4.3149e+7 
           5690      4.27147e+7 
           5710      4.22866e+7 
           5730      4.18634e+7 
           5750      4.14462e+7 
           5770      4.10338e+7 
           5790      4.06272e+7 
           5810      4.02252e+7 
           5830      3.98278e+7 
           5850      3.94359e+7 
           5870      3.90332e+7 
           5890       3.8636e+7 
           5910      3.82909e+7 
           5930      3.79184e+7 
           5950        3.755e+7 
           5970      3.71868e+7 
           5990      3.68266e+7 
           6010      3.64734e+7 
           6030      3.61241e+7 
           6050      3.57786e+7 
           6070      3.54379e+7 
           6090      3.51009e+7 
           6110      3.47676e+7 
           6130      3.44378e+7 
           6150      3.41066e+7 
           6170      3.37918e+7 
           6190      3.34765e+7 
           6210      3.31635e+7 
           6230      3.28539e+7 
           6250      3.25436e+7 
           6270      3.22463e+7 
           6290      3.19482e+7 
           6310      3.16514e+7 
           6330      3.13605e+7 
           6350      3.10624e+7 
           6370      3.07813e+7 
           6390       3.0504e+7 
           6410      3.02085e+7 
           6430      2.98787e+7 
           6450      2.95679e+7 
           6470       2.9244e+7 
           6490      2.88566e+7 
           6510      2.83044e+7 
           6530      2.71471e+7 
           6550      2.31653e+7 
           6570      1.87183e+7 
           6590      2.54267e+7 
           6610      2.68164e+7 
           6630      2.70217e+7 
           6650      2.69437e+7 
           6670      2.67773e+7 
           6690      2.65796e+7 
           6710      2.63963e+7 
           6730      2.61839e+7 
           6750      2.59554e+7 
           6770      2.57307e+7 
           6790      2.55066e+7 
           6810      2.52847e+7 
           6830      2.50658e+7 
           6850       2.4849e+7 
           6870      2.46351e+7 
           6890      2.44232e+7 
           6910      2.42134e+7 
           6930      2.40056e+7 
           6950      2.38006e+7 
           6970      2.35975e+7 
           6990      2.33971e+7 
           7010      2.31986e+7 
           7030       2.3002e+7 
           7050       2.2808e+7 
           7070      2.26159e+7 
           7090      2.24255e+7 
           7110      2.22317e+7 
           7130      2.20508e+7 
           7150      2.18665e+7 
           7170      2.16846e+7 
           7190      2.15043e+7 
           7210      2.13258e+7 
           7230      2.11496e+7 
           7250       2.0975e+7 
           7270       2.0802e+7 
           7290      2.06306e+7 
           7310      2.04615e+7 
           7330      2.02939e+7 
           7350      2.01285e+7 
           7370      1.99646e+7 
           7390      1.98015e+7 
           7410      1.96406e+7 
           7430      1.94811e+7 
           7450      1.93237e+7 
           7470      1.91663e+7 
           7490      1.90124e+7 
           7510      1.88605e+7 
           7530      1.87099e+7 
           7550        1.856e+7 
           7570      1.84121e+7 
           7590      1.82655e+7 
           7610      1.81202e+7 
           7630      1.79762e+7 
           7650       1.7834e+7 
           7670      1.76931e+7 
           7690      1.75534e+7 
           7710      1.74149e+7 
           7730      1.72789e+7 
           7750      1.71434e+7 
           7770      1.69623e+7 
           7790      1.68766e+7 
           7810      1.67451e+7 
           7830      1.66149e+7 
           7850      1.64863e+7 
           7870      1.63564e+7 
           7890      1.62288e+7 
           7910      1.61071e+7 
           7930      1.59834e+7 
           7950      1.58596e+7 
           7970      1.57391e+7 
           7990      1.56156e+7 
           8010      1.54995e+7 
           8030      1.53815e+7 
           8050      1.52645e+7 
           8070      1.51485e+7 
           8090      1.50339e+7 
           8110      1.49203e+7 
           8130      1.48077e+7 
           8150      1.46965e+7 
           8170      1.45863e+7 
           8190      1.44736e+7 
           8210      1.43987e+7 
           8230      1.42982e+7 
           8250      1.42002e+7 
           8270      1.41084e+7 
           8290      1.40125e+7 
           8310      1.39168e+7 
           8330      1.38131e+7 
           8350      1.37178e+7 
           8370      1.36088e+7 
           8390      1.34921e+7 
           8410      1.33688e+7 
           8430      1.32657e+7 
           8450      1.31729e+7 
           8470      1.28755e+7 
           8490      1.30449e+7 
           8510      1.24832e+7 
           8530      1.29607e+7 
           8550      1.18694e+7 
           8570      1.29995e+7 
           8590      1.20854e+7 
           8610      1.17864e+7 
           8630      1.30465e+7 
           8650       1.2454e+7 
           8670       1.0447e+7 
           8690      1.27357e+7 
           8710      1.31674e+7 
           8730       1.2556e+7 
           8750      9.88882e+6 
           8770      1.18799e+7 
           8790      1.30234e+7 
           8810      1.31789e+7 
           8830      1.27902e+7 
           8850      1.12265e+7 
           8870      9.49187e+6 
           8890      1.20214e+7 
           8910      1.27585e+7 
           8930      1.29088e+7 
           8950      1.28357e+7 
           8970      1.25374e+7 
           8990      1.17466e+7 
           9010       9.2855e+6 
           9030      1.01449e+7 
           9050      1.17776e+7 
           9070      1.21937e+7 
           9090      1.22591e+7 
           9110      1.22707e+7 
           9130      1.22017e+7 
           9150      1.20778e+7 
           9170      1.18777e+7 
           9190      1.14808e+7 
