# Kurucz ODFNEW /NOVER (2003)
# teff = 23000 K (value for the effective temperature for the model. Temperatures are given in K)
# logg = 3.5 log(cm/s2) (value for Log(G) for the model.)
# meta = -1  (value for the Metallicity for the model.)
# lh = 1.25  (l/Hp where l is the  mixing length of the convective element and Hp is the pressure scale height)
# vtur = 2 km/s (Microturbulence velocity)
# alpha = 0.4  (Alpha)
#
# column 1: WAVELENGTH (ANGSTROM), Wavelength in Angstrom
# column 2: FLUX (ERG/CM2/S/A), Flux in erg/cm2/s/A
          147.2      1.8854e-16 
            151     9.76397e-16 
          155.2     5.51556e-15 
          158.8     2.27435e-14 
            162     7.62976e-14 
            166     3.25544e-13 
          170.3     1.44017e-12 
          173.4     4.02771e-12 
          176.8     1.19489e-11 
          180.2     3.40567e-11 
          181.7     5.34018e-11 
          186.1      1.9185e-10 
            191     7.44258e-10 
          193.9      1.60753e-9 
          198.4      5.07796e-9 
          201.8      1.17016e-8 
            205      2.50251e-8 
          210.5      8.75204e-8 
          216.2      2.99151e-7 
          219.8      6.28545e-7 
            223      1.19127e-6 
          226.8      2.48457e-6 
            230     0.000109373 
            234     0.000262519 
            240      0.00066477 
          246.5      0.00172988 
          252.4      0.00399545 
          256.8      0.00682379 
            260       0.0109603 
            264       0.0180154 
          268.5        0.031192 
          273.5       0.0558328 
          278.5       0.0984976 
            284        0.181994 
            290        0.338774 
            296        0.614653 
            301        0.986388 
            308         1.81713 
            318         4.57556 
            328         10.1319 
            338         22.1387 
            348         45.3149 
            357         92.4997 
            366         168.107 
            375         284.077 
            385         505.474 
            395         867.957 
            405         1440.98 
            414          2247.9 
            422         3210.84 
            430         4589.82 
            441         7328.25 
            451         11020.1 
            460         15465.3 
            470         22405.9 
            480         31696.6 
            490         44437.1 
            500           61431 
            506          511942 
            512      1.79581e+6 
            520      2.16494e+6 
            530       2.8533e+6 
            540      3.10647e+6 
            550      4.39385e+6 
            560       5.1715e+6 
            570      6.34155e+6 
            580      6.34068e+6 
            590      8.35731e+6 
            600      9.92065e+6 
            610      1.18081e+7 
            620      1.33384e+7 
            630       1.5278e+7 
            640      1.63872e+7 
            650      1.73902e+7 
            658        2.121e+7 
            665      2.30719e+7 
            675      2.47349e+7 
            685      2.71228e+7 
            695      3.21249e+7 
            705      3.44413e+7 
            716      3.91665e+7 
            726      4.21033e+7 
            735      4.55827e+7 
            745      5.11677e+7 
            755      5.57859e+7 
            765      6.06198e+7 
            775      6.62856e+7 
            785      7.20171e+7 
            795      7.65946e+7 
            805      8.21855e+7 
            815      8.69814e+7 
            825      9.45442e+7 
            835      9.47301e+7 
            845      1.04985e+8 
            855      1.11273e+8 
            865      1.19168e+8 
            875      1.27698e+8 
            885      1.36979e+8 
            895      1.44841e+8 
            905      1.49289e+8 
            915      2.50163e+8 
            925      2.41772e+9 
            935      6.52945e+9 
            945     1.34919e+10 
            955      1.6258e+10 
            965     1.93805e+10 
            975      5.82952e+9 
            985     1.88057e+10 
            995      1.7613e+10 
           1005     1.89248e+10 
           1015     1.84908e+10 
           1025      9.18996e+9 
           1035     1.54036e+10 
           1045     2.06772e+10 
           1055      1.9554e+10 
           1065     1.69604e+10 
           1075     1.87702e+10 
           1085     1.72152e+10 
           1095     1.88508e+10 
           1105     1.71064e+10 
           1115     1.68179e+10 
           1125     1.50632e+10 
           1135     1.74616e+10 
           1145     1.59827e+10 
           1155     1.65939e+10 
           1165     1.66647e+10 
           1175     1.27416e+10 
           1185     1.60227e+10 
           1195     1.45423e+10 
           1205     1.01508e+10 
           1215      6.76325e+9 
           1225     1.33076e+10 
           1235      1.4694e+10 
           1245     1.46395e+10 
           1255     1.42569e+10 
           1265     1.40938e+10 
           1275     1.43621e+10 
           1285      1.4008e+10 
           1295     1.09124e+10 
           1305     1.14017e+10 
           1315     1.34154e+10 
           1325     1.27886e+10 
           1335     1.23318e+10 
           1345     1.23526e+10 
           1355     1.24301e+10 
           1365      1.1736e+10 
           1375     1.15327e+10 
           1385     1.14722e+10 
           1395      9.43128e+9 
           1405      9.93129e+9 
           1415     1.06816e+10 
           1425     1.04381e+10 
           1435       1.055e+10 
           1442     1.06837e+10 
           1447     1.04873e+10 
           1455     1.02639e+10 
           1465      9.88293e+9 
           1475      9.79077e+9 
           1485      9.59614e+9 
           1495      9.41948e+9 
           1505      8.88922e+9 
           1512      8.37157e+9 
           1517       8.5509e+9 
           1525      8.57886e+9 
           1535      7.82326e+9 
           1545      7.89261e+9 
           1555       7.5289e+9 
           1565      7.82153e+9 
           1575      8.00622e+9 
           1585      7.86562e+9 
           1595       7.8566e+9 
           1605      7.63045e+9 
           1615      7.48526e+9 
           1625      7.43108e+9 
           1635      7.56609e+9 
           1645      7.41284e+9 
           1655      7.32972e+9 
           1665      7.31872e+9 
           1672      7.13143e+9 
           1677      7.37564e+9 
           1685      7.22138e+9 
           1695      6.97488e+9 
           1705      6.75438e+9 
           1715       6.4978e+9 
           1725       6.4261e+9 
           1735      6.47275e+9 
           1745      6.35931e+9 
           1755       6.3712e+9 
           1765      6.15978e+9 
           1775      5.98881e+9 
           1785      5.97522e+9 
           1795      6.03955e+9 
           1805      6.01398e+9 
           1815      5.65261e+9 
           1825      5.73585e+9 
           1835      5.60257e+9 
           1845      5.20235e+9 
           1855      5.17049e+9 
           1865      5.22957e+9 
           1875      5.31582e+9 
           1885      4.88699e+9 
           1895      4.59153e+9 
           1905      4.86153e+9 
           1915      4.65947e+9 
           1925      4.49386e+9 
           1935      4.65229e+9 
           1945      4.70197e+9 
           1955      4.35168e+9 
           1967        4.567e+9 
           1976      4.71759e+9 
           1984      4.43126e+9 
           1995      4.32772e+9 
           2005      4.39112e+9 
           2015      4.38225e+9 
           2025      4.44372e+9 
           2035      4.17127e+9 
           2045      4.16787e+9 
           2055      4.03757e+9 
           2065      4.06138e+9 
           2074       4.1793e+9 
           2078      3.94825e+9 
           2085      4.01356e+9 
           2095      3.84916e+9 
           2105      3.92184e+9 
           2115      3.89579e+9 
           2125      3.93421e+9 
           2135      3.85819e+9 
           2145      3.70693e+9 
           2155      3.77912e+9 
           2165      3.74533e+9 
           2175      3.68469e+9 
           2185       3.6265e+9 
           2195      3.61582e+9 
           2205      3.57294e+9 
           2215      3.53016e+9 
           2225      3.45718e+9 
           2235      3.40798e+9 
           2245      3.40438e+9 
           2255      3.33172e+9 
           2265      3.32491e+9 
           2275      3.28243e+9 
           2285      3.25773e+9 
           2295      3.13048e+9 
           2305      3.16854e+9 
           2315      3.10453e+9 
           2325      3.07029e+9 
           2335      2.99713e+9 
           2345      2.98532e+9 
           2355      2.97531e+9 
           2365      2.93437e+9 
           2375      2.89068e+9 
           2385      2.85814e+9 
           2395      2.82664e+9 
           2405      2.79087e+9 
           2415      2.74681e+9 
           2425      2.74253e+9 
           2435      2.68942e+9 
           2445      2.66993e+9 
           2455      2.65103e+9 
           2465      2.61537e+9 
           2475      2.58241e+9 
           2485      2.54953e+9 
           2495      2.38964e+9 
           2505      2.48514e+9 
           2513      2.41244e+9 
           2518      2.44315e+9 
           2525      2.42667e+9 
           2535      2.39976e+9 
           2545      2.33255e+9 
           2555      2.34359e+9 
           2565      2.30863e+9 
           2575      2.30448e+9 
           2585      2.27755e+9 
           2595      2.25332e+9 
           2605      2.23972e+9 
           2615      2.21529e+9 
           2625      2.19336e+9 
           2635      2.16535e+9 
           2645      2.14804e+9 
           2655      2.12457e+9 
           2665      2.08786e+9 
           2675      2.07191e+9 
           2685      2.06262e+9 
           2695      2.01554e+9 
           2705      2.00875e+9 
           2715      1.98979e+9 
           2725      1.95528e+9 
           2735      1.94896e+9 
           2745      1.91089e+9 
           2755      1.89739e+9 
           2765      1.87083e+9 
           2775      1.87058e+9 
           2785      1.84663e+9 
           2795      1.78666e+9 
           2805      1.79631e+9 
           2815      1.79222e+9 
           2825      1.75911e+9 
           2835      1.72587e+9 
           2845       1.7347e+9 
           2855      1.71416e+9 
           2865      1.69969e+9 
           2875      1.68187e+9 
           2885       1.6657e+9 
           2895      1.64684e+9 
           2910      1.61901e+9 
           2930      1.58496e+9 
           2950      1.54497e+9 
           2970      1.52432e+9 
           2990      1.49106e+9 
           3010      1.45846e+9 
           3030      1.43541e+9 
           3050      1.40778e+9 
           3070       1.3809e+9 
           3090      1.34371e+9 
           3110      1.32629e+9 
           3130      1.30051e+9 
           3150      1.27608e+9 
           3170      1.25062e+9 
           3190      1.21818e+9 
           3210      1.20436e+9 
           3230      1.18025e+9 
           3250      1.15892e+9 
           3270       1.1382e+9 
           3290      1.11539e+9 
           3310      1.09689e+9 
           3330      1.07632e+9 
           3350      1.05501e+9 
           3370      1.03722e+9 
           3390      1.01898e+9 
           3410      1.00078e+9 
           3430       9.7784e+8 
           3450      9.56913e+8 
           3470      9.42441e+8 
           3490      9.25794e+8 
           3510      9.14204e+8 
           3530      8.99581e+8 
           3550      8.84092e+8 
           3570        8.725e+8 
           3590      8.51756e+8 
           3610      8.37979e+8 
           3630      8.23396e+8 
           3640      8.21693e+8 
           3650      8.05461e+8 
           3670      7.95532e+8 
           3690      7.73651e+8 
           3710      7.54795e+8 
           3730      7.38842e+8 
           3750       8.0101e+8 
           3770      8.03322e+8 
           3790      8.31794e+8 
           3810      8.60819e+8 
           3830      7.64122e+8 
           3850       8.7233e+8 
           3870      8.64343e+8 
           3890      7.29006e+8 
           3910       8.5042e+8 
           3930      8.27176e+8 
           3950      8.21259e+8 
           3970      6.76903e+8 
           3990      7.91458e+8 
           4010      7.81873e+8 
           4030       7.4567e+8 
           4050      7.61681e+8 
           4070      7.40364e+8 
           4090      7.01251e+8 
           4110      6.25418e+8 
           4130      6.99218e+8 
           4150      6.93064e+8 
           4170      6.86908e+8 
           4190      6.77491e+8 
           4210      6.68476e+8 
           4230      6.56864e+8 
           4250      6.44314e+8 
           4270      6.29346e+8 
           4290      6.22857e+8 
           4310      6.10337e+8 
           4330      5.69648e+8 
           4350      5.22135e+8 
           4370      5.81481e+8 
           4390      5.65541e+8 
           4410      5.66099e+8 
           4430      5.57255e+8 
           4450      5.50336e+8 
           4470      5.25078e+8 
           4490      5.32072e+8 
           4510      5.26474e+8 
           4530      5.18054e+8 
           4550      5.09451e+8 
           4570       5.0134e+8 
           4590      4.94084e+8 
           4610       4.8658e+8 
           4630      4.79626e+8 
           4650      4.68679e+8 
           4670       4.6476e+8 
           4690      4.59229e+8 
           4710      4.45131e+8 
           4730      4.44524e+8 
           4750      4.37382e+8 
           4770      4.33506e+8 
           4790      4.27021e+8 
           4810       4.1996e+8 
           4830      4.12452e+8 
           4850      3.90671e+8 
           4870      3.52475e+8 
           4890      3.95129e+8 
           4910      3.91089e+8 
           4930      3.78327e+8 
           4950      3.79766e+8 
           4970      3.75328e+8 
           4990       3.6992e+8 
           5010      3.59347e+8 
           5030      3.59563e+8 
           5050      3.51624e+8 
           5070      3.49823e+8 
           5090      3.44883e+8 
           5110      3.40082e+8 
           5130       3.3506e+8 
           5150       3.3053e+8 
           5170        3.264e+8 
           5190      3.22043e+8 
           5210      3.17118e+8 
           5230      3.13472e+8 
           5250      3.09284e+8 
           5270      3.05069e+8 
           5290      3.01084e+8 
           5310      2.97043e+8 
           5330      2.93067e+8 
           5350      2.89024e+8 
           5370      2.85517e+8 
           5390      2.81703e+8 
           5410      2.78054e+8 
           5430      2.74221e+8 
           5450      2.70715e+8 
           5470      2.67228e+8 
           5490       2.6391e+8 
           5510      2.60546e+8 
           5530      2.57161e+8 
           5550      2.53941e+8 
           5570      2.50652e+8 
           5590      2.47535e+8 
           5610      2.44313e+8 
           5630      2.41344e+8 
           5650      2.37892e+8 
           5670      2.34799e+8 
           5690      2.31778e+8 
           5710       2.2936e+8 
           5730      2.26568e+8 
           5750      2.23502e+8 
           5770      2.21073e+8 
           5790      2.18346e+8 
           5810      2.15662e+8 
           5830      2.12966e+8 
           5850      2.10422e+8 
           5870      2.02562e+8 
           5890      2.04859e+8 
           5910      2.02806e+8 
           5930      2.00327e+8 
           5950      1.97833e+8 
           5970      1.95696e+8 
           5990      1.93226e+8 
           6010      1.91045e+8 
           6030      1.88743e+8 
           6050      1.86551e+8 
           6070      1.84372e+8 
           6090      1.82198e+8 
           6110      1.80079e+8 
           6130      1.77984e+8 
           6150      1.75742e+8 
           6170      1.73813e+8 
           6190      1.71846e+8 
           6210      1.69872e+8 
           6230      1.67919e+8 
           6250      1.65939e+8 
           6270      1.64077e+8 
           6290      1.62207e+8 
           6310       1.6032e+8 
           6330      1.58556e+8 
           6350      1.56503e+8 
           6370      1.54881e+8 
           6390      1.53221e+8 
           6410      1.51506e+8 
           6430      1.49845e+8 
           6450      1.48165e+8 
           6470      1.46432e+8 
           6490      1.44833e+8 
           6510      1.43278e+8 
           6530      1.41394e+8 
           6550      1.36809e+8 
           6570      1.22694e+8 
           6590      1.35873e+8 
           6610      1.35552e+8 
           6630      1.34136e+8 
           6650      1.32725e+8 
           6670      1.30245e+8 
           6690      1.28862e+8 
           6710      1.28513e+8 
           6730      1.27085e+8 
           6750      1.25787e+8 
           6770      1.24445e+8 
           6790      1.22953e+8 
           6810      1.21793e+8 
           6830      1.20492e+8 
           6850      1.19251e+8 
           6870      1.17991e+8 
           6890      1.16736e+8 
           6910      1.15509e+8 
           6930      1.14309e+8 
           6950      1.13138e+8 
           6970      1.11962e+8 
           6990       1.1079e+8 
           7010      1.09653e+8 
           7030      1.08519e+8 
           7050      1.07412e+8 
           7070      1.04687e+8 
           7090      1.05229e+8 
           7110      1.04138e+8 
           7130      1.03088e+8 
           7150      1.02041e+8 
           7170      1.00989e+8 
           7190      9.99975e+7 
           7210      9.89869e+7 
           7230      9.73878e+7 
           7250      9.69731e+7 
           7270      9.60411e+7 
           7290      9.43381e+7 
           7310      9.41187e+7 
           7330      9.32062e+7 
           7350      9.22812e+7 
           7370      9.13718e+7 
           7390      9.04709e+7 
           7410      8.95853e+7 
           7430      8.86942e+7 
           7450      8.78453e+7 
           7470      8.69232e+7 
           7490       8.6144e+7 
           7510      8.52783e+7 
           7530      8.44804e+7 
           7550      8.36699e+7 
           7570      8.28668e+7 
           7590       8.2071e+7 
           7610      8.12694e+7 
           7630      8.05074e+7 
           7650      7.97394e+7 
           7670      7.89783e+7 
           7690      7.82303e+7 
           7710      7.74828e+7 
           7730      7.67545e+7 
           7750      7.60264e+7 
           7770      7.51613e+7 
           7790      7.46145e+7 
           7810       7.3856e+7 
           7830      7.32211e+7 
           7850      7.25856e+7 
           7870      7.19009e+7 
           7890      7.11556e+7 
           7910      7.06035e+7 
           7930      6.98465e+7 
           7950      6.91259e+7 
           7970      6.84651e+7 
           7990      6.78277e+7 
           8010      6.72193e+7 
           8030      6.66337e+7 
           8050      6.60646e+7 
           8070       6.5512e+7 
           8090      6.47798e+7 
           8110      6.42315e+7 
           8130      6.37791e+7 
           8150      6.30865e+7 
           8170      6.26595e+7 
           8190      6.19887e+7 
           8210      6.12288e+7 
           8230      6.08481e+7 
           8250      6.03597e+7 
           8270      5.94622e+7 
           8290       5.9214e+7 
           8310      5.87057e+7 
           8330      5.81852e+7 
           8350      5.73881e+7 
           8370       5.7012e+7 
           8390      5.66014e+7 
           8410      5.60768e+7 
           8430      5.55036e+7 
           8450      5.46661e+7 
           8470      5.43137e+7 
           8490      5.41208e+7 
           8510      5.31176e+7 
           8530      5.33918e+7 
           8550      5.14334e+7 
           8570      5.32741e+7 
