# Kurucz ODFNEW /NOVER (2003)
# teff = 8250 K (value for the effective temperature for the model. Temperatures are given in K)
# logg = 5 log(cm/s2) (value for Log(G) for the model.)
# meta = -4  (value for the Metallicity for the model.)
# lh = 1.25  (l/Hp where l is the  mixing length of the convective element and Hp is the pressure scale height)
# vtur = 2 km/s (Microturbulence velocity)
# alpha = 0.4  (Alpha)
#
# column 1: WAVELENGTH (ANGSTROM), Wavelength in Angstrom
# column 2: FLUX (ERG/CM2/S/A), Flux in erg/cm2/s/A
          147.2     1.73866e-35 
            151     1.65225e-35 
          155.2     1.56403e-35 
          158.8     1.49392e-35 
            162     1.43549e-35 
            166     1.36714e-35 
          170.3     1.29897e-35 
          173.4     1.25294e-35 
          176.8     1.20522e-35 
          180.2     1.16017e-35 
          181.7     1.14109e-35 
          186.1     1.08777e-35 
            191     1.03267e-35 
          193.9     1.00201e-35 
          198.4     9.57076e-36 
          201.8     9.25097e-36 
            205     8.96441e-36 
          210.5     8.50208e-36 
          216.2     8.05969e-36 
          219.8     7.79784e-36 
            223     7.57565e-36 
          226.8     7.32392e-36 
            230     7.12154e-36 
            234     6.88015e-36 
            240     6.54044e-36 
          246.5     6.20006e-36 
          252.4     5.91358e-36 
          256.8     5.71267e-36 
            260     5.57292e-36 
            264     5.40532e-36 
          268.5     4.96939e-24 
          273.5     7.84057e-23 
          278.5     3.64658e-22 
            284     1.72096e-21 
            290     8.64104e-21 
            296     4.05177e-20 
            301     1.39883e-19 
            308     7.39329e-19 
            318     6.99559e-18 
            328     5.74633e-17 
            338     4.14902e-16 
            348     2.66321e-15 
            357     1.29416e-14 
            366     5.80101e-14 
            375     2.41257e-13 
            385     1.08364e-12 
            395     4.49612e-12 
            405     1.73359e-11 
            414     5.50974e-11 
            422     1.47464e-10 
            430     3.79826e-10 
            441      1.31527e-9 
            451       3.8497e-9 
            460       9.7047e-9 
            470      2.59515e-8 
            480      6.64607e-8 
            490      1.63448e-7 
            500      3.86992e-7 
            506      6.27343e-7 
            512      1.03867e-6 
            520      1.95275e-6 
            530      4.17849e-6 
            540       8.6777e-6 
            550      1.75189e-5 
            560      3.44366e-5 
            570      6.60013e-5 
            580     0.000123501 
            590     0.000225919 
            600      0.00040445 
            610     0.000709418 
            620      0.00122035 
            630      0.00206076 
            640      0.00341935 
            650      0.00557889 
            658      0.00815874 
            665       0.0112859 
            675       0.0177167 
            685       0.0274166 
            695       0.0418554 
            705       0.0630706 
            716       0.0976039 
            726        0.143365 
            735        0.200671 
            745        0.288569 
            755        0.410617 
            765        0.578427 
            775        0.806993 
            785         1.11535 
            795          1.5279 
            805         2.07513 
            815         2.79508 
            825         3.73494 
            835          4.9528 
            845          6.5192 
            855          8.5207 
            865         11.0598 
            875         14.2607 
            885         18.2712 
            895         23.2657 
            905         29.4498 
            915         42.7786 
            925          96.544 
            935         147.391 
            945         243.045 
            955         343.698 
            965         455.324 
            975         388.509 
            985         782.988 
            995         1063.34 
           1005         1157.61 
           1015         1085.18 
           1025         848.249 
           1035         1531.29 
           1045         2247.35 
           1055         2750.71 
           1065         3621.07 
           1075         4230.78 
           1085          5239.6 
           1095         5741.94 
           1105         6168.55 
           1115         6664.75 
           1125         7535.63 
           1135         8341.87 
           1145         9066.05 
           1155         9635.51 
           1165         10058.7 
           1175         10363.6 
           1185         12347.7 
           1195         11420.1 
           1205         10042.8 
           1215         6889.32 
           1225         11836.9 
           1235         17261.8 
           1245         18027.8 
           1255         23138.7 
           1265         28349.6 
           1275         33966.8 
           1285         44318.4 
           1295         52615.5 
           1305         70296.7 
           1315         85320.6 
           1325          108221 
           1335          136664 
           1345          179976 
           1355          244194 
           1365          289236 
           1375          289567 
           1385          271084 
           1395          289029 
           1405          420027 
           1415          721501 
           1425          786677 
           1435          925914 
           1442      1.06261e+6 
           1447          899681 
           1455      1.00739e+6 
           1465          930385 
           1475          990297 
           1485      1.08578e+6 
           1495      1.19453e+6 
           1505       1.2575e+6 
           1512      1.34215e+6 
           1517      1.12049e+6 
           1525      1.11889e+6 
           1535      1.05333e+6 
           1545          856841 
           1555          782461 
           1565          643027 
           1575          602919 
           1585          590087 
           1595          590159 
           1605          622577 
           1615          829990 
           1625      1.63781e+6 
           1635      3.52599e+6 
           1645      8.01162e+6 
           1655      1.14738e+7 
           1665      1.86895e+7 
           1672      2.18916e+7 
           1677      2.41269e+7 
           1685      2.63146e+7 
           1695       2.9017e+7 
           1705      3.08988e+7 
           1715      3.25377e+7 
           1725      3.33782e+7 
           1735      3.42448e+7 
           1745      3.45017e+7 
           1755      3.50845e+7 
           1765      3.53967e+7 
           1775      3.57511e+7 
           1785      3.60469e+7 
           1795      3.65221e+7 
           1805      3.63013e+7 
           1815      3.67989e+7 
           1825      3.67678e+7 
           1835      3.74478e+7 
           1845      3.71326e+7 
           1855      3.77307e+7 
           1865      3.81958e+7 
           1875      3.83939e+7 
           1885      3.85951e+7 
           1895      3.88036e+7 
           1905      3.88841e+7 
           1915      3.91705e+7 
           1925      3.93623e+7 
           1935      3.90401e+7 
           1945      3.96823e+7 
           1955      3.98274e+7 
           1967      4.00011e+7 
           1976      4.00226e+7 
           1984      4.00163e+7 
           1995      4.03363e+7 
           2005      4.04026e+7 
           2015      4.04952e+7 
           2025      4.04748e+7 
           2035      4.07612e+7 
           2045      4.08517e+7 
           2055      4.07629e+7 
           2065      4.08947e+7 
           2074      4.11142e+7 
           2078      4.11445e+7 
           2085      4.11712e+7 
           2095       4.1246e+7 
           2105      4.13006e+7 
           2115      4.13674e+7 
           2125      4.12468e+7 
           2135      4.14506e+7 
           2145      4.15301e+7 
           2155      4.15536e+7 
           2165      4.14061e+7 
           2175      4.15311e+7 
           2185      4.16324e+7 
           2195      4.16887e+7 
           2205      4.15617e+7 
           2215      4.10882e+7 
           2225      4.15644e+7 
           2235      4.17363e+7 
           2245      4.17106e+7 
           2255       4.1586e+7 
           2265       4.1503e+7 
           2275      4.15844e+7 
           2285      4.16571e+7 
           2295      4.15774e+7 
           2305      4.16506e+7 
           2315       4.1603e+7 
           2325      4.15379e+7 
           2335      4.10537e+7 
           2345      4.05255e+7 
           2355      4.13056e+7 
           2365      4.05306e+7 
           2375      4.09842e+7 
           2385      4.01902e+7 
           2395      4.07498e+7 
           2405      4.07327e+7 
           2415      4.06829e+7 
           2425      4.12904e+7 
           2435        4.114e+7 
           2445      4.11136e+7 
           2455      4.11457e+7 
           2465      4.10059e+7 
           2475      4.09317e+7 
           2485      4.07396e+7 
           2495      4.06055e+7 
           2505      4.07899e+7 
           2513      4.04155e+7 
           2518      4.01981e+7 
           2525      4.02656e+7 
           2535      4.03484e+7 
           2545      4.04868e+7 
           2555      4.05652e+7 
           2565      4.01482e+7 
           2575      4.02756e+7 
           2585      4.00739e+7 
           2595      3.99022e+7 
           2605      3.97458e+7 
           2615      3.96539e+7 
           2625      3.96509e+7 
           2635      3.96315e+7 
           2645      4.01332e+7 
           2655       4.0057e+7 
           2665      3.99197e+7 
           2675      3.98682e+7 
           2685       3.9831e+7 
           2695      3.97289e+7 
           2705      3.96561e+7 
           2715      3.94447e+7 
           2725      3.93318e+7 
           2735      3.93026e+7 
           2745      3.85493e+7 
           2755      3.86362e+7 
           2765      3.90358e+7 
           2775      3.90827e+7 
           2785      3.89556e+7 
           2795      3.77191e+7 
           2805      3.81914e+7 
           2815      3.87919e+7 
           2825      3.86995e+7 
           2835      3.85742e+7 
           2845       3.8506e+7 
           2855        3.808e+7 
           2865      3.83168e+7 
           2875      3.82526e+7 
           2885      3.80947e+7 
           2895      3.81021e+7 
           2910      3.79861e+7 
           2930      3.77519e+7 
           2950       3.7579e+7 
           2970       3.7438e+7 
           2990      3.72499e+7 
           3010      3.70958e+7 
           3030      3.69183e+7 
           3050      3.67439e+7 
           3070      3.65537e+7 
           3090      3.63827e+7 
           3110      3.62119e+7 
           3130      3.60329e+7 
           3150      3.58498e+7 
           3170       3.5683e+7 
           3190      3.54739e+7 
           3210      3.53232e+7 
           3230      3.51164e+7 
           3250      3.49701e+7 
           3270      3.48065e+7 
           3290      3.46328e+7 
           3310      3.44576e+7 
           3330      3.42725e+7 
           3350      3.40861e+7 
           3370      3.39182e+7 
           3390      3.37454e+7 
           3410       3.3584e+7 
           3430       3.3408e+7 
           3450      3.32338e+7 
           3470      3.30646e+7 
           3490       3.2894e+7 
           3510       3.2725e+7 
           3530      3.25548e+7 
           3550      3.23833e+7 
           3570      3.22107e+7 
           3590      3.20428e+7 
           3610      3.18737e+7 
           3630      3.17065e+7 
           3640      3.16206e+7 
           3650       3.1688e+7 
           3670      3.16372e+7 
           3690      3.09604e+7 
           3710      3.05345e+7 
           3730      2.92385e+7 
           3750      3.34951e+7 
           3770      3.44474e+7 
           3790      3.98495e+7 
           3810      4.58607e+7 
           3830      3.79197e+7 
           3850      5.05246e+7 
           3870      5.64029e+7 
           3890      3.37939e+7 
           3910      5.66323e+7 
           3930      6.16601e+7 
           3950      5.64762e+7 
           3970      3.30313e+7 
           3990      5.40764e+7 
           4010      6.15813e+7 
           4030      6.25814e+7 
           4050      6.17421e+7 
           4070      5.85805e+7 
           4090      4.52217e+7 
           4110      3.55986e+7 
           4130      5.54507e+7 
           4150      5.90014e+7 
           4170      5.95937e+7 
           4190      5.94468e+7 
           4210      5.90448e+7 
           4230      5.85047e+7 
           4250       5.7849e+7 
           4270      5.69798e+7 
           4290      5.55552e+7 
           4310      5.21853e+7 
           4330      3.92525e+7 
           4350      3.39529e+7 
           4370      4.99553e+7 
           4390       5.2926e+7 
           4410      5.34814e+7 
           4430       5.3397e+7 
           4450      5.30931e+7 
           4470      5.27077e+7 
           4490      5.22822e+7 
           4510      5.18454e+7 
           4530      5.14841e+7 
           4550       5.1027e+7 
           4570      5.05706e+7 
           4590      5.01201e+7 
           4610      4.96737e+7 
           4630      4.92315e+7 
           4650      4.87914e+7 
           4670      4.82673e+7 
           4690      4.78069e+7 
           4710      4.73474e+7 
           4730      4.68754e+7 
           4750      4.63697e+7 
           4770      4.57945e+7 
           4790      4.50533e+7 
           4810      4.38702e+7 
           4830      4.12484e+7 
           4850      3.25327e+7 
           4870      2.70353e+7 
           4890      3.90529e+7 
           4910      4.16654e+7 
           4930      4.22549e+7 
           4950      4.22663e+7 
           4970      4.20732e+7 
           4990      4.17971e+7 
           5010      4.14851e+7 
           5030      4.11573e+7 
           5050      4.08866e+7 
           5070      4.05339e+7 
           5090      4.01811e+7 
           5110      3.98311e+7 
           5130      3.94854e+7 
           5150      3.91424e+7 
           5170       3.8795e+7 
           5190      3.84644e+7 
           5210      3.81364e+7 
           5230      3.78081e+7 
           5250      3.74836e+7 
           5270      3.71617e+7 
           5290      3.68435e+7 
           5310      3.65291e+7 
           5330       3.6217e+7 
           5350      3.59086e+7 
           5370      3.56037e+7 
           5390      3.53011e+7 
           5410      3.50007e+7 
           5430       3.4705e+7 
           5450      3.44101e+7 
           5470      3.41199e+7 
           5490       3.3833e+7 
           5510      3.35482e+7 
           5530      3.32665e+7 
           5550      3.29881e+7 
           5570      3.27127e+7 
           5590      3.24393e+7 
           5610      3.21689e+7 
           5630      3.19015e+7 
           5650      3.16359e+7 
           5670      3.13733e+7 
           5690      3.11136e+7 
           5710      3.08567e+7 
           5730      3.06015e+7 
           5750      3.03503e+7 
           5770      3.00995e+7 
           5790      2.98526e+7 
           5810      2.96073e+7 
           5830      2.93635e+7 
           5850      2.91234e+7 
           5870      2.88826e+7 
           5890      2.86466e+7 
           5910      2.84143e+7 
           5930      2.81833e+7 
           5950      2.79548e+7 
           5970      2.77276e+7 
           5990      2.75029e+7 
           6010      2.72805e+7 
           6030      2.70604e+7 
           6050      2.68417e+7 
           6070      2.66262e+7 
           6090       2.6412e+7 
           6110      2.62011e+7 
           6130      2.59913e+7 
           6150      2.57836e+7 
           6170      2.55772e+7 
           6190      2.53738e+7 
           6210      2.51725e+7 
           6230      2.49724e+7 
           6250      2.47752e+7 
           6270       2.4579e+7 
           6290      2.43849e+7 
           6310      2.41927e+7 
           6330      2.40025e+7 
           6350      2.38141e+7 
           6370      2.36258e+7 
           6390      2.33915e+7 
           6410      2.31916e+7 
           6430      2.29856e+7 
           6450      2.27654e+7 
           6470      2.25151e+7 
           6490      2.22012e+7 
           6510      2.17263e+7 
           6530      2.07621e+7 
           6550      1.79274e+7 
           6570      1.47742e+7 
           6590      1.95191e+7 
           6610      2.06626e+7 
           6630      2.09418e+7 
           6650      2.09609e+7 
           6670      2.08879e+7 
           6690       2.0775e+7 
           6710      2.06446e+7 
           6730      2.05046e+7 
           6750      2.03924e+7 
           6770      2.02417e+7 
           6790      2.00883e+7 
           6810      1.99363e+7 
           6830      1.97858e+7 
           6850      1.96375e+7 
           6870      1.94898e+7 
           6890      1.93435e+7 
           6910      1.91986e+7 
           6930       1.9055e+7 
           6950      1.89127e+7 
           6970      1.87718e+7 
           6990      1.86321e+7 
           7010      1.84937e+7 
           7030      1.83566e+7 
           7050      1.82201e+7 
           7070      1.80855e+7 
           7090      1.79521e+7 
           7110      1.78199e+7 
           7130       1.7689e+7 
           7150      1.75592e+7 
           7170      1.74299e+7 
           7190      1.73024e+7 
           7210      1.71761e+7 
           7230       1.7051e+7 
           7250      1.69269e+7 
           7270      1.68033e+7 
           7290      1.66814e+7 
           7310      1.65607e+7 
           7330      1.64403e+7 
           7350      1.63216e+7 
           7370      1.62033e+7 
           7390      1.60868e+7 
           7410      1.59706e+7 
           7430       1.5856e+7 
           7450      1.57418e+7 
           7470      1.56293e+7 
           7490      1.55171e+7 
           7510      1.54065e+7 
           7530      1.52962e+7 
           7550      1.51875e+7 
           7570      1.50797e+7 
           7590      1.49722e+7 
           7610      1.48663e+7 
           7630      1.47613e+7 
           7650      1.46572e+7 
           7670      1.45533e+7 
           7690       1.4451e+7 
           7710      1.43495e+7 
           7730      1.42488e+7 
           7750       1.4149e+7 
           7770      1.40495e+7 
           7790       1.3952e+7 
           7810      1.38546e+7 
           7830      1.37582e+7 
           7850      1.36625e+7 
           7870      1.35682e+7 
           7890      1.34741e+7 
           7910      1.33807e+7 
           7930      1.32881e+7 
           7950      1.31969e+7 
           7970      1.31059e+7 
           7990      1.30156e+7 
           8010      1.29266e+7 
           8030      1.28377e+7 
           8050      1.27502e+7 
           8070      1.26628e+7 
           8090      1.25766e+7 
           8110      1.24906e+7 
           8130      1.24059e+7 
           8150      1.23218e+7 
           8170      1.22378e+7 
           8190      1.21551e+7 
           8210      1.20831e+7 
           8230      1.20055e+7 
           8250      1.19291e+7 
           8270      1.18533e+7 
           8290      1.17781e+7 
           8310      1.17035e+7 
           8330      1.16289e+7 
           8350      1.15538e+7 
           8370      1.14777e+7 
           8390      1.14011e+7 
           8410      1.13219e+7 
           8430      1.12465e+7 
           8450      1.11738e+7 
           8470      1.10581e+7 
           8490      1.10317e+7 
           8510      1.08639e+7 
           8530      1.08989e+7 
           8550      1.05697e+7 
           8570      1.08061e+7 
           8590      1.04863e+7 
