# Kurucz ODFNEW /NOVER (2003)
# teff = 10250 K (value for the effective temperature for the model. Temperatures are given in K)
# logg = 2.5 log(cm/s2) (value for Log(G) for the model.)
# meta = 0.2  (value for the Metallicity for the model.)
# lh = 1.25  (l/Hp where l is the  mixing length of the convective element and Hp is the pressure scale height)
# vtur = 2 km/s (Microturbulence velocity)
# alpha = 0  (Alpha)
#
# column 1: WAVELENGTH (ANGSTROM), Wavelength in Angstrom
# column 2: FLUX (ERG/CM2/S/A), Flux in erg/cm2/s/A
          273.5      1.5801e-23 
          278.5     8.69862e-23 
            284     3.77042e-22 
            290     1.69819e-21 
            296     7.13204e-21 
            301     2.27366e-20 
            308     1.08439e-19 
            318     9.00322e-19 
            328     6.62281e-18 
            338     4.34754e-17 
            348     2.58348e-16 
            357     1.20741e-15 
            366     5.14798e-15 
            375     2.04368e-14 
            385     8.84148e-14 
            395     3.54359e-13 
            405     1.33732e-12 
            414      4.1861e-12 
            422      1.1092e-11 
            430     2.81518e-11 
            441     9.77636e-11 
            451     2.85935e-10 
            460      7.2289e-10 
            470       1.9418e-9 
            480      5.01848e-9 
            490      1.24951e-8 
            500      2.99394e-8 
            506      1.36372e-7 
            512      2.81084e-7 
            520      5.11538e-7 
            530      1.05877e-6 
            540      2.10689e-6 
            550      4.19608e-6 
            560      8.05692e-6 
            570       1.5126e-5 
            580       2.7211e-5 
            590       4.9727e-5 
            600      8.75739e-5 
            610     0.000152251 
            620     0.000258614 
            630     0.000432684 
            640     0.000708336 
            650        0.001154 
            658      0.00168141 
            665      0.00231366 
            675      0.00361685 
            685       0.0055885 
            695       0.0085411 
            705       0.0128226 
            716       0.0199044 
            726        0.029287 
            735       0.0410339 
            745       0.0591289 
            755       0.0843771 
            765        0.119213 
            775        0.167251 
            785        0.232448 
            795        0.318199 
            805        0.435536 
            815        0.591049 
            825        0.793948 
            835         1.05385 
            845         1.40409 
            855         1.84653 
            865         2.41477 
            875         3.12642 
            885         4.04432 
            895         5.18751 
            905         6.57577 
            915         680.046 
            925         4857.36 
            935         6756.55 
            945         10148.2 
            955         16327.4 
            965         21122.5 
            975         19233.5 
            985         27664.9 
            995         28615.5 
           1005           36358 
           1015         42941.4 
           1025         37012.3 
           1035           52302 
           1045         66429.8 
           1055         78915.1 
           1065         81402.6 
           1075           96948 
           1085          110328 
           1095          115766 
           1105          523739 
           1115      6.19537e+6 
           1125      7.97498e+6 
           1135      1.25507e+7 
           1145      1.14005e+7 
           1155      1.45563e+7 
           1165      1.63649e+7 
           1175      1.38424e+7 
           1185      9.96563e+6 
           1195          238678 
           1205          319955 
           1215         58039.6 
           1225          311375 
           1235      2.36727e+6 
           1245      2.09927e+7 
           1255      4.80699e+7 
           1265      2.61013e+7 
           1275       7.2244e+7 
           1285      1.02009e+8 
           1295      7.09935e+7 
           1305      2.45634e+7 
           1315       8.2068e+7 
           1325      1.07992e+8 
           1335      7.30196e+7 
           1345      1.27591e+8 
           1355      1.24959e+8 
           1365       9.9151e+7 
           1375      1.16554e+8 
           1385      1.18161e+8 
           1395       1.2176e+8 
           1405      1.23136e+8 
           1415      1.12427e+8 
           1425      1.31288e+8 
           1435      1.17392e+8 
           1442      1.34245e+8 
           1447      1.50527e+8 
           1455      1.45455e+8 
           1465      1.30932e+8 
           1475      1.23774e+8 
           1485      1.41675e+8 
           1495      1.53788e+8 
           1505       1.5252e+8 
           1512      1.27404e+8 
           1517      1.47109e+8 
           1525      1.29484e+8 
           1535      1.13731e+8 
           1545      1.50182e+8 
           1555       1.2589e+8 
           1565      1.15057e+8 
           1575      1.22503e+8 
           1585        1.416e+8 
           1595      1.52512e+8 
           1605      1.38805e+8 
           1615      1.39456e+8 
           1625      1.24119e+8 
           1635      1.32118e+8 
           1645      1.37614e+8 
           1655      1.19046e+8 
           1665      1.33511e+8 
           1672      7.08413e+7 
           1677       1.2887e+8 
           1685      1.49924e+8 
           1695      1.41433e+8 
           1705      1.26708e+8 
           1715       1.1939e+8 
           1725      1.18444e+8 
           1735      1.31357e+8 
           1745      1.29584e+8 
           1755       1.5085e+8 
           1765      1.21125e+8 
           1775      1.35847e+8 
           1785       1.3401e+8 
           1795      1.58548e+8 
           1805      1.49985e+8 
           1815      1.46153e+8 
           1825      1.40438e+8 
           1835       1.3343e+8 
           1845      1.20953e+8 
           1855      1.23255e+8 
           1865      1.26182e+8 
           1875      1.41214e+8 
           1885      1.33496e+8 
           1895      1.31052e+8 
           1905       1.2723e+8 
           1915      1.30876e+8 
           1925      1.34461e+8 
           1935      1.34785e+8 
           1945      1.38751e+8 
           1955      1.34959e+8 
           1967      1.47865e+8 
           1976       1.5067e+8 
           1984      1.41169e+8 
           1995       1.3442e+8 
           2005      1.36962e+8 
           2015       1.2552e+8 
           2025      1.33764e+8 
           2035      1.29942e+8 
           2045      1.38422e+8 
           2055      1.27309e+8 
           2065      1.26097e+8 
           2074      1.38922e+8 
           2078      1.38597e+8 
           2085      1.37815e+8 
           2095      1.30563e+8 
           2105      1.26358e+8 
           2115      1.25705e+8 
           2125      1.29197e+8 
           2135      1.06575e+8 
           2145      1.19462e+8 
           2155      1.26314e+8 
           2165       1.1831e+8 
           2175      1.15202e+8 
           2185      1.13029e+8 
           2195      1.22722e+8 
           2205      1.15738e+8 
           2215      1.03323e+8 
           2225      9.77394e+7 
           2235      1.12026e+8 
           2245      9.96534e+7 
           2255      9.40893e+7 
           2265      9.93773e+7 
           2275      1.05413e+8 
           2285      1.09587e+8 
           2295      1.03534e+8 
           2305       9.7199e+7 
           2315      9.05336e+7 
           2325      8.97007e+7 
           2335      7.98824e+7 
           2345      7.33108e+7 
           2355      8.91553e+7 
           2365      7.26083e+7 
           2375      8.00194e+7 
           2385      6.66933e+7 
           2395      7.79333e+7 
           2405      7.22387e+7 
           2415      7.70418e+7 
           2425      8.63695e+7 
           2435      8.18366e+7 
           2445      8.97832e+7 
           2455      8.57217e+7 
           2465       8.5164e+7 
           2475      8.15928e+7 
           2485      8.81301e+7 
           2495      8.41692e+7 
           2505       9.5866e+7 
           2513      8.16195e+7 
           2518      8.60076e+7 
           2525      7.73357e+7 
           2535      7.83213e+7 
           2545      7.69626e+7 
           2555      8.38924e+7 
           2565      8.07831e+7 
           2575      8.95486e+7 
           2585      8.68501e+7 
           2595      8.32729e+7 
           2605      7.83268e+7 
           2615      7.75471e+7 
           2625      8.50435e+7 
           2635       8.6027e+7 
           2645      9.97985e+7 
           2655      9.76693e+7 
           2665      8.59682e+7 
           2675      9.21393e+7 
           2685      8.84234e+7 
           2695      8.62953e+7 
           2705      9.01532e+7 
           2715      8.44511e+7 
           2725      8.61458e+7 
           2735      9.40838e+7 
           2745      7.40057e+7 
           2755      7.51322e+7 
           2765      7.83052e+7 
           2775      8.73159e+7 
           2785      8.58594e+7 
           2795      6.07626e+7 
           2805      7.10459e+7 
           2815      8.89977e+7 
           2825      9.25086e+7 
           2835      8.61011e+7 
           2845      8.28765e+7 
           2855      8.03095e+7 
           2865      8.74513e+7 
           2875      8.35761e+7 
           2885      8.52427e+7 
           2895      8.01733e+7 
           2910      9.17744e+7 
           2930      8.72741e+7 
           2950      8.69649e+7 
           2970       8.8847e+7 
           2990      8.94533e+7 
           3010      9.18445e+7 
           3030      8.98728e+7 
           3050       8.8131e+7 
           3070      8.68905e+7 
           3090      8.85747e+7 
           3110      8.51995e+7 
           3130      8.42449e+7 
           3150      8.58514e+7 
           3170      8.46403e+7 
           3190      8.11278e+7 
           3210      8.30047e+7 
           3230       8.1135e+7 
           3250      8.14913e+7 
           3270      8.11739e+7 
           3290      8.15265e+7 
           3310      8.16446e+7 
           3330      7.94947e+7 
           3350      7.81993e+7 
           3370       7.7861e+7 
           3390      7.69482e+7 
           3410      7.83194e+7 
           3430      7.77193e+7 
           3450      7.70361e+7 
           3470      7.55843e+7 
           3490      7.48968e+7 
           3510      7.56052e+7 
           3530      7.57697e+7 
           3550      7.54804e+7 
           3570      7.40222e+7 
           3590      7.34511e+7 
           3610      7.29142e+7 
           3630       7.2253e+7 
           3640      7.18793e+7 
           3650      7.34513e+7 
           3670      7.19145e+7 
           3690      7.09406e+7 
           3710      8.52288e+7 
           3730      1.02671e+8 
           3750      1.41131e+8 
           3770      1.42184e+8 
           3790      1.60557e+8 
           3810      1.75058e+8 
           3830      1.44311e+8 
           3850      1.78144e+8 
           3870      1.83712e+8 
           3890      1.36572e+8 
           3910      1.78263e+8 
           3930      1.75333e+8 
           3950      1.76704e+8 
           3970      1.27428e+8 
           3990      1.71804e+8 
           4010      1.70225e+8 
           4030      1.66847e+8 
           4050      1.66567e+8 
           4070      1.62521e+8 
           4090      1.52907e+8 
           4110      1.24303e+8 
           4130        1.546e+8 
           4150      1.55981e+8 
           4170      1.52426e+8 
           4190      1.51199e+8 
           4210      1.49743e+8 
           4230      1.47231e+8 
           4250      1.44341e+8 
           4270      1.42105e+8 
           4290      1.41449e+8 
           4310      1.37379e+8 
           4330      1.24766e+8 
           4350      1.08568e+8 
           4370      1.33885e+8 
           4390      1.30475e+8 
           4410      1.30224e+8 
           4430      1.28682e+8 
           4450      1.27589e+8 
           4470      1.25452e+8 
           4490      1.22569e+8 
           4510      1.22272e+8 
           4530      1.20273e+8 
           4550      1.17129e+8 
           4570      1.18186e+8 
           4590      1.15003e+8 
           4610      1.16234e+8 
           4630      1.12207e+8 
           4650      1.13229e+8 
           4670      1.11183e+8 
           4690      1.10016e+8 
           4710      1.07051e+8 
           4730      1.07414e+8 
           4750      1.06084e+8 
           4770        1.053e+8 
           4790      1.03933e+8 
           4810      1.02141e+8 
           4830      1.00183e+8 
           4850      9.14561e+7 
           4870      7.65884e+7 
           4890      9.67185e+7 
           4910      9.60243e+7 
           4930      9.40704e+7 
           4950      9.37991e+7 
           4970      9.30289e+7 
           4990      9.14511e+7 
           5010      8.87247e+7 
           5030      8.84553e+7 
           5050      8.68594e+7 
           5070      8.67763e+7 
           5090      8.57657e+7 
           5110      8.44233e+7 
           5130      8.38207e+7 
           5150      8.20843e+7 
           5170      8.08289e+7 
           5190      8.01904e+7 
           5210      7.92858e+7 
           5230       7.7817e+7 
           5250      7.78718e+7 
           5270      7.59525e+7 
           5290      7.64724e+7 
           5310      7.45092e+7 
           5330      7.43887e+7 
           5350      7.40823e+7 
           5370      7.30808e+7 
           5390      7.22542e+7 
           5410      7.11507e+7 
           5430      7.04449e+7 
           5450      7.00214e+7 
           5470      6.91237e+7 
           5490      6.84573e+7 
           5510      6.75207e+7 
           5530      6.69556e+7 
           5550      6.63675e+7 
           5570      6.55882e+7 
           5590      6.49581e+7 
           5610      6.44491e+7 
           5630       6.3721e+7 
           5650      6.26665e+7 
           5670       6.2149e+7 
           5690      6.16652e+7 
           5710      6.10398e+7 
           5730      6.03792e+7 
           5750      5.97036e+7 
           5770      5.90901e+7 
           5790      5.83005e+7 
           5810      5.77581e+7 
           5830       5.7143e+7 
           5850      5.66165e+7 
           5870      5.57568e+7 
           5890      5.51193e+7 
           5910      5.47986e+7 
           5930      5.43043e+7 
           5950      5.33918e+7 
           5970       5.3041e+7 
           5990      5.23377e+7 
           6010      5.20359e+7 
           6030      5.15296e+7 
           6050       5.0926e+7 
           6070      5.04212e+7 
           6090      4.98986e+7 
           6110      4.94221e+7 
           6130      4.88926e+7 
           6150      4.78122e+7 
           6170      4.78986e+7 
           6190      4.74607e+7 
           6210      4.70031e+7 
           6230      4.64369e+7 
           6250      4.55017e+7 
           6270      4.56095e+7 
           6290      4.51276e+7 
           6310      4.45146e+7 
           6330      4.42065e+7 
           6350      4.32268e+7 
           6370      4.29577e+7 
           6390       4.2859e+7 
           6410      4.23765e+7 
           6430      4.20449e+7 
           6450      4.13083e+7 
           6470      4.12927e+7 
           6490        4.067e+7 
           6510      4.02543e+7 
           6530      3.97422e+7 
           6550      3.72598e+7 
           6570      3.07406e+7 
           6590      3.83677e+7 
           6610      3.84299e+7 
           6630      3.81255e+7 
           6650      3.78369e+7 
           6670      3.74114e+7 
           6690      3.70752e+7 
           6710       3.6775e+7 
           6730       3.6373e+7 
           6750      3.60726e+7 
           6770      3.57529e+7 
           6790      3.53914e+7 
           6810      3.50701e+7 
           6830      3.46955e+7 
           6850      3.43944e+7 
           6870      3.40835e+7 
           6890      3.37859e+7 
           6910      3.34525e+7 
           6930       3.3106e+7 
           6950      3.28533e+7 
           6970       3.2548e+7 
           6990      3.22802e+7 
           7010      3.19023e+7 
           7030      3.16898e+7 
           7050      3.13215e+7 
           7070      3.10707e+7 
           7090      3.08417e+7 
           7110      3.04576e+7 
           7130      3.02373e+7 
           7150      2.99865e+7 
           7170       2.9725e+7 
           7190      2.94629e+7 
           7210      2.92134e+7 
           7230      2.88877e+7 
           7250      2.86533e+7 
           7270      2.84317e+7 
           7290      2.81646e+7 
           7310      2.78859e+7 
           7330      2.76751e+7 
           7350      2.74654e+7 
           7370      2.72305e+7 
           7390      2.69812e+7 
           7410      2.67287e+7 
           7430      2.64165e+7 
           7450      2.62212e+7 
           7470      2.59244e+7 
           7490       2.5772e+7 
           7510        2.552e+7 
           7530      2.53787e+7 
           7550       2.5169e+7 
           7570      2.49508e+7 
           7590      2.47305e+7 
           7610      2.45454e+7 
           7630      2.43237e+7 
           7650      2.40789e+7 
           7670      2.38971e+7 
           7690      2.36946e+7 
           7710      2.34622e+7 
           7730      2.33063e+7 
           7750       2.3109e+7 
           7770       2.2481e+7 
           7790      2.27221e+7 
           7810      2.25515e+7 
           7830      2.23479e+7 
           7850      2.20936e+7 
           7870      2.18689e+7 
           7890      2.16347e+7 
           7910      2.16013e+7 
           7930      2.14476e+7 
           7950       2.1155e+7 
           7970      2.10982e+7 
           7990      2.06752e+7 
           8010       2.0753e+7 
           8030      2.05784e+7 
           8050      2.04141e+7 
           8070      2.02436e+7 
           8090      2.00809e+7 
           8110      1.99075e+7 
           8130      1.97647e+7 
           8150      1.96077e+7 
           8170      1.94537e+7 
           8190      1.92251e+7 
           8210      1.90723e+7 
           8230      1.88841e+7 
           8250      1.88751e+7 
           8270      1.88059e+7 
           8290      1.85947e+7 
           8310        1.849e+7 
           8330      1.82531e+7 
           8350      1.81215e+7 
           8370      1.78565e+7 
           8390      1.76997e+7 
           8410      1.74745e+7 
           8430      1.76011e+7 
           8450       1.7301e+7 
           8470      1.66979e+7 
           8490      1.79814e+7 
           8510      1.63046e+7 
           8530      1.82025e+7 
           8550      1.57324e+7 
           8570      1.83936e+7 
           8590      1.70679e+7 
           8610      1.65425e+7 
           8630      1.85884e+7 
           8650      1.81722e+7 
           8670      1.49135e+7 
           8690      1.82597e+7 
           8710       1.8532e+7 
           8730      1.81141e+7 
           8750      1.45481e+7 
           8770       1.7504e+7 
           8790      1.80358e+7 
           8810      1.79089e+7 
           8830       1.7593e+7 
           8850      1.66776e+7 
           8870      1.40863e+7 
           8890      1.71585e+7 
           8910       1.7176e+7 
           8930      1.70411e+7 
           8950       1.7029e+7 
           8970      1.68576e+7 
           8990      1.65538e+7 
           9010      1.37981e+7 
           9030      1.51402e+7 
           9050      1.62508e+7 
           9070      1.60039e+7 
           9090      1.58825e+7 
           9110      1.59149e+7 
           9130      1.58277e+7 
           9150      1.57747e+7 
           9170      1.55935e+7 
           9190       1.5338e+7 
