# Kurucz ODFNEW /NOVER (2003)
# teff = 3750 K (value for the effective temperature for the model. Temperatures are given in K)
# logg = 4.5 log(cm/s2) (value for Log(G) for the model.)
# meta = -2.5  (value for the Metallicity for the model.)
# lh = 1.25  (l/Hp where l is the  mixing length of the convective element and Hp is the pressure scale height)
# vtur = 2 km/s (Microturbulence velocity)
# alpha = 0.4  (Alpha)
#
# column 1: WAVELENGTH (ANGSTROM), Wavelength in Angstrom
# column 2: FLUX (ERG/CM2/S/A), Flux in erg/cm2/s/A
          147.2     1.73866e-35 
            151     1.65225e-35 
          155.2     1.56403e-35 
          158.8     1.49392e-35 
            162     1.43549e-35 
            166     1.36714e-35 
          170.3     1.29897e-35 
          173.4     1.25294e-35 
          176.8     1.20522e-35 
          180.2     1.16017e-35 
          181.7     1.14109e-35 
          186.1     1.08777e-35 
            191     1.03267e-35 
          193.9     1.00201e-35 
          198.4     9.57076e-36 
          201.8     9.25097e-36 
            205     8.96441e-36 
          210.5     8.50208e-36 
          216.2     8.05969e-36 
          219.8     7.79784e-36 
            223     7.57565e-36 
          226.8     7.32392e-36 
            230     7.12154e-36 
            234     6.88015e-36 
            240     6.54044e-36 
          246.5     6.20006e-36 
          252.4     5.91358e-36 
          256.8     5.71267e-36 
            260     5.57292e-36 
            264     5.40532e-36 
          268.5     5.22566e-36 
          273.5     5.03634e-36 
          278.5     4.85712e-36 
            284     4.67082e-36 
            290     4.47954e-36 
            296     4.29978e-36 
            301     4.15812e-36 
            308     3.97126e-36 
            318     3.72542e-36 
            328     3.50172e-36 
            338     3.29759e-36 
            348     3.11079e-36 
            357     2.95592e-36 
            366     2.81234e-36 
            375     2.67896e-36 
            385     2.54161e-36 
            395     2.41455e-36 
            405     2.29678e-36 
            414     2.19801e-36 
            422     2.11546e-36 
            430     2.03748e-36 
            441      1.9371e-36 
            451     1.85215e-36 
            460     1.78038e-36 
            470     1.70543e-36 
            480     1.63511e-36 
            490     1.56905e-36 
            500     1.50692e-36 
            506     1.47139e-36 
            512     1.43711e-36 
            520     1.39323e-36 
            530     1.34115e-36 
            540     1.29194e-36 
            550     1.24539e-36 
            560     1.20131e-36 
            570     1.15952e-36 
            580     1.11989e-36 
            590     1.08224e-36 
            600     1.04647e-36 
            610     1.01244e-36 
            620     9.80045e-37 
            630      9.4918e-37 
            640      9.1975e-37 
            650     8.91667e-37 
            658     8.70117e-37 
            665     8.51895e-37 
            675     8.26841e-37 
            685     8.02876e-37 
            695     7.79938e-37 
            705     7.57969e-37 
            716     7.34858e-37 
            726     7.14754e-37 
            735     6.97357e-37 
            745     6.78761e-37 
            755       6.609e-37 
            765     6.43734e-37 
            775     6.27229e-37 
            785      6.1135e-37 
            795     5.96067e-37 
            805      5.8135e-37 
            815     5.67171e-37 
            825     5.53505e-37 
            835     5.40327e-37 
            845     5.27614e-37 
            855     5.15344e-37 
            865     5.03498e-37 
            875     4.92055e-37 
            885     4.80998e-37 
            895     4.70309e-37 
            905     4.59973e-37 
            915     1.62882e-18 
            925     6.38475e-18 
            935     1.27577e-17 
            945     2.58173e-17 
            955     4.89611e-17 
            965     1.17082e-16 
            975     2.20151e-16 
            985     3.94076e-16 
            995     8.59873e-16 
           1005     1.27268e-15 
           1015      2.2473e-15 
           1025       3.859e-15 
           1035     7.91036e-15 
           1045      1.3583e-14 
           1055     2.36095e-14 
           1065     3.71274e-14 
           1075     6.25815e-14 
           1085     1.17874e-13 
           1095     1.61849e-13 
           1105     3.05212e-13 
           1115     5.01387e-13 
           1125     7.59189e-13 
           1135     1.41281e-12 
           1145     2.16804e-12 
           1155     3.44218e-12 
           1165     5.30526e-12 
           1175     9.90541e-12 
           1185     1.27083e-11 
           1195     2.06567e-11 
           1205      2.8262e-11 
           1215     3.66132e-11 
           1225     6.15043e-11 
           1235       1.035e-10 
           1245     1.75395e-10 
           1255     3.47447e-10 
           1265     7.08387e-10 
           1275     8.90547e-10 
           1285      2.76588e-9 
           1295      3.12454e-9 
           1305      1.20468e-8 
           1315      1.77441e-8 
           1325      3.72754e-8 
           1335      3.60575e-8 
           1345      7.48804e-8 
           1355      9.55599e-8 
           1365      1.75305e-7 
           1375      2.31363e-7 
           1385      2.76563e-7 
           1395      4.00536e-7 
           1405      5.51766e-7 
           1415      1.00778e-6 
           1425      1.00296e-6 
           1435      1.87063e-6 
           1442       3.2184e-6 
           1447      2.10909e-6 
           1455      3.13997e-6 
           1465      3.92382e-6 
           1475      4.81937e-6 
           1485      5.52548e-6 
           1495      1.08571e-5 
           1505      1.71082e-5 
           1512      1.02333e-5 
           1517      1.01814e-5 
           1525      2.03979e-5 
           1535      4.38154e-5 
           1545      2.47673e-5 
           1555      4.16268e-5 
           1565      3.51592e-5 
           1575      5.31829e-5 
           1585      5.27764e-5 
           1595      4.85612e-5 
           1605      5.10349e-5 
           1615      6.62946e-5 
           1625      7.73825e-5 
           1635     0.000116039 
           1645     0.000223516 
           1655     0.000172848 
           1665     0.000424656 
           1672      0.00038099 
           1677     0.000766887 
           1685      0.00117408 
           1695       0.0018481 
           1705      0.00230442 
           1715      0.00303525 
           1725      0.00447866 
           1735      0.00561022 
           1745      0.00807036 
           1755      0.00790502 
           1765       0.0110665 
           1775      0.00881779 
           1785       0.0262391 
           1795       0.0170977 
           1805       0.0430796 
           1815       0.0231866 
           1825       0.0407131 
           1835       0.0358501 
           1845       0.0566418 
           1855       0.0331357 
           1865        0.102897 
           1875       0.0846531 
           1885        0.122215 
           1895        0.155254 
           1905        0.166864 
           1915        0.290404 
           1925        0.191576 
           1935       0.0932581 
           1945        0.317793 
           1955        0.545584 
           1967        0.564789 
           1976        0.667843 
           1984        0.989807 
           1995        0.776758 
           2005         1.00807 
           2015         1.12873 
           2025        0.701685 
           2035         1.22765 
           2045         1.21981 
           2055         1.48648 
           2065         1.29666 
           2074        0.858753 
           2078         1.72901 
           2085         2.29102 
           2095         3.99928 
           2105         4.66934 
           2115         4.83727 
           2125         5.40797 
           2135         8.84006 
           2145          4.6433 
           2155          7.6177 
           2165         5.57038 
           2175         6.28012 
           2185         5.45032 
           2195         13.1487 
           2205         7.99248 
           2215         11.1616 
           2225         7.73834 
           2235         23.3569 
           2245         24.9724 
           2255         37.9572 
           2265         7.96605 
           2275         21.3651 
           2285         26.6001 
           2295          55.957 
           2305         6.90611 
           2315         82.6745 
           2325         49.7776 
           2335          135.07 
           2345         90.3283 
           2355         30.6409 
           2365          61.352 
           2375         42.6298 
           2385         135.778 
           2395         106.024 
           2405         324.433 
           2415         144.989 
           2425         141.745 
           2435         304.905 
           2445         507.984 
           2455         624.636 
           2465          238.77 
           2475         417.404 
           2485         80.5714 
           2495         111.645 
           2505         241.424 
           2513         118.224 
           2518         82.8644 
           2525         147.315 
           2535         645.975 
           2545         810.864 
           2555         1560.75 
           2565          853.41 
           2575         1249.79 
           2585         1217.99 
           2595         1174.66 
           2605         1685.45 
           2615         1391.51 
           2625         2300.08 
           2635         3782.74 
           2645         3342.84 
           2655         4371.73 
           2665         4228.29 
           2675          2807.3 
           2685         4127.38 
           2695         2838.45 
           2705         4392.54 
           2715         3520.22 
           2725         2397.73 
           2735          2938.9 
           2745         3585.54 
           2755         3499.25 
           2765          4886.2 
           2775         4885.83 
           2785         3153.24 
           2795         2610.72 
           2805         2702.65 
           2815         2562.96 
           2825         2153.99 
           2835         1336.12 
           2845         529.719 
           2855         154.569 
           2865         1074.58 
           2875         2066.82 
           2885         3298.05 
           2895         4768.78 
           2910         6945.92 
           2930          9442.7 
           2950         9378.73 
           2970         9436.07 
           2990         10687.4 
           3010         10714.2 
           3030         12995.9 
           3050         15371.7 
           3070         10782.8 
           3090         8281.41 
           3110         13251.6 
           3130           14659 
           3150         17631.6 
           3170         27493.4 
           3190           27226 
           3210           33033 
           3230         34724.2 
           3250         49409.1 
           3270         65316.1 
           3290         64987.3 
           3310         53682.4 
           3330         47651.3 
           3350         43099.4 
           3370         28914.9 
           3390           42144 
           3410         53003.4 
           3430         67206.7 
           3450         59111.9 
           3470         65353.3 
           3490         82703.5 
           3510         99468.6 
           3530          103073 
           3550          137509 
           3570         84288.1 
           3590         78145.6 
           3610          102308 
           3630          120219 
           3640          129511 
           3650          127795 
           3670          167447 
           3690          143810 
           3710          119171 
           3730         60700.1 
           3750         78547.2 
           3770          154014 
           3790          170033 
           3810          167700 
           3830         83261.6 
           3850          137867 
           3870          132753 
           3890          134167 
           3910          149991 
           3930         58123.3 
           3950          118586 
           3970         79902.2 
           3990          206208 
           4010          261718 
           4030          227364 
           4050          261397 
           4070          248964 
           4090          263876 
           4110          138420 
           4130          182301 
           4150          148003 
           4170          162478 
           4190          187664 
           4210          179806 
           4230          133274 
           4250          225527 
           4270          224328 
           4290          227236 
           4310          249996 
           4330          326980 
           4350          344407 
           4370          351559 
           4390          334387 
           4410          352049 
           4430          372028 
           4450          383378 
           4470          421266 
           4490          433069 
           4510          456074 
           4530          408363 
           4550          449892 
           4570          464614 
           4590          474432 
           4610          486545 
           4630          504722 
           4650          487130 
           4670          512886 
           4690          508230 
           4710          499779 
           4730          498205 
           4750          489811 
           4770          447878 
           4790          455016 
           4810          527054 
           4830          523748 
           4850          554336 
           4870          558989 
           4890          562508 
           4910          565857 
           4930          544133 
           4950          531457 
           4970          526350 
           4990          476901 
           5010          435834 
           5030          439492 
           5050          412279 
           5070          386052 
           5090          374794 
           5110          348580 
           5130          334587 
           5150          303599 
           5170          301523 
           5190          382490 
           5210          416422 
           5230          649807 
           5250          671204 
           5270          614709 
           5290          681285 
           5310          705904 
           5330          663791 
           5350          692598 
           5370          692635 
           5390          693754 
           5410          691080 
           5430          688081 
           5450          687353 
           5470          720272 
           5490          723358 
           5510          708847 
           5530          742325 
           5550          748065 
           5570          747329 
           5590          718735 
           5610          752367 
           5630          781190 
           5650          797903 
           5670          797709 
           5690          802700 
           5710          801073 
           5730          811761 
           5750          818020 
           5770          821185 
           5790          823826 
           5810          826557 
           5830          833332 
           5850          827819 
           5870          828682 
           5890          613427 
           5910          823554 
           5930          842177 
           5950          846911 
           5970          854057 
           5990          857950 
           6010          861834 
           6030          866622 
           6050          869064 
           6070          870227 
           6090          871591 
           6110          866045 
           6130          847200 
           6150          879847 
           6170          824088 
           6190          884510 
           6210          885914 
           6230          885505 
           6250          879066 
           6270          885637 
           6290          896801 
           6310          900303 
           6330          903912 
           6350          910242 
           6370          911118 
           6390          913044 
           6410          911463 
           6430          909429 
           6450          890142 
           6470          895609 
           6490          900320 
           6510          919776 
           6530          929081 
           6550          925612 
           6570          923214 
           6590          932800 
           6610          934579 
           6630          937948 
           6650          939129 
           6670          937401 
           6690          940138 
           6710          938475 
           6730          942886 
           6750          940366 
           6770          946901 
           6790          946969 
           6810          949295 
           6830          951577 
           6850          953254 
           6870          952422 
           6890          954836 
           6910          956102 
           6930          956553 
           6950          956204 
           6970          959332 
           6990          958862 
           7010          961064 
           7030          961092 
           7050          963681 
           7070          959669 
           7090          959508 
           7110          960005 
           7130          959296 
           7150          945094 
           7170          961959 
           7190          963975 
           7210          954721 
           7230          967104 
           7250          960629 
           7270          968751 
           7290          970957 
           7310          970093 
           7330          963754 
           7350          965072 
           7370          969343 
           7390          969829 
           7410          969952 
           7430          969651 
           7450          969950 
           7470          971177 
           7490          971772 
           7510          972080 
           7530          973169 
           7550          972514 
           7570          973496 
           7590          973212 
           7610          972982 
           7630          973388 
           7650          972554 
           7670          954297 
           7690          969789 
           7710          960961 
           7730          971883 
           7750          969382 
           7770          971762 
           7790          971807 
           7810          971962 
           7830          970752 
           7850          970030 
           7870          971006 
           7890          970446 
           7910          969519 
           7930          969008 
           7950          967238 
           7970          968736 
           7990          967551 
           8010          967129 
           8030          966407 
           8050          965041 
           8070          964660 
           8090          964732 
           8110          964103 
           8130          963583 
           8150          962944 
           8170          961960 
           8190          945697 
           8210          959372 
           8230          958831 
           8250          958339 
           8270          957951 
           8290          957171 
           8310          955352 
           8330          944472 
           8350          953407 
           8370          948856 
           8390          920896 
           8410          945018 
           8430          917850 
           8450          948280 
           8470          943177 
           8490          937432 
           8510          913627 
           8530          935133 
           8550          850009 
           8570          941299 
