# Kurucz ODFNEW /NOVER (2003)
# teff = 23000 K (value for the effective temperature for the model. Temperatures are given in K)
# logg = 3 log(cm/s2) (value for Log(G) for the model.)
# meta = -1  (value for the Metallicity for the model.)
# lh = 1.25  (l/Hp where l is the  mixing length of the convective element and Hp is the pressure scale height)
# vtur = 2 km/s (Microturbulence velocity)
# alpha = 0  (Alpha)
#
# column 1: WAVELENGTH (ANGSTROM), Wavelength in Angstrom
# column 2: FLUX (ERG/CM2/S/A), Flux in erg/cm2/s/A
          147.2     4.72445e-16 
            151     2.48482e-15 
          155.2     1.41795e-14 
          158.8     5.86619e-14 
            162     1.96705e-13 
            166     8.35897e-13 
          170.3     3.66817e-12 
          173.4     1.01769e-11 
          176.8     2.98725e-11 
          180.2     8.41398e-11 
          181.7     1.31202e-10 
          186.1     4.63509e-10 
            191      1.76277e-9 
          193.9      3.76096e-9 
          198.4      1.16457e-8 
          201.8      2.64346e-8 
            205      5.57353e-8 
          210.5      1.90175e-7 
          216.2      6.34023e-7 
          219.8      1.31144e-6 
            223      2.45156e-6 
          226.8      5.03307e-6 
            230     0.000474465 
            234      0.00115765 
            240      0.00282403 
          246.5      0.00713503 
          252.4       0.0160039 
          256.8       0.0257516 
            260       0.0426406 
            264         0.06848 
          268.5        0.116093 
          273.5        0.203443 
          278.5        0.350189 
            284         0.63369 
            290         1.14699 
            296         2.02829 
            301         3.14865 
            308         5.52084 
            318         13.8623 
            328         29.6463 
            338         62.7761 
            348          124.45 
            357         250.449 
            366         444.293 
            375         728.009 
            385          1263.2 
            395          2126.8 
            405         3440.35 
            414         5254.33 
            422         7366.87 
            430         10403.4 
            441         16248.6 
            451           23839 
            460         32869.5 
            470         47008.5 
            480           65375 
            490         90347.6 
            500          122916 
            506      1.07312e+6 
            512      3.82357e+6 
            520      4.49094e+6 
            530      5.65322e+6 
            540      6.09731e+6 
            550       8.4974e+6 
            560      9.98393e+6 
            570      1.20614e+7 
            580       1.1901e+7 
            590      1.54826e+7 
            600      1.80412e+7 
            610      2.11803e+7 
            620      2.38523e+7 
            630      2.68789e+7 
            640      2.84074e+7 
            650      2.94794e+7 
            658       3.6136e+7 
            665      3.92715e+7 
            675      4.14495e+7 
            685      4.46439e+7 
            695      5.32035e+7 
            705      5.60958e+7 
            716      6.34594e+7 
            726      6.76614e+7 
            735       7.2016e+7 
            745      8.08405e+7 
            755       8.7371e+7 
            765      9.45066e+7 
            775      1.02514e+8 
            785      1.10905e+8 
            795      1.17366e+8 
            805      1.24676e+8 
            815       1.3037e+8 
            825      1.41686e+8 
            835      1.39647e+8 
            845      1.54417e+8 
            855      1.62349e+8 
            865      1.73178e+8 
            875      1.85701e+8 
            885      1.98782e+8 
            895      2.09212e+8 
            905      2.15152e+8 
            915      4.43193e+8 
            925       5.3615e+9 
            935     1.01178e+10 
            945     1.47675e+10 
            955     1.60874e+10 
            965     1.75903e+10 
            975      6.44814e+9 
            985     1.58178e+10 
            995      1.5248e+10 
           1005     1.65906e+10 
           1015      1.6541e+10 
           1025     1.16727e+10 
           1035     1.41952e+10 
           1045      1.8174e+10 
           1055      1.7163e+10 
           1065     1.52455e+10 
           1075     1.67021e+10 
           1085      1.5281e+10 
           1095     1.67891e+10 
           1105     1.57458e+10 
           1115     1.57043e+10 
           1125     1.39782e+10 
           1135      1.5869e+10 
           1145     1.48315e+10 
           1155     1.52434e+10 
           1165     1.52304e+10 
           1175     1.13459e+10 
           1185     1.46179e+10 
           1195     1.38525e+10 
           1205     1.10339e+10 
           1215      8.89109e+9 
           1225     1.32508e+10 
           1235     1.38618e+10 
           1245     1.36262e+10 
           1255     1.34429e+10 
           1265     1.33261e+10 
           1275     1.35295e+10 
           1285       1.327e+10 
           1295     1.12247e+10 
           1305     1.17656e+10 
           1315     1.28015e+10 
           1325     1.22611e+10 
           1335     1.18558e+10 
           1345     1.19413e+10 
           1355     1.19838e+10 
           1365     1.14574e+10 
           1375     1.12533e+10 
           1385     1.11656e+10 
           1395      9.44212e+9 
           1405      9.85725e+9 
           1415      1.0465e+10 
           1425     1.01832e+10 
           1435     1.03105e+10 
           1442      1.0415e+10 
           1447      1.0232e+10 
           1455     1.00376e+10 
           1465      9.67861e+9 
           1475      9.62349e+9 
           1485      9.50286e+9 
           1495      9.32492e+9 
           1505      8.88988e+9 
           1512       8.3134e+9 
           1517      8.49753e+9 
           1525       8.5152e+9 
           1535      7.72317e+9 
           1545      7.73258e+9 
           1555      7.40442e+9 
           1565      7.76816e+9 
           1575      7.98496e+9 
           1585      7.88917e+9 
           1595       7.8563e+9 
           1605      7.59477e+9 
           1615      7.44872e+9 
           1625      7.43066e+9 
           1635      7.58892e+9 
           1645      7.43846e+9 
           1655      7.40867e+9 
           1665      7.37824e+9 
           1672      7.18722e+9 
           1677      7.50196e+9 
           1685      7.31134e+9 
           1695       7.0605e+9 
           1705      6.86479e+9 
           1715      6.60667e+9 
           1725      6.55182e+9 
           1735      6.61367e+9 
           1745      6.49429e+9 
           1755      6.51113e+9 
           1765      6.34843e+9 
           1775      6.13636e+9 
           1785      6.16771e+9 
           1795      6.20032e+9 
           1805      6.19818e+9 
           1815      5.80917e+9 
           1825       5.8968e+9 
           1835      5.78471e+9 
           1845      5.36647e+9 
           1855      5.35234e+9 
           1865      5.43114e+9 
           1875      5.52145e+9 
           1885      5.04964e+9 
           1895      4.74344e+9 
           1905      5.03271e+9 
           1915       4.8302e+9 
           1925      4.64595e+9 
           1935      4.83883e+9 
           1945      4.90801e+9 
           1955      4.51037e+9 
           1967      4.75901e+9 
           1976      4.92677e+9 
           1984      4.62775e+9 
           1995      4.52044e+9 
           2005      4.59813e+9 
           2015      4.60178e+9 
           2025      4.66816e+9 
           2035      4.36377e+9 
           2045      4.36921e+9 
           2055      4.21207e+9 
           2065      4.21704e+9 
           2074      4.40228e+9 
           2078       4.1196e+9 
           2085      4.21929e+9 
           2095       4.0446e+9 
           2105      4.13439e+9 
           2115      4.11148e+9 
           2125      4.15688e+9 
           2135      4.08349e+9 
           2145      3.91007e+9 
           2155      4.00155e+9 
           2165      3.97102e+9 
           2175      3.90919e+9 
           2185      3.84468e+9 
           2195      3.84085e+9 
           2205      3.80021e+9 
           2215      3.75783e+9 
           2225      3.68129e+9 
           2235       3.6227e+9 
           2245      3.62518e+9 
           2255      3.55057e+9 
           2265      3.54257e+9 
           2275      3.50116e+9 
           2285      3.47635e+9 
           2295      3.32103e+9 
           2305      3.38381e+9 
           2315      3.31478e+9 
           2325      3.27727e+9 
           2335      3.21402e+9 
           2345      3.20976e+9 
           2355       3.1867e+9 
           2365      3.14991e+9 
           2375      3.10173e+9 
           2385      3.06855e+9 
           2395      3.03116e+9 
           2405       2.9965e+9 
           2415      2.95294e+9 
           2425      2.94074e+9 
           2435      2.88842e+9 
           2445        2.868e+9 
           2455      2.84787e+9 
           2465      2.81067e+9 
           2475      2.77478e+9 
           2485      2.73785e+9 
           2495      2.53772e+9 
           2505      2.66994e+9 
           2513      2.59313e+9 
           2518      2.63156e+9 
           2525      2.61563e+9 
           2535      2.58666e+9 
           2545      2.52554e+9 
           2555      2.52266e+9 
           2565      2.49633e+9 
           2575       2.4801e+9 
           2585      2.44945e+9 
           2595      2.42367e+9 
           2605      2.40804e+9 
           2615      2.38024e+9 
           2625      2.35661e+9 
           2635      2.32829e+9 
           2645      2.30512e+9 
           2655      2.28303e+9 
           2665      2.24556e+9 
           2675      2.22591e+9 
           2685      2.21484e+9 
           2695      2.16508e+9 
           2705      2.15554e+9 
           2715      2.13683e+9 
           2725      2.10443e+9 
           2735      2.09361e+9 
           2745      2.06088e+9 
           2755      2.04481e+9 
           2765      2.01412e+9 
           2775       2.0104e+9 
           2785      1.98549e+9 
           2795      1.93413e+9 
           2805      1.93463e+9 
           2815        1.927e+9 
           2825      1.89483e+9 
           2835      1.86002e+9 
           2845      1.86628e+9 
           2855      1.84325e+9 
           2865      1.82797e+9 
           2875      1.80944e+9 
           2885      1.79185e+9 
           2895        1.771e+9 
           2910       1.7418e+9 
           2930      1.70792e+9 
           2950      1.66363e+9 
           2970      1.63993e+9 
           2990      1.60589e+9 
           3010      1.56773e+9 
           3030      1.54501e+9 
           3050      1.51542e+9 
           3070      1.48647e+9 
           3090      1.44772e+9 
           3110      1.42811e+9 
           3130      1.40018e+9 
           3150       1.3738e+9 
           3170      1.34595e+9 
           3190       1.3128e+9 
           3210      1.29638e+9 
           3230      1.27085e+9 
           3250      1.24787e+9 
           3270       1.2248e+9 
           3290      1.20055e+9 
           3310      1.18035e+9 
           3330      1.15819e+9 
           3350      1.13548e+9 
           3370      1.11627e+9 
           3390      1.09648e+9 
           3410      1.07685e+9 
           3430      1.05258e+9 
           3450      1.03044e+9 
           3470      1.01462e+9 
           3490      9.97088e+8 
           3510      9.83953e+8 
           3530      9.67756e+8 
           3550      9.50814e+8 
           3570       9.3756e+8 
           3590      9.15889e+8 
           3610       9.0016e+8 
           3630      8.85122e+8 
           3640      8.82625e+8 
           3650      8.64873e+8 
           3670      8.53179e+8 
           3690      8.25888e+8 
           3710      8.18075e+8 
           3730      8.13062e+8 
           3750      8.74575e+8 
           3770      8.69004e+8 
           3790      8.79003e+8 
           3810      9.01279e+8 
           3830      8.19852e+8 
           3850      8.98051e+8 
           3870      8.80668e+8 
           3890      7.86516e+8 
           3910      8.62544e+8 
           3930      8.39835e+8 
           3950      8.33163e+8 
           3970      7.30254e+8 
           3990      8.05041e+8 
           4010      7.91197e+8 
           4030      7.64111e+8 
           4050      7.69398e+8 
           4070      7.51212e+8 
           4090      7.26655e+8 
           4110      6.64201e+8 
           4130      7.12493e+8 
           4150      7.03411e+8 
           4170      6.96073e+8 
           4190       6.8616e+8 
           4210      6.76511e+8 
           4230      6.65286e+8 
           4250      6.53345e+8 
           4270      6.39532e+8 
           4290      6.32826e+8 
           4310      6.21552e+8 
           4330      5.95287e+8 
           4350      5.52317e+8 
           4370      5.92843e+8 
           4390      5.79185e+8 
           4410      5.75648e+8 
           4430      5.66911e+8 
           4450      5.59791e+8 
           4470      5.39917e+8 
           4490      5.42611e+8 
           4510      5.35531e+8 
           4530      5.27306e+8 
           4550      5.18841e+8 
           4570      5.10702e+8 
           4590      5.03454e+8 
           4610      4.95922e+8 
           4630      4.88694e+8 
           4650      4.77792e+8 
           4670      4.74088e+8 
           4690      4.67895e+8 
           4710      4.55677e+8 
           4730      4.53768e+8 
           4750      4.46615e+8 
           4770      4.42315e+8 
           4790      4.35854e+8 
           4810      4.29241e+8 
           4830      4.22738e+8 
           4850      4.08609e+8 
           4870      3.74952e+8 
           4890      4.05307e+8 
           4910      4.00058e+8 
           4930      3.89116e+8 
           4950       3.8853e+8 
           4970      3.83777e+8 
           4990      3.78347e+8 
           5010      3.68428e+8 
           5030      3.67961e+8 
           5050       3.6093e+8 
           5070      3.58001e+8 
           5090      3.53099e+8 
           5110      3.48263e+8 
           5130      3.43162e+8 
           5150      3.38584e+8 
           5170      3.34405e+8 
           5190      3.29987e+8 
           5210      3.25473e+8 
           5230       3.2124e+8 
           5250      3.17006e+8 
           5270      3.12733e+8 
           5290       3.0869e+8 
           5310      3.04578e+8 
           5330      3.00653e+8 
           5350      2.96672e+8 
           5370      2.92924e+8 
           5390      2.89069e+8 
           5410      2.85352e+8 
           5430      2.81657e+8 
           5450      2.78021e+8 
           5470       2.7448e+8 
           5490      2.70984e+8 
           5510      2.67594e+8 
           5530      2.64159e+8 
           5550      2.60876e+8 
           5570      2.57561e+8 
           5590      2.54359e+8 
           5610      2.51148e+8 
           5630      2.48048e+8 
           5650      2.44808e+8 
           5670      2.41525e+8 
           5690      2.38248e+8 
           5710      2.35877e+8 
           5730      2.32982e+8 
           5750       2.2994e+8 
           5770      2.27398e+8 
           5790      2.24617e+8 
           5810      2.21901e+8 
           5830      2.19129e+8 
           5850      2.16554e+8 
           5870      2.09406e+8 
           5890      2.10995e+8 
           5910      2.08771e+8 
           5930      2.06187e+8 
           5950      2.03717e+8 
           5970      2.01509e+8 
           5990         1.99e+8 
           6010      1.96739e+8 
           6030       1.9438e+8 
           6050      1.92139e+8 
           6070      1.89935e+8 
           6090      1.87724e+8 
           6110      1.85539e+8 
           6130      1.83398e+8 
           6150      1.81171e+8 
           6170      1.79137e+8 
           6190      1.77116e+8 
           6210      1.75108e+8 
           6230      1.73112e+8 
           6250      1.71099e+8 
           6270      1.69176e+8 
           6290      1.67273e+8 
           6310      1.65363e+8 
           6330       1.6352e+8 
           6350      1.61604e+8 
           6370      1.59848e+8 
           6390      1.58074e+8 
           6410      1.56319e+8 
           6430      1.54592e+8 
           6450      1.52874e+8 
           6470      1.51112e+8 
           6490      1.49448e+8 
           6510      1.47874e+8 
           6530      1.46192e+8 
           6550      1.42929e+8 
           6570      1.30296e+8 
           6590      1.40783e+8 
           6610       1.3995e+8 
           6630      1.38472e+8 
           6650      1.37027e+8 
           6670      1.34674e+8 
           6690      1.33247e+8 
           6710      1.32688e+8 
           6730      1.31219e+8 
           6750      1.29888e+8 
           6770      1.28506e+8 
           6790       1.2699e+8 
           6810      1.25782e+8 
           6830      1.24457e+8 
           6850      1.23169e+8 
           6870      1.21878e+8 
           6890      1.20585e+8 
           6910      1.19319e+8 
           6930      1.18098e+8 
           6950      1.16881e+8 
           6970      1.15677e+8 
           6990      1.14476e+8 
           7010      1.13302e+8 
           7030       1.1214e+8 
           7050      1.10997e+8 
           7070      1.08335e+8 
           7090      1.08744e+8 
           7110      1.07626e+8 
           7130      1.06541e+8 
           7150      1.05475e+8 
           7170      1.04389e+8 
           7190      1.03357e+8 
           7210      1.02321e+8 
           7230      1.00717e+8 
           7250      1.00263e+8 
           7270      9.92914e+7 
           7290      9.76061e+7 
           7310      9.73124e+7 
           7330      9.63684e+7 
           7350      9.54193e+7 
           7370       9.4479e+7 
           7390      9.35544e+7 
           7410      9.26384e+7 
           7430      9.17309e+7 
           7450      9.08522e+7 
           7470      8.99275e+7 
           7490      8.90987e+7 
           7510       8.8204e+7 
           7530      8.73839e+7 
           7550      8.65448e+7 
           7570      8.57134e+7 
           7590      8.48961e+7 
           7610      8.40731e+7 
           7630      8.32835e+7 
           7650      8.24881e+7 
           7670      8.17063e+7 
           7690      8.09315e+7 
           7710      8.01636e+7 
           7730      7.94151e+7 
           7750      7.86608e+7 
           7770       7.7882e+7 
           7790      7.72032e+7 
           7810      7.64254e+7 
           7830      7.57712e+7 
           7850      7.51289e+7 
           7870       7.4419e+7 
           7890      7.36791e+7 
           7910      7.30541e+7 
           7930      7.22847e+7 
           7950      7.15579e+7 
           7970      7.08671e+7 
           7990      7.02885e+7 
           8010       6.9615e+7 
           8030      6.90116e+7 
           8050      6.84249e+7 
           8070      6.78316e+7 
           8090      6.70995e+7 
           8110       6.6494e+7 
           8130      6.60419e+7 
           8150      6.53211e+7 
           8170      6.48719e+7 
           8190      6.42185e+7 
           8210      6.34085e+7 
           8230      6.30006e+7 
           8250      6.24741e+7 
           8270      6.15995e+7 
           8290      6.12861e+7 
           8310      6.07678e+7 
           8330      6.02212e+7 
           8350      5.94468e+7 
           8370      5.89856e+7 
           8390      5.85334e+7 
           8410      5.79837e+7 
           8430      5.74385e+7 
           8450      5.67079e+7 
           8470      5.60781e+7 
           8490      5.62376e+7 
           8510      5.48447e+7 
           8530      5.55353e+7 
           8550      5.31938e+7 
           8570      5.53207e+7 
           8590      5.28578e+7 
