# Kurucz ODFNEW /NOVER (2003)
# teff = 22000 K (value for the effective temperature for the model. Temperatures are given in K)
# logg = 3.5 log(cm/s2) (value for Log(G) for the model.)
# meta = -1.5  (value for the Metallicity for the model.)
# lh = 1.25  (l/Hp where l is the  mixing length of the convective element and Hp is the pressure scale height)
# vtur = 2 km/s (Microturbulence velocity)
# alpha = 0.4  (Alpha)
#
# column 1: WAVELENGTH (ANGSTROM), Wavelength in Angstrom
# column 2: FLUX (ERG/CM2/S/A), Flux in erg/cm2/s/A
          147.2     1.29186e-17 
            151     7.47527e-17 
          155.2     4.73214e-16 
          158.8     2.13795e-15 
            162     7.74273e-15 
            166     3.61431e-14 
          170.3     1.75011e-13 
          173.4     5.19909e-13 
          176.8     1.64307e-12 
          180.2     4.97259e-12 
          181.7     7.99904e-12 
          186.1     3.08644e-11 
            191      1.2896e-10 
          193.9     2.90233e-10 
          198.4     9.74016e-10 
          201.8      2.34447e-9 
            205      5.21505e-9 
          210.5      1.94383e-8 
          216.2      7.06367e-8 
          219.8      1.53859e-7 
            223      3.00738e-7 
          226.8        6.498e-7 
            230      7.42919e-6 
            234      1.81141e-5 
            240      4.95399e-5 
          246.5     0.000139216 
          252.4     0.000343006 
          256.8     0.000626223 
            260      0.00101494 
            264      0.00174884 
          268.5      0.00315896 
          273.5       0.0059459 
          278.5       0.0109645 
            284       0.0209701 
            290       0.0411836 
            296       0.0785097 
            301        0.131633 
            308        0.257091 
            318        0.678846 
            328          1.6261 
            338         3.73122 
            348         8.10019 
            357         15.7882 
            366         29.6645 
            375         53.3355 
            385         99.6411 
            395         179.198 
            405          312.89 
            414         505.475 
            422          755.43 
            430         1111.59 
            441         1856.77 
            451         2890.47 
            460         4213.46 
            470         6300.88 
            480         9235.27 
            490         13327.1 
            500         18919.4 
            506          154938 
            512          476545 
            520          595076 
            530          828939 
            540          913117 
            550      1.31725e+6 
            560      1.58356e+6 
            570       1.9582e+6 
            580      1.98041e+6 
            590      2.64468e+6 
            600      3.28194e+6 
            610      3.93597e+6 
            620      4.53996e+6 
            630      5.31901e+6 
            640      5.93873e+6 
            650      6.76383e+6 
            658      7.85855e+6 
            665      8.55133e+6 
            675      9.43178e+6 
            685      1.05907e+7 
            695      1.23948e+7 
            705      1.36882e+7 
            716      1.55981e+7 
            726      1.71477e+7 
            735      1.89081e+7 
            745      2.11997e+7 
            755      2.34011e+7 
            765       2.5658e+7 
            775      2.83163e+7 
            785       3.1023e+7 
            795      3.35181e+7 
            805      3.64594e+7 
            815      3.92375e+7 
            825      4.27588e+7 
            835      4.48174e+7 
            845      4.90538e+7 
            855      5.24981e+7 
            865      5.66284e+7 
            875      6.09311e+7 
            885      6.54734e+7 
            895      6.97327e+7 
            905      7.28551e+7 
            915        1.289e+8 
            925      1.33428e+9 
            935      4.26422e+9 
            945     1.04401e+10 
            955     1.31368e+10 
            965     1.62222e+10 
            975      5.69557e+9 
            985     1.67839e+10 
            995     1.58576e+10 
           1005     1.66234e+10 
           1015     1.58236e+10 
           1025      6.67956e+9 
           1035      1.3552e+10 
           1045     1.74409e+10 
           1055     1.67582e+10 
           1065     1.49715e+10 
           1075      1.6116e+10 
           1085     1.49332e+10 
           1095     1.60642e+10 
           1105     1.48634e+10 
           1115     1.47574e+10 
           1125     1.36803e+10 
           1135      1.4839e+10 
           1145     1.37603e+10 
           1155     1.42545e+10 
           1165     1.42434e+10 
           1175       1.183e+10 
           1185     1.37385e+10 
           1195     1.25503e+10 
           1205      9.59943e+9 
           1215      4.73902e+9 
           1225     1.11317e+10 
           1235     1.24105e+10 
           1245     1.24003e+10 
           1255     1.20537e+10 
           1265      1.1883e+10 
           1275     1.20261e+10 
           1285     1.17487e+10 
           1295      9.95971e+9 
           1305     1.01439e+10 
           1315     1.11849e+10 
           1325      1.0764e+10 
           1335     1.03406e+10 
           1345     1.03988e+10 
           1355     1.04541e+10 
           1365      9.99496e+9 
           1375      9.85908e+9 
           1385      9.80265e+9 
           1395      8.77482e+9 
           1405      8.96219e+9 
           1415      9.23034e+9 
           1425       9.0467e+9 
           1435      9.03283e+9 
           1442      9.06058e+9 
           1447      8.93743e+9 
           1455      8.77465e+9 
           1465        8.551e+9 
           1475      8.43112e+9 
           1485      8.26158e+9 
           1495       8.1135e+9 
           1505      7.77667e+9 
           1512      7.54301e+9 
           1517      7.61566e+9 
           1525      7.54066e+9 
           1535      7.09802e+9 
           1545      7.14895e+9 
           1555       6.8708e+9 
           1565      7.00354e+9 
           1575      7.03593e+9 
           1585      6.91698e+9 
           1595      6.87006e+9 
           1605      6.64403e+9 
           1615      6.53558e+9 
           1625      6.49861e+9 
           1635      6.51336e+9 
           1645      6.35965e+9 
           1655      6.29527e+9 
           1665      6.25875e+9 
           1672      6.11252e+9 
           1677      6.22455e+9 
           1685      6.12379e+9 
           1695      5.96192e+9 
           1705      5.80848e+9 
           1715      5.63142e+9 
           1725      5.57341e+9 
           1735       5.5529e+9 
           1745      5.45764e+9 
           1755      5.45006e+9 
           1765       5.2367e+9 
           1775      5.17559e+9 
           1785       5.1413e+9 
           1795      5.14556e+9 
           1805      5.10281e+9 
           1815      4.91099e+9 
           1825      4.91149e+9 
           1835      4.82421e+9 
           1845      4.55414e+9 
           1855      4.48021e+9 
           1865      4.50486e+9 
           1875      4.54395e+9 
           1885      4.26346e+9 
           1895      4.06552e+9 
           1905      4.22995e+9 
           1915      4.07289e+9 
           1925      3.96968e+9 
           1935      4.04618e+9 
           1945      4.06453e+9 
           1955      3.82661e+9 
           1967      3.93595e+9 
           1976      4.00602e+9 
           1984      3.82419e+9 
           1995      3.71956e+9 
           2005      3.75856e+9 
           2015      3.75688e+9 
           2025      3.76837e+9 
           2035      3.61299e+9 
           2045      3.57927e+9 
           2055      3.46985e+9 
           2065      3.47838e+9 
           2074      3.54223e+9 
           2078      3.41275e+9 
           2085      3.42696e+9 
           2095      3.31776e+9 
           2105      3.35008e+9 
           2115      3.32226e+9 
           2125       3.3312e+9 
           2135      3.27229e+9 
           2145      3.18339e+9 
           2155      3.19553e+9 
           2165      3.16142e+9 
           2175      3.11282e+9 
           2185      3.07714e+9 
           2195       3.0526e+9 
           2205      3.01212e+9 
           2215      2.97646e+9 
           2225      2.92594e+9 
           2235      2.88828e+9 
           2245      2.86986e+9 
           2255      2.82134e+9 
           2265      2.80141e+9 
           2275      2.76628e+9 
           2285      2.73967e+9 
           2295      2.66427e+9 
           2305      2.66985e+9 
           2315       2.6261e+9 
           2325      2.59791e+9 
           2335      2.54738e+9 
           2345      2.52234e+9 
           2355      2.51041e+9 
           2365      2.47494e+9 
           2375       2.4444e+9 
           2385      2.41162e+9 
           2395      2.38634e+9 
           2405      2.35898e+9 
           2415      2.32353e+9 
           2425      2.31388e+9 
           2435      2.27821e+9 
           2445      2.25614e+9 
           2455      2.23574e+9 
           2465      2.20697e+9 
           2475      2.18173e+9 
           2485      2.15585e+9 
           2495      2.07712e+9 
           2505      2.10481e+9 
           2513      2.05838e+9 
           2518      2.06828e+9 
           2525      2.05458e+9 
           2535      2.03096e+9 
           2545      1.98816e+9 
           2555      1.98694e+9 
           2565      1.95911e+9 
           2575      1.94932e+9 
           2585      1.92722e+9 
           2595      1.90602e+9 
           2605      1.89696e+9 
           2615      1.87786e+9 
           2625      1.85794e+9 
           2635      1.83231e+9 
           2645      1.81827e+9 
           2655      1.79711e+9 
           2665      1.77193e+9 
           2675      1.75465e+9 
           2685      1.74699e+9 
           2695      1.71211e+9 
           2705      1.70761e+9 
           2715      1.68943e+9 
           2725      1.65808e+9 
           2735      1.65424e+9 
           2745      1.62591e+9 
           2755      1.61219e+9 
           2765      1.58759e+9 
           2775      1.58673e+9 
           2785      1.56851e+9 
           2795      1.52128e+9 
           2805      1.52501e+9 
           2815      1.52138e+9 
           2825      1.49141e+9 
           2835      1.47144e+9 
           2845      1.47377e+9 
           2855      1.45838e+9 
           2865      1.44459e+9 
           2875      1.42959e+9 
           2885      1.41549e+9 
           2895      1.40079e+9 
           2910      1.37873e+9 
           2930       1.3497e+9 
           2950      1.31545e+9 
           2970      1.29839e+9 
           2990      1.27147e+9 
           3010      1.24644e+9 
           3030      1.22372e+9 
           3050      1.20007e+9 
           3070      1.17701e+9 
           3090      1.15093e+9 
           3110      1.13193e+9 
           3130      1.11143e+9 
           3150      1.09034e+9 
           3170      1.06928e+9 
           3190      1.04114e+9 
           3210      1.02985e+9 
           3230      1.01031e+9 
           3250      9.91784e+8 
           3270      9.74756e+8 
           3290      9.55528e+8 
           3310      9.39786e+8 
           3330      9.22722e+8 
           3350      9.04419e+8 
           3370      8.89934e+8 
           3390      8.74187e+8 
           3410      8.58746e+8 
           3430      8.39251e+8 
           3450      8.21477e+8 
           3470      8.09657e+8 
           3490      7.95888e+8 
           3510      7.86355e+8 
           3530      7.73812e+8 
           3550      7.60902e+8 
           3570      7.51218e+8 
           3590      7.34336e+8 
           3610      7.22782e+8 
           3630      7.09893e+8 
           3640      7.08301e+8 
           3650      6.95179e+8 
           3670      6.86531e+8 
           3690      6.66659e+8 
           3710       6.5232e+8 
           3730        6.412e+8 
           3750      7.04407e+8 
           3770      7.10339e+8 
           3790      7.40576e+8 
           3810      7.70245e+8 
           3830      6.77599e+8 
           3850      7.85915e+8 
           3870      7.81662e+8 
           3890      6.46227e+8 
           3910      7.68757e+8 
           3930         7.51e+8 
           3950      7.43535e+8 
           3970      6.00151e+8 
           3990        7.159e+8 
           4010      7.06832e+8 
           4030      6.72369e+8 
           4050      6.90206e+8 
           4070      6.74137e+8 
           4090      6.34567e+8 
           4110      5.58668e+8 
           4130      6.34593e+8 
           4150      6.28688e+8 
           4170      6.22715e+8 
           4190      6.14446e+8 
           4210      6.05221e+8 
           4230      5.95279e+8 
           4250       5.8508e+8 
           4270      5.73021e+8 
           4290      5.66217e+8 
           4310      5.55255e+8 
           4330      5.13869e+8 
           4350      4.69137e+8 
           4370      5.28789e+8 
           4390       5.1196e+8 
           4410      5.14688e+8 
           4430      5.05367e+8 
           4450      4.99788e+8 
           4470      4.74888e+8 
           4490      4.83448e+8 
           4510      4.77522e+8 
           4530      4.70102e+8 
           4550      4.62593e+8 
           4570      4.55397e+8 
           4590       4.4888e+8 
           4610      4.42263e+8 
           4630      4.35744e+8 
           4650      4.27648e+8 
           4670      4.22646e+8 
           4690      4.16891e+8 
           4710      4.05054e+8 
           4730      4.04111e+8 
           4750      3.97793e+8 
           4770      3.93272e+8 
           4790      3.87515e+8 
           4810      3.81548e+8 
           4830      3.74664e+8 
           4850      3.52169e+8 
           4870      3.15671e+8 
           4890      3.58452e+8 
           4910      3.55069e+8 
           4930      3.43251e+8 
           4950      3.45326e+8 
           4970      3.40752e+8 
           4990      3.35954e+8 
           5010      3.27033e+8 
           5030      3.26656e+8 
           5050      3.19672e+8 
           5070      3.17755e+8 
           5090      3.13373e+8 
           5110      3.09064e+8 
           5130      3.04754e+8 
           5150      3.00617e+8 
           5170      2.96674e+8 
           5190      2.92686e+8 
           5210      2.88472e+8 
           5230      2.84907e+8 
           5250        2.811e+8 
           5270      2.77343e+8 
           5290      2.73688e+8 
           5310      2.70067e+8 
           5330      2.66479e+8 
           5350      2.62898e+8 
           5370      2.59585e+8 
           5390      2.56183e+8 
           5410      2.52851e+8 
           5430      2.49471e+8 
           5450      2.46299e+8 
           5470      2.43142e+8 
           5490      2.40074e+8 
           5510      2.36994e+8 
           5530      2.33965e+8 
           5550      2.31009e+8 
           5570      2.28066e+8 
           5590      2.25207e+8 
           5610      2.22336e+8 
           5630      2.19594e+8 
           5650      2.16673e+8 
           5670      2.13964e+8 
           5690      2.11299e+8 
           5710      2.08839e+8 
           5730      2.06271e+8 
           5750      2.03665e+8 
           5770      2.01259e+8 
           5790      1.98793e+8 
           5810      1.96366e+8 
           5830      1.93968e+8 
           5850      1.91631e+8 
           5870      1.84238e+8 
           5890       1.8679e+8 
           5910      1.84783e+8 
           5930      1.82564e+8 
           5950      1.80338e+8 
           5970      1.78265e+8 
           5990      1.76111e+8 
           6010      1.74065e+8 
           6030         1.72e+8 
           6050       1.6999e+8 
           6070      1.68003e+8 
           6090      1.66027e+8 
           6110      1.64105e+8 
           6130      1.62193e+8 
           6150      1.60264e+8 
           6170      1.58455e+8 
           6190      1.56646e+8 
           6210      1.54847e+8 
           6230      1.53078e+8 
           6250      1.51309e+8 
           6270      1.49598e+8 
           6290      1.47905e+8 
           6310      1.46212e+8 
           6330      1.44585e+8 
           6350      1.42825e+8 
           6370      1.41298e+8 
           6390       1.3976e+8 
           6410      1.38202e+8 
           6430      1.36678e+8 
           6450      1.35162e+8 
           6470      1.33643e+8 
           6490      1.32177e+8 
           6510      1.30726e+8 
           6530      1.28963e+8 
           6550      1.24366e+8 
           6570      1.11034e+8 
           6590      1.24058e+8 
           6610      1.23679e+8 
           6630      1.22429e+8 
           6650      1.21182e+8 
           6670      1.18856e+8 
           6690      1.17599e+8 
           6710      1.17334e+8 
           6730      1.16072e+8 
           6750      1.14848e+8 
           6770      1.13636e+8 
           6790       1.1238e+8 
           6810      1.11233e+8 
           6830      1.10066e+8 
           6850      1.08918e+8 
           6870      1.07774e+8 
           6890      1.06641e+8 
           6910      1.05536e+8 
           6930      1.04433e+8 
           6950      1.03357e+8 
           6970      1.02292e+8 
           6990      1.01229e+8 
           7010        1.002e+8 
           7030       9.9166e+7 
           7050       9.8157e+7 
           7070      9.56353e+7 
           7090      9.61682e+7 
           7110      9.51882e+7 
           7130      9.42252e+7 
           7150      9.32713e+7 
           7170       9.2312e+7 
           7190       9.1413e+7 
           7210      9.04934e+7 
           7230      8.92944e+7 
           7250      8.86877e+7 
           7270      8.78155e+7 
           7290      8.62427e+7 
           7310      8.60675e+7 
           7330      8.52339e+7 
           7350      8.43941e+7 
           7370      8.35691e+7 
           7390      8.27517e+7 
           7410       8.1942e+7 
           7430      8.11398e+7 
           7450      8.03653e+7 
           7470      7.95777e+7 
           7490      7.88176e+7 
           7510      7.80243e+7 
           7530      7.73047e+7 
           7550      7.65586e+7 
           7570      7.58259e+7 
           7590      7.50999e+7 
           7610      7.43869e+7 
           7630      7.36803e+7 
           7650      7.29802e+7 
           7670      7.22927e+7 
           7690       7.1605e+7 
           7710      7.09298e+7 
           7730      7.02669e+7 
           7750      6.95973e+7 
           7770      6.88838e+7 
           7790      6.83133e+7 
           7810       6.7618e+7 
           7830      6.70518e+7 
           7850      6.64905e+7 
           7870      6.58792e+7 
           7890      6.52007e+7 
           7910      6.46788e+7 
           7930      6.39635e+7 
           7950      6.33262e+7 
           7970      6.27122e+7 
           7990      6.21508e+7 
           8010      6.15766e+7 
           8030      6.10307e+7 
           8050      6.05302e+7 
           8070      6.00223e+7 
           8090      5.93402e+7 
           8110      5.88875e+7 
           8130      5.84499e+7 
           8150      5.78061e+7 
           8170      5.74275e+7 
           8190      5.68272e+7 
           8210      5.61259e+7 
           8230       5.5809e+7 
           8250      5.53378e+7 
           8270      5.45383e+7 
           8290       5.4292e+7 
           8310      5.38335e+7 
           8330      5.33516e+7 
           8350      5.26133e+7 
           8370      5.22815e+7 
           8390      5.19014e+7 
           8410      5.14194e+7 
           8430      5.08868e+7 
           8450      5.01471e+7 
           8470      4.97682e+7 
           8490      4.96443e+7 
           8510       4.8658e+7 
           8530       4.9011e+7 
           8550      4.70514e+7 
           8570      4.89823e+7 
