# Kurucz ODFNEW /NOVER (2003)
# teff = 28000 K (value for the effective temperature for the model. Temperatures are given in K)
# logg = 4 log(cm/s2) (value for Log(G) for the model.)
# meta = 0  (value for the Metallicity for the model.)
# lh = 1.25  (l/Hp where l is the  mixing length of the convective element and Hp is the pressure scale height)
# vtur = 2 km/s (Microturbulence velocity)
# alpha = 0  (Alpha)
#
# column 1: WAVELENGTH (ANGSTROM), Wavelength in Angstrom
# column 2: FLUX (ERG/CM2/S/A), Flux in erg/cm2/s/A
          147.2      4.2611e-11 
            151     1.51159e-10 
          155.2     5.73297e-10 
          158.8       1.7077e-9 
            162      4.34867e-9 
            166      1.33486e-8 
          170.3      4.21114e-8 
          173.4      9.35435e-8 
          176.8      2.17542e-7 
          180.2      4.91156e-7 
          181.7      6.96955e-7 
          186.1      1.89043e-6 
            191      5.46077e-6 
          193.9      9.98788e-6 
          198.4      2.46562e-5 
          201.8      4.75685e-5 
            205      8.66186e-5 
          210.5     0.000233093 
          216.2     0.000617316 
          219.8      0.00111353 
            223      0.00185179 
          226.8      0.00335457 
            230        0.521183 
            234         1.14596 
            240          2.2832 
          246.5         4.78837 
          252.4         9.11993 
          256.8         13.5687 
            260         21.9679 
            264         32.8352 
          268.5         51.5015 
          273.5         81.0397 
          278.5         123.303 
            284         230.458 
            290         371.282 
            296         581.846 
            301          825.22 
            308         1463.05 
            318          3214.7 
            328         5777.49 
            338         10927.5 
            348         19186.4 
            357         75556.3 
            366          153736 
            375          212372 
            385          335416 
            395          644973 
            405          887361 
            414      1.26596e+6 
            422      1.58376e+6 
            430      2.11307e+6 
            441      2.91534e+6 
            451      3.66467e+6 
            460      4.48301e+6 
            470      5.92978e+6 
            480       7.5632e+6 
            490      9.56635e+6 
            500      1.18661e+7 
            506      4.36724e+7 
            512      2.86013e+8 
            520      2.87479e+8 
            530        2.928e+8 
            540      2.87133e+8 
            550       3.9536e+8 
            560      4.65614e+8 
            570      5.09808e+8 
            580      4.73297e+8 
            590      5.66685e+8 
            600        5.596e+8 
            610       6.5344e+8 
            620      7.31427e+8 
            630       7.4036e+8 
            640      6.84754e+8 
            650      6.08322e+8 
            658      7.26739e+8 
            665       8.4991e+8 
            675       8.9489e+8 
            685      8.38764e+8 
            695        1.104e+9 
            705      1.02773e+9 
            716      1.21604e+9 
            726      1.21244e+9 
            735       1.2369e+9 
            745      1.35243e+9 
            755      1.38875e+9 
            765      1.45651e+9 
            775      1.52887e+9 
            785      1.61366e+9 
            795      1.63859e+9 
            805      1.64708e+9 
            815      1.65433e+9 
            825      1.77952e+9 
            835      1.50341e+9 
            845      1.76529e+9 
            855      1.77021e+9 
            865      1.85821e+9 
            875      1.93811e+9 
            885      2.04722e+9 
            895      2.10604e+9 
            905      2.07434e+9 
            915      2.66385e+9 
            925     1.47905e+10 
            935      2.8275e+10 
            945     4.34176e+10 
            955     4.83663e+10 
            965      5.4833e+10 
            975     1.38474e+10 
            985     4.32595e+10 
            995     4.15914e+10 
           1005     4.63925e+10 
           1015     4.80865e+10 
           1025     3.24555e+10 
           1035     4.21068e+10 
           1045     5.48971e+10 
           1055     5.08387e+10 
           1065     4.22557e+10 
           1075      4.6386e+10 
           1085     4.21459e+10 
           1095     4.59261e+10 
           1105     4.29697e+10 
           1115     4.21176e+10 
           1125     3.33174e+10 
           1135     4.14564e+10 
           1145       3.854e+10 
           1155     3.82709e+10 
           1165     3.73752e+10 
           1175     2.22721e+10 
           1185     3.42302e+10 
           1195     3.29501e+10 
           1205     2.77146e+10 
           1215     2.15882e+10 
           1225     3.06731e+10 
           1235     3.33992e+10 
           1245     3.19437e+10 
           1255     3.17596e+10 
           1265     3.24554e+10 
           1275     3.33341e+10 
           1285     3.30751e+10 
           1295     2.73052e+10 
           1305     2.86315e+10 
           1315     3.21605e+10 
           1325     3.03508e+10 
           1335     2.93841e+10 
           1345     2.93237e+10 
           1355     2.89294e+10 
           1365     2.72393e+10 
           1375     2.63245e+10 
           1385     2.54213e+10 
           1395     1.82191e+10 
           1405     1.96569e+10 
           1415     2.30095e+10 
           1425     2.16005e+10 
           1435     2.26964e+10 
           1442     2.29676e+10 
           1447     2.26292e+10 
           1455     2.16995e+10 
           1465     2.03651e+10 
           1475     2.07652e+10 
           1485     2.05531e+10 
           1495     1.99841e+10 
           1505     1.84737e+10 
           1512     1.69501e+10 
           1517     1.73722e+10 
           1525     1.74415e+10 
           1535     1.47179e+10 
           1545     1.37594e+10 
           1555     1.33923e+10 
           1565      1.4778e+10 
           1575     1.57412e+10 
           1585     1.57531e+10 
           1595     1.55755e+10 
           1605     1.53045e+10 
           1615     1.46894e+10 
           1625     1.47674e+10 
           1635     1.53624e+10 
           1645     1.53113e+10 
           1655     1.52382e+10 
           1665     1.51998e+10 
           1672     1.42912e+10 
           1677      1.6194e+10 
           1685     1.53625e+10 
           1695     1.45786e+10 
           1705     1.42863e+10 
           1715     1.35361e+10 
           1725     1.31644e+10 
           1735      1.3605e+10 
           1745     1.33902e+10 
           1755     1.33395e+10 
           1765     1.32106e+10 
           1775     1.24332e+10 
           1785     1.26608e+10 
           1795     1.27119e+10 
           1805     1.27634e+10 
           1815     1.17128e+10 
           1825     1.19558e+10 
           1835     1.17028e+10 
           1845     1.06815e+10 
           1855     1.09536e+10 
           1865     1.10791e+10 
           1875      1.1182e+10 
           1885     1.01089e+10 
           1895      9.47618e+9 
           1905     1.01161e+10 
           1915      9.64654e+9 
           1925      9.06174e+9 
           1935      9.67042e+9 
           1945      9.91838e+9 
           1955      8.84323e+9 
           1967      9.51315e+9 
           1976      9.95137e+9 
           1984      9.23731e+9 
           1995      9.07032e+9 
           2005      9.32315e+9 
           2015      9.27455e+9 
           2025      9.43517e+9 
           2035      8.66813e+9 
           2045      8.73787e+9 
           2055      7.99905e+9 
           2065      7.91293e+9 
           2074      8.32899e+9 
           2078      7.72464e+9 
           2085      8.10607e+9 
           2095      7.89256e+9 
           2105      8.20196e+9 
           2115      8.20232e+9 
           2125      8.23784e+9 
           2135       8.0835e+9 
           2145      7.71886e+9 
           2155      7.95573e+9 
           2165       7.8296e+9 
           2175      7.75785e+9 
           2185      7.55025e+9 
           2195      7.61782e+9 
           2205      7.55454e+9 
           2215       7.4143e+9 
           2225      7.25862e+9 
           2235      7.10867e+9 
           2245      7.12359e+9 
           2255      6.92919e+9 
           2265      6.94547e+9 
           2275      6.85295e+9 
           2285      6.77276e+9 
           2295       6.0908e+9 
           2305       6.5208e+9 
           2315      6.39056e+9 
           2325      6.32261e+9 
           2335      6.19104e+9 
           2345       6.2194e+9 
           2355      6.13184e+9 
           2365        6.064e+9 
           2375      5.92295e+9 
           2385      5.84106e+9 
           2395      5.76901e+9 
           2405      5.70472e+9 
           2415      5.62585e+9 
           2425      5.59012e+9 
           2435      5.45115e+9 
           2445       5.4267e+9 
           2455       5.3927e+9 
           2465      5.31382e+9 
           2475      5.22275e+9 
           2485      5.10436e+9 
           2495      4.13045e+9 
           2505      4.90677e+9 
           2513      4.73921e+9 
           2518      4.87038e+9 
           2525      4.88843e+9 
           2535      4.84648e+9 
           2545      4.68749e+9 
           2555      4.68619e+9 
           2565        4.633e+9 
           2575       4.6001e+9 
           2585      4.54276e+9 
           2595      4.49282e+9 
           2605      4.45323e+9 
           2615      4.38007e+9 
           2625      4.34462e+9 
           2635      4.29592e+9 
           2645      4.22543e+9 
           2655      4.18842e+9 
           2665      4.05144e+9 
           2675      4.03021e+9 
           2685      4.02971e+9 
           2695       3.8913e+9 
           2705      3.82989e+9 
           2715       3.8187e+9 
           2725      3.79924e+9 
           2735      3.75323e+9 
           2745      3.70584e+9 
           2755      3.67853e+9 
           2765       3.6162e+9 
           2775      3.62648e+9 
           2785      3.56523e+9 
           2795      3.44326e+9 
           2805      3.46099e+9 
           2815      3.45974e+9 
           2825       3.4021e+9 
           2835      3.30277e+9 
           2845      3.33317e+9 
           2855      3.27145e+9 
           2865      3.25012e+9 
           2875      3.21365e+9 
           2885      3.17765e+9 
           2895      3.13321e+9 
           2910      3.06331e+9 
           2930      3.02116e+9 
           2950      2.92734e+9 
           2970      2.88019e+9 
           2990      2.80905e+9 
           3010      2.71192e+9 
           3030      2.68293e+9 
           3050      2.63879e+9 
           3070      2.59484e+9 
           3090      2.49192e+9 
           3110      2.47917e+9 
           3130      2.41348e+9 
           3150       2.3709e+9 
           3170       2.3124e+9 
           3190      2.26206e+9 
           3210      2.22588e+9 
           3230      2.17092e+9 
           3250      2.13786e+9 
           3270      2.08628e+9 
           3290      2.04464e+9 
           3310       2.0058e+9 
           3330      1.95909e+9 
           3350      1.92234e+9 
           3370       1.8826e+9 
           3390       1.8535e+9 
           3410      1.81741e+9 
           3430      1.77796e+9 
           3450       1.7368e+9 
           3470      1.70482e+9 
           3490      1.67009e+9 
           3510      1.64191e+9 
           3530      1.61804e+9 
           3550      1.58575e+9 
           3570      1.56093e+9 
           3590      1.51711e+9 
           3610      1.49211e+9 
           3630      1.46556e+9 
           3640      1.46175e+9 
           3650      1.42664e+9 
           3670        1.409e+9 
           3690      1.37955e+9 
           3710      1.32812e+9 
           3730      1.28072e+9 
           3750      1.31741e+9 
           3770      1.29981e+9 
           3790       1.3453e+9 
           3810      1.38296e+9 
           3830      1.23447e+9 
           3850      1.38736e+9 
           3870      1.36093e+9 
           3890      1.16934e+9 
           3910      1.35272e+9 
           3930       1.3106e+9 
           3950      1.29125e+9 
           3970      1.08237e+9 
           3990      1.25134e+9 
           4010      1.23809e+9 
           4030      1.18195e+9 
           4050      1.19818e+9 
           4070       1.1458e+9 
           4090       1.0826e+9 
           4110      9.84125e+8 
           4130      1.09364e+9 
           4150      1.08448e+9 
           4170      1.07785e+9 
           4190      1.06186e+9 
           4210      1.04988e+9 
           4230      1.02871e+9 
           4250      1.00105e+9 
           4270      9.75456e+8 
           4290      9.61429e+8 
           4310      9.34173e+8 
           4330      8.75329e+8 
           4350      8.10439e+8 
           4370      8.89818e+8 
           4390      8.79676e+8 
           4410      8.73129e+8 
           4430      8.65954e+8 
           4450      8.50274e+8 
           4470      8.16097e+8 
           4490      8.24764e+8 
           4510      8.14835e+8 
           4530      8.02975e+8 
           4550      7.89744e+8 
           4570      7.77093e+8 
           4590      7.63308e+8 
           4610       7.4695e+8 
           4630      7.34957e+8 
           4650      7.07567e+8 
           4670      7.12903e+8 
           4690      7.05088e+8 
           4710       6.8169e+8 
           4730      6.84205e+8 
           4750      6.72561e+8 
           4770      6.69698e+8 
           4790      6.58436e+8 
           4810      6.45791e+8 
           4830      6.32929e+8 
           4850      6.00413e+8 
           4870      5.44137e+8 
           4890      6.06117e+8 
           4910      5.99408e+8 
           4930      5.80279e+8 
           4950       5.7952e+8 
           4970      5.75795e+8 
           4990      5.66635e+8 
           5010      5.45625e+8 
           5030      5.49142e+8 
           5050       5.3833e+8 
           5070      5.34722e+8 
           5090      5.26093e+8 
           5110      5.17943e+8 
           5130      5.08172e+8 
           5150      5.01776e+8 
           5170      4.96224e+8 
           5190      4.90001e+8 
           5210      4.82915e+8 
           5230      4.76144e+8 
           5250      4.69448e+8 
           5270      4.62147e+8 
           5290      4.56627e+8 
           5310      4.50067e+8 
           5330      4.44216e+8 
           5350      4.37847e+8 
           5370      4.32201e+8 
           5390      4.25836e+8 
           5410      4.20209e+8 
           5430      4.14781e+8 
           5450      4.08926e+8 
           5470      4.03448e+8 
           5490      3.98014e+8 
           5510      3.93219e+8 
           5530      3.87325e+8 
           5550      3.82912e+8 
           5570      3.77641e+8 
           5590       3.7275e+8 
           5610       3.6787e+8 
           5630      3.63193e+8 
           5650      3.57712e+8 
           5670      3.51759e+8 
           5690      3.45509e+8 
           5710      3.43335e+8 
           5730      3.39382e+8 
           5750      3.33938e+8 
           5770      3.31287e+8 
           5790      3.26744e+8 
           5810      3.22656e+8 
           5830       3.1782e+8 
           5850      3.14406e+8 
           5870      3.02843e+8 
           5890       3.0459e+8 
           5910      3.02047e+8 
           5930      2.97924e+8 
           5950      2.94201e+8 
           5970      2.92011e+8 
           5990      2.87271e+8 
           6010      2.84455e+8 
           6030      2.80468e+8 
           6050      2.77299e+8 
           6070      2.74319e+8 
           6090      2.71048e+8 
           6110      2.67712e+8 
           6130      2.64615e+8 
           6150      2.60496e+8 
           6170      2.57662e+8 
           6190      2.54957e+8 
           6210      2.52126e+8 
           6230       2.4919e+8 
           6250      2.45861e+8 
           6270      2.43098e+8 
           6290      2.40392e+8 
           6310      2.37404e+8 
           6330      2.34825e+8 
           6350      2.31741e+8 
           6370      2.29369e+8 
           6390      2.26607e+8 
           6410      2.24003e+8 
           6430       2.2151e+8 
           6450      2.18897e+8 
           6470      2.15755e+8 
           6490      2.13417e+8 
           6510       2.1129e+8 
           6530      2.08204e+8 
           6550      2.01631e+8 
           6570      1.80759e+8 
           6590      1.99685e+8 
           6610      1.99332e+8 
           6630      1.97377e+8 
           6650      1.95067e+8 
           6670      1.91409e+8 
           6690      1.89332e+8 
           6710      1.88791e+8 
           6730      1.86257e+8 
           6750        1.847e+8 
           6770      1.82706e+8 
           6790      1.79637e+8 
           6810      1.78511e+8 
           6830       1.7653e+8 
           6850       1.7477e+8 
           6870      1.72852e+8 
           6890      1.70763e+8 
           6910      1.68726e+8 
           6930      1.67338e+8 
           6950      1.65557e+8 
           6970      1.63787e+8 
           6990      1.62003e+8 
           7010      1.60275e+8 
           7030       1.5851e+8 
           7050      1.56862e+8 
           7070      1.52946e+8 
           7090       1.5359e+8 
           7110      1.51289e+8 
           7130      1.49789e+8 
           7150      1.48798e+8 
           7170      1.47229e+8 
           7190      1.45726e+8 
           7210      1.44208e+8 
           7230      1.41062e+8 
           7250      1.40959e+8 
           7270      1.39764e+8 
           7290      1.37289e+8 
           7310       1.3687e+8 
           7330      1.35451e+8 
           7350      1.34116e+8 
           7370      1.32764e+8 
           7390      1.31412e+8 
           7410      1.30079e+8 
           7430      1.28752e+8 
           7450      1.27465e+8 
           7470      1.25709e+8 
           7490      1.24838e+8 
           7510      1.23612e+8 
           7530      1.22339e+8 
           7550      1.21222e+8 
           7570      1.20017e+8 
           7590      1.18803e+8 
           7610      1.17484e+8 
           7630      1.16455e+8 
           7650      1.15319e+8 
           7670      1.14206e+8 
           7690      1.13065e+8 
           7710       1.1194e+8 
           7730      1.10819e+8 
           7750      1.09815e+8 
           7770      1.08602e+8 
           7790      1.07703e+8 
           7810      1.06615e+8 
           7830      1.05641e+8 
           7850      1.04682e+8 
           7870      1.03536e+8 
           7890      1.02406e+8 
           7910      1.01618e+8 
           7930      1.00603e+8 
           7950      9.96863e+7 
           7970      9.86766e+7 
           7990      9.77583e+7 
           8010      9.67834e+7 
           8030      9.58754e+7 
           8050      9.50449e+7 
           8070      9.41753e+7 
           8090      9.31922e+7 
           8110      9.19426e+7 
           8130      9.15991e+7 
           8150      9.06567e+7 
           8170       8.9965e+7 
           8190      8.87455e+7 
           8210       8.7805e+7 
           8230       8.6945e+7 
           8250      8.65073e+7 
           8270      8.49933e+7 
           8290      8.48358e+7 
           8310      8.41334e+7 
           8330      8.33606e+7 
           8350      8.22378e+7 
           8370      8.16785e+7 
           8390      8.11076e+7 
           8410      8.03228e+7 
           8430      7.95817e+7 
           8450      7.83506e+7 
           8470      7.80598e+7 
           8490      7.73057e+7 
           8510      7.63706e+7 
           8530       7.6018e+7 
           8550      7.44363e+7 
           8570      7.53716e+7 
           8590      7.26776e+7 
