# Kurucz ODFNEW /NOVER (2003)
# teff = 8500 K (value for the effective temperature for the model. Temperatures are given in K)
# logg = 1.5 log(cm/s2) (value for Log(G) for the model.)
# meta = -4  (value for the Metallicity for the model.)
# lh = 1.25  (l/Hp where l is the  mixing length of the convective element and Hp is the pressure scale height)
# vtur = 2 km/s (Microturbulence velocity)
# alpha = 0.4  (Alpha)
#
# column 1: WAVELENGTH (ANGSTROM), Wavelength in Angstrom
# column 2: FLUX (ERG/CM2/S/A), Flux in erg/cm2/s/A
          147.2     1.73866e-35 
            151     1.65225e-35 
          155.2     1.56403e-35 
          158.8     1.49392e-35 
            162     1.43549e-35 
            166     1.36714e-35 
          170.3     1.29897e-35 
          173.4     1.25294e-35 
          176.8     1.20522e-35 
          180.2     1.16017e-35 
          181.7     1.14109e-35 
          186.1     1.08777e-35 
            191     1.03267e-35 
          193.9     1.00201e-35 
          198.4     9.57076e-36 
          201.8     9.25097e-36 
            205     8.96441e-36 
          210.5     8.50208e-36 
          216.2     8.05969e-36 
          219.8     7.79784e-36 
            223     7.57565e-36 
          226.8     7.32392e-36 
            230     7.12154e-36 
            234     6.88015e-36 
            240     6.54044e-36 
          246.5     6.20006e-36 
          252.4     5.91358e-36 
          256.8     5.71267e-36 
            260     5.57292e-36 
            264     5.40532e-36 
          268.5     5.22566e-36 
          273.5     2.93271e-23 
          278.5     1.47015e-22 
            284     6.80585e-22 
            290      3.3347e-21 
            296     1.51619e-20 
            301     5.12987e-20 
            308     2.63175e-19 
            318     2.39545e-18 
            328     1.90028e-17 
            338     1.32847e-16 
            348     8.31888e-16 
            357     3.94764e-15 
            366     1.73712e-14 
            375     7.09176e-14 
            385     3.14066e-13 
            395     1.28657e-12 
            405     4.88916e-12 
            414      1.5406e-11 
            422      4.0968e-11 
            430      1.0517e-10 
            441       3.634e-10 
            451      1.05687e-9 
            460      2.65206e-9 
            470      7.10704e-9 
            480      1.82397e-8 
            490      4.49926e-8 
            500      1.06483e-7 
            506      5.35175e-7 
            512      1.13396e-6 
            520      2.11353e-6 
            530      4.55629e-6 
            540      9.21514e-6 
            550      1.87107e-5 
            560        3.642e-5 
            570      6.91343e-5 
            580     0.000125248 
            590     0.000231871 
            600     0.000411525 
            610     0.000715249 
            620      0.00121967 
            630      0.00204159 
            640      0.00335819 
            650      0.00543337 
            658      0.00789423 
            665         0.01086 
            675       0.0169122 
            685       0.0259698 
            695       0.0393486 
            705       0.0588419 
            716       0.0903214 
            726          0.1317 
            735        0.183189 
            745        0.261615 
            755        0.369773 
            765        0.517472 
            775        0.717236 
            785        0.985191 
            795         1.34145 
            805         1.81143 
            815         2.42585 
            825         3.22234 
            835         4.24902 
            845         5.56316 
            855         7.23234 
            865         9.33887 
            875         11.9805 
            885         15.2741 
            895          19.356 
            905         24.3869 
            915         54.6043 
            925          194.07 
            935         294.256 
            945         522.893 
            955         1320.13 
            965         1227.49 
            975         610.416 
            985          327504 
            995      1.28629e+6 
           1005          251731 
           1015         1588.17 
           1025         1379.59 
           1035         3028.18 
           1045          640632 
           1055      5.14683e+6 
           1065      1.05776e+7 
           1075      1.43963e+7 
           1085      1.57681e+7 
           1095      1.57086e+7 
           1105      1.47702e+7 
           1115      1.34344e+7 
           1125      1.09195e+7 
           1135      9.01039e+6 
           1145      6.53704e+6 
           1155      3.83076e+6 
           1165      1.86421e+6 
           1175          458583 
           1185       6.8565e+6 
           1195         12419.2 
           1205         9698.02 
           1215         6169.92 
           1225         11139.3 
           1235         18368.3 
           1245         11504.2 
           1255          210441 
           1265      1.11433e+6 
           1275      2.52949e+6 
           1285      4.78434e+6 
           1295      6.70937e+6 
           1305       8.5525e+6 
           1315      1.09749e+7 
           1325      1.29873e+7 
           1335      1.47337e+7 
           1345      1.69359e+7 
           1355      1.82939e+7 
           1365      1.97507e+7 
           1375      2.08249e+7 
           1385      2.17016e+7 
           1395      2.25222e+7 
           1405       2.4386e+7 
           1415      2.59636e+7 
           1425      2.69733e+7 
           1435      2.75445e+7 
           1442      2.85116e+7 
           1447      2.87629e+7 
           1455      2.92909e+7 
           1465       2.9642e+7 
           1475        3.036e+7 
           1485      3.07486e+7 
           1495      3.10482e+7 
           1505      3.17081e+7 
           1512      3.19705e+7 
           1517      3.21579e+7 
           1525      3.19721e+7 
           1535      3.21357e+7 
           1545      3.28842e+7 
           1555      3.25358e+7 
           1565      3.15538e+7 
           1575      3.26381e+7 
           1585      3.29819e+7 
           1595       3.3584e+7 
           1605      3.32735e+7 
           1615       3.3286e+7 
           1625      3.28333e+7 
           1635      3.30121e+7 
           1645      3.33749e+7 
           1655      3.20719e+7 
           1665      3.38635e+7 
           1672      3.28097e+7 
           1677      3.34904e+7 
           1685      3.38088e+7 
           1695      3.36746e+7 
           1705      3.33144e+7 
           1715      3.36725e+7 
           1725      3.35136e+7 
           1735      3.39331e+7 
           1745      3.35256e+7 
           1755      3.37733e+7 
           1765       3.3567e+7 
           1775      3.37459e+7 
           1785      3.33771e+7 
           1795      3.36224e+7 
           1805      3.31734e+7 
           1815      3.31222e+7 
           1825      3.32082e+7 
           1835      3.31795e+7 
           1845      3.30001e+7 
           1855       3.2966e+7 
           1865      3.28528e+7 
           1875      3.28559e+7 
           1885      3.27807e+7 
           1895      3.27032e+7 
           1905      3.25569e+7 
           1915       3.2488e+7 
           1925       3.2439e+7 
           1935      3.20935e+7 
           1945      3.22812e+7 
           1955      3.21795e+7 
           1967      3.20685e+7 
           1976      3.19546e+7 
           1984       3.1885e+7 
           1995      3.17776e+7 
           2005      3.16198e+7 
           2015      3.14227e+7 
           2025      3.13639e+7 
           2035       3.1363e+7 
           2045      3.12552e+7 
           2055      3.08411e+7 
           2065      3.08789e+7 
           2074      3.10187e+7 
           2078      3.09875e+7 
           2085       3.0928e+7 
           2095      3.08309e+7 
           2105       3.0752e+7 
           2115      3.06497e+7 
           2125      3.05547e+7 
           2135      3.04377e+7 
           2145      3.04084e+7 
           2155      3.02972e+7 
           2165      3.00043e+7 
           2175      3.00046e+7 
           2185      3.00225e+7 
           2195      3.00264e+7 
           2205      2.98523e+7 
           2215      2.96079e+7 
           2225      2.95098e+7 
           2235      2.96958e+7 
           2245      2.95716e+7 
           2255      2.93255e+7 
           2265      2.91589e+7 
           2275      2.93064e+7 
           2285       2.9251e+7 
           2295      2.91004e+7 
           2305       2.9132e+7 
           2315      2.90405e+7 
           2325      2.89745e+7 
           2335      2.85887e+7 
           2345      2.79836e+7 
           2355      2.85786e+7 
           2365      2.79326e+7 
           2375      2.83311e+7 
           2385      2.75886e+7 
           2395      2.81285e+7 
           2405      2.80904e+7 
           2415      2.80237e+7 
           2425      2.84343e+7 
           2435      2.83054e+7 
           2445      2.82388e+7 
           2455      2.82899e+7 
           2465      2.81297e+7 
           2475      2.81217e+7 
           2485      2.80655e+7 
           2495      2.78488e+7 
           2505      2.80586e+7 
           2513       2.7891e+7 
           2518      2.79782e+7 
           2525      2.77925e+7 
           2535       2.7542e+7 
           2545      2.77239e+7 
           2555      2.78472e+7 
           2565      2.75337e+7 
           2575      2.76242e+7 
           2585      2.75366e+7 
           2595      2.74423e+7 
           2605      2.73441e+7 
           2615      2.72665e+7 
           2625      2.72423e+7 
           2635       2.7279e+7 
           2645      2.76536e+7 
           2655      2.76146e+7 
           2665      2.75096e+7 
           2675      2.75038e+7 
           2685      2.75167e+7 
           2695      2.74639e+7 
           2705      2.74409e+7 
           2715       2.7305e+7 
           2725      2.72349e+7 
           2735      2.72426e+7 
           2745       2.6715e+7 
           2755      2.68296e+7 
           2765       2.7106e+7 
           2775      2.72373e+7 
           2785      2.72004e+7 
           2795       2.6397e+7 
           2805      2.67713e+7 
           2815      2.71438e+7 
           2825      2.71106e+7 
           2835       2.7035e+7 
           2845      2.70268e+7 
           2855      2.69404e+7 
           2865      2.69486e+7 
           2875      2.69479e+7 
           2885      2.69311e+7 
           2895      2.69216e+7 
           2910      2.68935e+7 
           2930      2.67795e+7 
           2950      2.67306e+7 
           2970      2.67258e+7 
           2990      2.66636e+7 
           3010      2.66344e+7 
           3030      2.65847e+7 
           3050      2.65312e+7 
           3070      2.64613e+7 
           3090      2.64264e+7 
           3110      2.63743e+7 
           3130      2.63167e+7 
           3150      2.62638e+7 
           3170       2.6215e+7 
           3190      2.61446e+7 
           3210      2.61065e+7 
           3230      2.60247e+7 
           3250      2.59989e+7 
           3270      2.59556e+7 
           3290       2.5903e+7 
           3310      2.58485e+7 
           3330      2.57856e+7 
           3350       2.5715e+7 
           3370      2.56634e+7 
           3390      2.56096e+7 
           3410      2.55628e+7 
           3430      2.55032e+7 
           3450      2.54442e+7 
           3470      2.53829e+7 
           3490      2.53229e+7 
           3510      2.52621e+7 
           3530         2.52e+7 
           3550      2.51363e+7 
           3570      2.50715e+7 
           3590      2.50064e+7 
           3610      2.49411e+7 
           3630      2.48737e+7 
           3640      2.48396e+7 
           3650       2.5054e+7 
           3670      2.47241e+7 
           3690      2.65219e+7 
           3710      3.56938e+7 
           3730      5.32375e+7 
           3750      7.71649e+7 
           3770      7.75809e+7 
           3790       8.4197e+7 
           3810      9.19031e+7 
           3830      7.73624e+7 
           3850      9.52416e+7 
           3870      9.66015e+7 
           3890      7.24649e+7 
           3910      9.45267e+7 
           3930      9.35573e+7 
           3950      9.24433e+7 
           3970      6.87349e+7 
           3990      9.00146e+7 
           4010      8.98124e+7 
           4030      8.86402e+7 
           4050      8.77898e+7 
           4070      8.66517e+7 
           4090      8.14508e+7 
           4110      6.63019e+7 
           4130      8.34963e+7 
           4150      8.28028e+7 
           4170      8.18848e+7 
           4190      8.09547e+7 
           4210       8.0028e+7 
           4230       7.9113e+7 
           4250      7.82095e+7 
           4270      7.73195e+7 
           4290      7.64345e+7 
           4310      7.53901e+7 
           4330      6.85286e+7 
           4350      5.94784e+7 
           4370      7.27719e+7 
           4390      7.21553e+7 
           4410      7.13957e+7 
           4430      7.05875e+7 
           4450      6.98003e+7 
           4470      6.89018e+7 
           4490      6.82277e+7 
           4510      6.74813e+7 
           4530      6.67307e+7 
           4550      6.59834e+7 
           4570      6.52556e+7 
           4590      6.45326e+7 
           4610      6.38214e+7 
           4630      6.31166e+7 
           4650      6.24215e+7 
           4670      6.17342e+7 
           4690      6.10564e+7 
           4710      6.03624e+7 
           4730      5.97267e+7 
           4750      5.90745e+7 
           4770      5.84312e+7 
           4790      5.77965e+7 
           4810       5.7167e+7 
           4830      5.63296e+7 
           4850      5.18556e+7 
           4870      4.30817e+7 
           4890       5.4398e+7 
           4910      5.41214e+7 
           4930       5.3539e+7 
           4950      5.30012e+7 
           4970      5.24367e+7 
           4990      5.18795e+7 
           5010       5.1304e+7 
           5030      5.07852e+7 
           5050      5.02419e+7 
           5070      4.97188e+7 
           5090      4.91951e+7 
           5110      4.86795e+7 
           5130      4.81689e+7 
           5150      4.76648e+7 
           5170      4.71643e+7 
           5190      4.66756e+7 
           5210       4.6193e+7 
           5230      4.57137e+7 
           5250      4.52431e+7 
           5270      4.47769e+7 
           5290      4.43164e+7 
           5310      4.38616e+7 
           5330      4.34124e+7 
           5350        4.297e+7 
           5370      4.25316e+7 
           5390      4.20999e+7 
           5410       4.1672e+7 
           5430      4.12506e+7 
           5450      4.08343e+7 
           5470      4.04229e+7 
           5490      4.00164e+7 
           5510      3.96148e+7 
           5530      3.92191e+7 
           5550      3.88281e+7 
           5570      3.84405e+7 
           5590      3.80586e+7 
           5610      3.76824e+7 
           5630      3.73094e+7 
           5650      3.69418e+7 
           5670      3.65774e+7 
           5690      3.62183e+7 
           5710      3.58645e+7 
           5730      3.55136e+7 
           5750      3.51679e+7 
           5770       3.4826e+7 
           5790      3.44881e+7 
           5810       3.4154e+7 
           5830      3.38247e+7 
           5850      3.34992e+7 
           5870      3.31401e+7 
           5890        3.286e+7 
           5910      3.25452e+7 
           5930       3.2235e+7 
           5950      3.19282e+7 
           5970      3.16259e+7 
           5990      3.13258e+7 
           6010        3.103e+7 
           6030      3.07375e+7 
           6050      3.04482e+7 
           6070       3.0163e+7 
           6090      2.98809e+7 
           6110      2.96028e+7 
           6130      2.93268e+7 
           6150      2.90547e+7 
           6170      2.87855e+7 
           6190      2.85201e+7 
           6210      2.82566e+7 
           6230      2.79968e+7 
           6250      2.77398e+7 
           6270      2.74865e+7 
           6290      2.72348e+7 
           6310      2.69868e+7 
           6330      2.67413e+7 
           6350      2.64984e+7 
           6370      2.62589e+7 
           6390      2.60219e+7 
           6410      2.57873e+7 
           6430      2.55561e+7 
           6450      2.53263e+7 
           6470      2.50998e+7 
           6490      2.48755e+7 
           6510      2.45869e+7 
           6530      2.42484e+7 
           6550      2.26402e+7 
           6570      1.83211e+7 
           6590      2.34167e+7 
           6610      2.34882e+7 
           6630      2.33561e+7 
           6650      2.31716e+7 
           6670      2.29659e+7 
           6690      2.27665e+7 
           6710      2.25707e+7 
           6730      2.23744e+7 
           6750      2.21808e+7 
           6770      2.19892e+7 
           6790      2.17993e+7 
           6810      2.16122e+7 
           6830       2.1426e+7 
           6850      2.12425e+7 
           6870      2.10615e+7 
           6890      2.08815e+7 
           6910       2.0704e+7 
           6930      2.05282e+7 
           6950       2.0354e+7 
           6970      2.01823e+7 
           6990      2.00123e+7 
           7010      1.98438e+7 
           7030      1.96777e+7 
           7050      1.95124e+7 
           7070      1.93479e+7 
           7090      1.91879e+7 
           7110      1.90287e+7 
           7130      1.88702e+7 
           7150       1.8714e+7 
           7170      1.85591e+7 
           7190      1.84065e+7 
           7210      1.82545e+7 
           7230      1.81046e+7 
           7250      1.79562e+7 
           7270      1.78097e+7 
           7290      1.76639e+7 
           7310      1.75202e+7 
           7330      1.73777e+7 
           7350      1.72373e+7 
           7370      1.70974e+7 
           7390      1.69594e+7 
           7410      1.68227e+7 
           7430      1.66872e+7 
           7450      1.65536e+7 
           7470      1.64212e+7 
           7490        1.629e+7 
           7510      1.61599e+7 
           7530       1.6031e+7 
           7550      1.59039e+7 
           7570      1.57779e+7 
           7590       1.5653e+7 
           7610      1.55298e+7 
           7630      1.54078e+7 
           7650      1.52868e+7 
           7670      1.51668e+7 
           7690      1.50479e+7 
           7710      1.49306e+7 
           7730      1.48144e+7 
           7750      1.46991e+7 
           7770       1.4583e+7 
           7790      1.44722e+7 
           7810      1.43605e+7 
           7830      1.42497e+7 
           7850      1.41399e+7 
           7870      1.40317e+7 
           7890      1.39237e+7 
           7910      1.38172e+7 
           7930      1.37123e+7 
           7950      1.36076e+7 
           7970      1.35044e+7 
           7990      1.34021e+7 
           8010      1.33006e+7 
           8030         1.32e+7 
           8050      1.31001e+7 
           8070      1.30017e+7 
           8090      1.29041e+7 
           8110      1.28074e+7 
           8130      1.27114e+7 
           8150      1.26167e+7 
           8170      1.25223e+7 
           8190      1.24292e+7 
           8210      1.24006e+7 
           8230      1.23165e+7 
           8250      1.22347e+7 
           8270       1.2148e+7 
           8290        1.205e+7 
           8310       1.1925e+7 
           8330      1.17831e+7 
           8350      1.17132e+7 
           8370      1.14234e+7 
           8390      1.14455e+7 
           8410      1.13501e+7 
           8430      1.16489e+7 
           8450      1.16265e+7 
           8470      1.10261e+7 
           8490      1.21705e+7 
           8510       1.0983e+7 
           8530       1.2373e+7 
           8550      1.07367e+7 
           8570      1.25958e+7 
