# Kurucz ODFNEW /NOVER (2003)
# teff = 30000 K (value for the effective temperature for the model. Temperatures are given in K)
# logg = 4.5 log(cm/s2) (value for Log(G) for the model.)
# meta = 0.5  (value for the Metallicity for the model.)
# lh = 1.25  (l/Hp where l is the  mixing length of the convective element and Hp is the pressure scale height)
# vtur = 2 km/s (Microturbulence velocity)
# alpha = 0.4  (Alpha)
#
# column 1: WAVELENGTH (ANGSTROM), Wavelength in Angstrom
# column 2: FLUX (ERG/CM2/S/A), Flux in erg/cm2/s/A
          147.2      4.91258e-9 
            151      1.53578e-8 
          155.2      5.09046e-8 
          158.8      1.35603e-7 
            162      3.13195e-7 
            166      8.54422e-7 
          170.3      2.37283e-6 
          173.4      4.87006e-6 
          176.8      1.03509e-5 
          180.2      2.14201e-5 
          181.7      2.92142e-5 
          186.1      7.10215e-5 
            191     0.000182917 
          193.9     0.000312939 
          198.4     0.000698924 
          201.8      0.00125351 
            205      0.00213505 
          210.5      0.00515158 
          216.2       0.0122257 
          219.8       0.0207064 
            223       0.0325874 
          226.8       0.0610837 
            230         1.81186 
            234            3.76 
            240         7.29325 
          246.5         14.6892 
          252.4         27.1859 
          256.8         41.2404 
            260         62.6954 
            264         89.2797 
          268.5         140.487 
          273.5         218.582 
          278.5         323.999 
            284          656.81 
            290          1041.9 
            296         1596.59 
            301         2245.42 
            308         4663.85 
            318         9702.11 
            328         16777.5 
            338         31289.8 
            348         53574.1 
            357          251682 
            366          633057 
            375          851321 
            385      1.40358e+6 
            395      4.54804e+6 
            405      6.00792e+6 
            414      1.12105e+7 
            422      1.37712e+7 
            430      1.77538e+7 
            441      2.33614e+7 
            451      2.77656e+7 
            460      3.12529e+7 
            470      4.09116e+7 
            480      5.08536e+7 
            490       6.1375e+7 
            500      7.45442e+7 
            506      1.32698e+8 
            512      1.28446e+9 
            520      1.22177e+9 
            530      1.18775e+9 
            540      1.15054e+9 
            550      1.61141e+9 
            560      2.06396e+9 
            570      2.17689e+9 
            580      1.94155e+9 
            590       2.2778e+9 
            600       1.7948e+9 
            610      2.41427e+9 
            620      2.73991e+9 
            630      2.68219e+9 
            640      2.33046e+9 
            650      2.14838e+9 
            658       2.0433e+9 
            665      2.59854e+9 
            675      2.88559e+9 
            685       2.3737e+9 
            695      3.55503e+9 
            705      2.74635e+9 
            716      3.93068e+9 
            726      3.71086e+9 
            735      3.90673e+9 
            745      3.96858e+9 
            755      4.03519e+9 
            765      4.34096e+9 
            775       4.5969e+9 
            785      4.81567e+9 
            795      4.75072e+9 
            805      4.61319e+9 
            815      4.56369e+9 
            825      5.02334e+9 
            835      3.59998e+9 
            845      4.77728e+9 
            855      4.70097e+9 
            865      4.93125e+9 
            875      5.04848e+9 
            885      5.31021e+9 
            895      5.41044e+9 
            905      5.17746e+9 
            915      5.82311e+9 
            925     2.27039e+10 
            935     4.09758e+10 
            945     6.10386e+10 
            955     6.94328e+10 
            965     7.94905e+10 
            975     1.85867e+10 
            985     5.80339e+10 
            995     5.41183e+10 
           1005     5.98314e+10 
           1015     6.57853e+10 
           1025     4.52452e+10 
           1035     5.90191e+10 
           1045     7.82765e+10 
           1055     7.16311e+10 
           1065     5.33395e+10 
           1075     6.08863e+10 
           1085      5.6601e+10 
           1095     6.20035e+10 
           1105     5.66995e+10 
           1115      5.4275e+10 
           1125     3.51183e+10 
           1135     5.30926e+10 
           1145     4.98877e+10 
           1155     4.76692e+10 
           1165      4.7701e+10 
           1175      2.5707e+10 
           1185     4.32043e+10 
           1195     4.11467e+10 
           1205     3.33265e+10 
           1215     2.80998e+10 
           1225     3.87242e+10 
           1235      4.3094e+10 
           1245     4.08417e+10 
           1255     4.05976e+10 
           1265     4.21242e+10 
           1275     4.40198e+10 
           1285     4.42158e+10 
           1295     3.38827e+10 
           1305     3.63827e+10 
           1315       4.362e+10 
           1325     4.09148e+10 
           1335       3.993e+10 
           1345     3.89115e+10 
           1355     3.90657e+10 
           1365     3.58729e+10 
           1375     3.39363e+10 
           1385     3.11404e+10 
           1395     1.69818e+10 
           1405     2.05309e+10 
           1415     2.93315e+10 
           1425     2.74483e+10 
           1435     2.97088e+10 
           1442     3.00262e+10 
           1447     2.97615e+10 
           1455      2.8056e+10 
           1465     2.60523e+10 
           1475     2.71029e+10 
           1485     2.67049e+10 
           1495     2.58516e+10 
           1505     2.33553e+10 
           1512     2.19646e+10 
           1517     2.25289e+10 
           1525     2.24082e+10 
           1535     1.84014e+10 
           1545      1.6199e+10 
           1555     1.60537e+10 
           1565     1.82672e+10 
           1575     1.96518e+10 
           1585     1.96686e+10 
           1595     1.97381e+10 
           1605     1.96289e+10 
           1615     1.85922e+10 
           1625      1.8735e+10 
           1635     1.96184e+10 
           1645     2.00057e+10 
           1655     1.95213e+10 
           1665     1.94573e+10 
           1672      1.7904e+10 
           1677     2.15188e+10 
           1685     2.02508e+10 
           1695     1.91379e+10 
           1705     1.88285e+10 
           1715     1.77066e+10 
           1725     1.67815e+10 
           1735     1.76511e+10 
           1745     1.75583e+10 
           1755     1.74322e+10 
           1765     1.72944e+10 
           1775     1.60622e+10 
           1785     1.65295e+10 
           1795     1.65493e+10 
           1805     1.66185e+10 
           1815     1.53232e+10 
           1825     1.55425e+10 
           1835      1.5217e+10 
           1845     1.38805e+10 
           1855     1.44593e+10 
           1865     1.46014e+10 
           1875     1.45307e+10 
           1885     1.32308e+10 
           1895     1.25408e+10 
           1905     1.33977e+10 
           1915     1.26634e+10 
           1925     1.17707e+10 
           1935     1.27893e+10 
           1945     1.31521e+10 
           1955     1.15226e+10 
           1967     1.25479e+10 
           1976      1.3226e+10 
           1984     1.22439e+10 
           1995     1.21121e+10 
           2005     1.24807e+10 
           2015     1.24082e+10 
           2025     1.25129e+10 
           2035     1.15769e+10 
           2045     1.16594e+10 
           2055     1.02358e+10 
           2065     1.00574e+10 
           2074     1.04388e+10 
           2078      9.84381e+9 
           2085     1.03723e+10 
           2095     1.02366e+10 
           2105     1.08657e+10 
           2115     1.09813e+10 
           2125     1.08757e+10 
           2135      1.0698e+10 
           2145     1.02898e+10 
           2155     1.06074e+10 
           2165     1.02862e+10 
           2175     1.02994e+10 
           2185      9.98199e+9 
           2195     1.01555e+10 
           2205     1.00915e+10 
           2215      9.79636e+9 
           2225       9.6499e+9 
           2235      9.47701e+9 
           2245      9.47126e+9 
           2255      9.13185e+9 
           2265      9.22983e+9 
           2275      9.09209e+9 
           2285      8.81354e+9 
           2295      7.57461e+9 
           2305      8.49747e+9 
           2315      8.33002e+9 
           2325      8.31845e+9 
           2335       8.1368e+9 
           2345      8.19909e+9 
           2355      8.03111e+9 
           2365      7.92562e+9 
           2375      7.68937e+9 
           2385      7.51972e+9 
           2395      7.45903e+9 
           2405      7.43034e+9 
           2415      7.27657e+9 
           2425       7.2628e+9 
           2435      7.08509e+9 
           2445      7.05435e+9 
           2455      6.99262e+9 
           2465      6.88888e+9 
           2475      6.74231e+9 
           2485      6.36421e+9 
           2495       4.2392e+9 
           2505      5.90926e+9 
           2513      5.98038e+9 
           2518      6.08619e+9 
           2525      6.29593e+9 
           2535      6.29971e+9 
           2545      5.99729e+9 
           2555      6.06008e+9 
           2565      5.91615e+9 
           2575      5.95381e+9 
           2585      5.89036e+9 
           2595      5.81148e+9 
           2605      5.76972e+9 
           2615      5.63753e+9 
           2625      5.61052e+9 
           2635      5.53926e+9 
           2645      5.44737e+9 
           2655      5.39679e+9 
           2665       5.1469e+9 
           2675      5.10854e+9 
           2685      5.16175e+9 
           2695      4.95857e+9 
           2705      4.83455e+9 
           2715      4.84086e+9 
           2725      4.83979e+9 
           2735      4.76906e+9 
           2745      4.72658e+9 
           2755      4.68672e+9 
           2765      4.60833e+9 
           2775      4.65957e+9 
           2785      4.55025e+9 
           2795      4.33353e+9 
           2805      4.40932e+9 
           2815      4.43524e+9 
           2825      4.37425e+9 
           2835      4.21328e+9 
           2845      4.26451e+9 
           2855      4.16407e+9 
           2865      4.14051e+9 
           2875      4.07502e+9 
           2885      4.02446e+9 
           2895      3.96075e+9 
           2910      3.82775e+9 
           2930      3.84295e+9 
           2950      3.72374e+9 
           2970      3.64993e+9 
           2990      3.53022e+9 
           3010      3.35211e+9 
           3030      3.31748e+9 
           3050      3.30153e+9 
           3070        3.277e+9 
           3090      3.10439e+9 
           3110      3.13151e+9 
           3130      3.01848e+9 
           3150       2.9843e+9 
           3170      2.89311e+9 
           3190      2.85425e+9 
           3210      2.79835e+9 
           3230      2.71477e+9 
           3250      2.68813e+9 
           3270      2.60345e+9 
           3290      2.56138e+9 
           3310       2.5027e+9 
           3330      2.43658e+9 
           3350      2.39113e+9 
           3370      2.33271e+9 
           3390      2.31632e+9 
           3410      2.26541e+9 
           3430       2.2343e+9 
           3450      2.16884e+9 
           3470      2.13052e+9 
           3490      2.08369e+9 
           3510      2.04411e+9 
           3530      2.02473e+9 
           3550      1.97642e+9 
           3570      1.94006e+9 
           3590      1.88366e+9 
           3610      1.85828e+9 
           3630      1.82011e+9 
           3640      1.81035e+9 
           3650      1.77242e+9 
           3670      1.75069e+9 
           3690      1.71682e+9 
           3710      1.63662e+9 
           3730      1.59276e+9 
           3750      1.59144e+9 
           3770      1.54274e+9 
           3790      1.60869e+9 
           3810      1.65297e+9 
           3830      1.46483e+9 
           3850      1.64638e+9 
           3870       1.5881e+9 
           3890      1.37473e+9 
           3910      1.63285e+9 
           3930      1.57337e+9 
           3950      1.52126e+9 
           3970      1.26756e+9 
           3990      1.50068e+9 
           4010      1.48795e+9 
           4030      1.41454e+9 
           4050      1.43083e+9 
           4070       1.3379e+9 
           4090      1.24918e+9 
           4110       1.1391e+9 
           4130      1.29746e+9 
           4150      1.28559e+9 
           4170      1.29437e+9 
           4190      1.27434e+9 
           4210      1.25971e+9 
           4230      1.22953e+9 
           4250      1.17896e+9 
           4270      1.15139e+9 
           4290      1.11933e+9 
           4310      1.07749e+9 
           4330      1.00871e+9 
           4350      9.39091e+8 
           4370      1.03438e+9 
           4390      1.03985e+9 
           4410      1.02294e+9 
           4430      1.02302e+9 
           4450      9.99405e+8 
           4470      9.65934e+8 
           4490      9.76483e+8 
           4510      9.63545e+8 
           4530      9.56285e+8 
           4550      9.42365e+8 
           4570      9.27929e+8 
           4590      9.08703e+8 
           4610      8.79882e+8 
           4630      8.63598e+8 
           4650      8.21757e+8 
           4670      8.40489e+8 
           4690      8.33953e+8 
           4710      8.00037e+8 
           4730      8.18123e+8 
           4750      8.02532e+8 
           4770      8.05204e+8 
           4790      7.90219e+8 
           4810      7.69983e+8 
           4830      7.52348e+8 
           4850      7.05636e+8 
           4870      6.35059e+8 
           4890      7.19567e+8 
           4910      7.12483e+8 
           4930      6.90826e+8 
           4950      6.87084e+8 
           4970       6.8971e+8 
           4990      6.77898e+8 
           5010      6.43634e+8 
           5030      6.50334e+8 
           5050      6.39978e+8 
           5070      6.39468e+8 
           5090      6.25859e+8 
           5110      6.14751e+8 
           5130      6.02237e+8 
           5150      5.96049e+8 
           5170      5.89148e+8 
           5190       5.8277e+8 
           5210      5.73739e+8 
           5230      5.66866e+8 
           5250       5.5799e+8 
           5270      5.47442e+8 
           5290      5.43391e+8 
           5310      5.34856e+8 
           5330      5.28144e+8 
           5350      5.20044e+8 
           5370      5.13591e+8 
           5390      5.04833e+8 
           5410      4.97516e+8 
           5430      4.92516e+8 
           5450      4.84596e+8 
           5470      4.78112e+8 
           5490       4.7181e+8 
           5510      4.66679e+8 
           5530      4.58862e+8 
           5550       4.5435e+8 
           5570      4.47936e+8 
           5590      4.41469e+8 
           5610      4.35945e+8 
           5630       4.3075e+8 
           5650      4.23127e+8 
           5670      4.15354e+8 
           5690      4.06005e+8 
           5710      4.03119e+8 
           5730      3.99782e+8 
           5750      3.92334e+8 
           5770       3.9049e+8 
           5790      3.84684e+8 
           5810       3.7963e+8 
           5830       3.7325e+8 
           5850      3.69877e+8 
           5870      3.55771e+8 
           5890       3.5716e+8 
           5910      3.54229e+8 
           5930      3.49872e+8 
           5950      3.45385e+8 
           5970      3.44248e+8 
           5990      3.37607e+8 
           6010      3.35249e+8 
           6030      3.29899e+8 
           6050      3.26332e+8 
           6070      3.23071e+8 
           6090      3.19256e+8 
           6110       3.1504e+8 
           6130      3.11524e+8 
           6150      3.05258e+8 
           6170      3.02095e+8 
           6190       2.9988e+8 
           6210       2.9677e+8 
           6230      2.93247e+8 
           6250      2.88364e+8 
           6270      2.85598e+8 
           6290      2.82537e+8 
           6310      2.78289e+8 
           6330      2.76025e+8 
           6350      2.71608e+8 
           6370      2.69663e+8 
           6390       2.6629e+8 
           6410      2.63053e+8 
           6430      2.60335e+8 
           6450      2.57102e+8 
           6470      2.52051e+8 
           6490      2.49453e+8 
           6510      2.46269e+8 
           6530      2.42342e+8 
           6550      2.33954e+8 
           6570      2.07693e+8 
           6590        2.331e+8 
           6610      2.32994e+8 
           6630      2.31187e+8 
           6650      2.28163e+8 
           6670      2.23283e+8 
           6690      2.20855e+8 
           6710      2.20662e+8 
           6730      2.17273e+8 
           6750      2.16219e+8 
           6770      2.13949e+8 
           6790      2.09373e+8 
           6810       2.0873e+8 
           6830      2.05934e+8 
           6850      2.04372e+8 
           6870      2.01947e+8 
           6890      1.99101e+8 
           6910      1.95954e+8 
           6930      1.95704e+8 
           6950      1.93643e+8 
           6970      1.91556e+8 
           6990      1.89305e+8 
           7010      1.87084e+8 
           7030      1.84885e+8 
           7050      1.83034e+8 
           7070      1.78269e+8 
           7090      1.78989e+8 
           7110      1.75681e+8 
           7130      1.74015e+8 
           7150      1.73315e+8 
           7170      1.71763e+8 
           7190      1.70109e+8 
           7210      1.68334e+8 
           7230      1.63937e+8 
           7250      1.64073e+8 
           7270      1.63065e+8 
           7290      1.60023e+8 
           7310      1.59579e+8 
           7330      1.57861e+8 
           7350      1.56271e+8 
           7370      1.54765e+8 
           7390      1.53176e+8 
           7410      1.51589e+8 
           7430      1.49962e+8 
           7450      1.48364e+8 
           7470      1.45241e+8 
           7490      1.44876e+8 
           7510      1.43845e+8 
           7530      1.42059e+8 
           7550      1.41076e+8 
           7570      1.39648e+8 
           7590      1.38062e+8 
           7610       1.3618e+8 
           7630       1.3535e+8 
           7650      1.33903e+8 
           7670      1.32777e+8 
           7690      1.31227e+8 
           7710      1.30008e+8 
           7730      1.28321e+8 
           7750      1.27553e+8 
           7770      1.25949e+8 
           7790      1.25129e+8 
           7810      1.23884e+8 
           7830      1.22717e+8 
           7850      1.21488e+8 
           7870      1.19685e+8 
           7890      1.18304e+8 
           7910      1.17731e+8 
           7930      1.16533e+8 
           7950       1.1556e+8 
           7970      1.14369e+8 
           7990      1.13302e+8 
           8010      1.12244e+8 
           8030      1.11101e+8 
           8050      1.10195e+8 
           8070      1.09181e+8 
           8090      1.08055e+8 
           8110      1.05741e+8 
           8130      1.06099e+8 
           8150       1.0508e+8 
           8170       1.0421e+8 
           8190      1.01899e+8 
           8210      1.01275e+8 
           8230      1.00066e+8 
           8250      1.00029e+8 
           8270       9.7431e+7 
           8290      9.78989e+7 
           8310      9.73518e+7 
           8330      9.64614e+7 
           8350      9.50489e+7 
           8370      9.43263e+7 
           8390      9.38932e+7 
           8410      9.28027e+7 
           8430      9.22038e+7 
           8450      9.06757e+7 
           8470      9.05421e+7 
           8490      8.94574e+7 
           8510        8.846e+7 
           8530      8.78904e+7 
           8550      8.67221e+7 
           8570      8.67846e+7 
