# Kurucz ODFNEW /NOVER (2003)
# teff = 30000 K (value for the effective temperature for the model. Temperatures are given in K)
# logg = 3.5 log(cm/s2) (value for Log(G) for the model.)
# meta = 0.5  (value for the Metallicity for the model.)
# lh = 1.25  (l/Hp where l is the  mixing length of the convective element and Hp is the pressure scale height)
# vtur = 2 km/s (Microturbulence velocity)
# alpha = 0.4  (Alpha)
#
# column 1: WAVELENGTH (ANGSTROM), Wavelength in Angstrom
# column 2: FLUX (ERG/CM2/S/A), Flux in erg/cm2/s/A
          147.2      5.21023e-9 
            151       1.6352e-8 
          155.2       5.4322e-8 
          158.8      1.44872e-7 
            162      3.34512e-7 
            166       9.1284e-7 
          170.3       2.5317e-6 
          173.4      5.18894e-6 
          176.8      1.11879e-5 
          180.2      2.30827e-5 
          181.7      3.22118e-5 
          186.1      7.78995e-5 
            191     0.000199771 
          193.9     0.000340304 
          198.4     0.000765239 
          201.8       0.0013647 
            205      0.00231228 
          210.5       0.0055346 
          216.2       0.0129019 
          219.8       0.0219579 
            223       0.0344124 
          226.8       0.0659724 
            230          9.4339 
            234         20.1891 
            240         36.4512 
          246.5         69.4096 
          252.4         126.503 
          256.8         190.603 
            260         332.575 
            264         522.581 
          268.5         841.122 
          273.5         1257.37 
          278.5         1725.01 
            284         4703.51 
            290         7342.86 
            296         10543.9 
            301         15348.9 
            308         66816.4 
            318          148901 
            328          232746 
            338          453583 
            348          749577 
            357       2.2499e+6 
            366      5.98915e+6 
            375      7.33822e+6 
            385      1.22401e+7 
            395      3.67228e+7 
            405      4.77524e+7 
            414      9.12436e+7 
            422      1.07863e+8 
            430      1.24288e+8 
            441      1.56289e+8 
            451      1.69716e+8 
            460      1.64677e+8 
            470      2.19199e+8 
            480      2.65526e+8 
            490       2.5847e+8 
            500      3.57049e+8 
            506      3.71865e+8 
            512      3.66491e+9 
            520      3.59244e+9 
            530      3.43254e+9 
            540      3.46524e+9 
            550      3.61274e+9 
            560      5.86886e+9 
            570      7.90482e+9 
            580      7.07185e+9 
            590      7.34833e+9 
            600      3.54262e+9 
            610      6.22003e+9 
            620      9.21468e+9 
            630      8.82566e+9 
            640      8.39235e+9 
            650      6.11479e+9 
            658      3.59184e+9 
            665      6.95334e+9 
            675     1.00552e+10 
            685      5.91278e+9 
            695      9.94187e+9 
            705      5.26288e+9 
            716     1.19613e+10 
            726      1.1584e+10 
            735     1.17986e+10 
            745      8.91281e+9 
            755      9.39006e+9 
            765     1.02985e+10 
            775     1.18496e+10 
            785     1.14604e+10 
            795     1.23982e+10 
            805     1.07788e+10 
            815     1.03628e+10 
            825     1.23454e+10 
            835      7.26091e+9 
            845     1.14381e+10 
            855     1.12154e+10 
            865     1.19243e+10 
            875     1.20632e+10 
            885     1.24732e+10 
            895     1.24961e+10 
            905     1.18498e+10 
            915     1.53392e+10 
            925     3.77009e+10 
            935     5.43919e+10 
            945     5.77692e+10 
            955     5.99157e+10 
            965     6.16862e+10 
            975     2.05718e+10 
            985     4.29061e+10 
            995     4.32353e+10 
           1005     4.68588e+10 
           1015     5.13154e+10 
           1025     4.74325e+10 
           1035     4.95483e+10 
           1045     5.90886e+10 
           1055     5.52355e+10 
           1065     4.57632e+10 
           1075     4.85115e+10 
           1085     4.60501e+10 
           1095     4.85496e+10 
           1105     4.63358e+10 
           1115     4.46206e+10 
           1125     3.01711e+10 
           1135     4.28543e+10 
           1145     4.25055e+10 
           1155     3.94344e+10 
           1165     3.92378e+10 
           1175     2.21086e+10 
           1185     3.51933e+10 
           1195     3.44274e+10 
           1205     3.21019e+10 
           1215     3.01925e+10 
           1225     3.30731e+10 
           1235      3.5563e+10 
           1245     3.34457e+10 
           1255     3.38836e+10 
           1265     3.50497e+10 
           1275     3.68497e+10 
           1285     3.69195e+10 
           1295     3.31661e+10 
           1305     3.36242e+10 
           1315     3.66768e+10 
           1325     3.53785e+10 
           1335      3.4062e+10 
           1345     3.41218e+10 
           1355     3.34374e+10 
           1365     3.20656e+10 
           1375     3.05189e+10 
           1385      2.8381e+10 
           1395     1.60977e+10 
           1405     1.90792e+10 
           1415     2.81838e+10 
           1425     2.56246e+10 
           1435     2.78153e+10 
           1442     2.73647e+10 
           1447     2.72659e+10 
           1455     2.57212e+10 
           1465     2.47657e+10 
           1475     2.56622e+10 
           1485     2.55603e+10 
           1495     2.47543e+10 
           1505     2.36946e+10 
           1512     2.31148e+10 
           1517     2.36077e+10 
           1525      2.2541e+10 
           1535     1.91768e+10 
           1545     1.51568e+10 
           1555      1.5456e+10 
           1565     1.85794e+10 
           1575     1.99601e+10 
           1585     2.00824e+10 
           1595     2.00476e+10 
           1605     1.90688e+10 
           1615     1.81242e+10 
           1625     1.85766e+10 
           1635     1.91407e+10 
           1645       1.946e+10 
           1655     1.89628e+10 
           1665     1.87412e+10 
           1672     1.69392e+10 
           1677     2.07552e+10 
           1685     1.95356e+10 
           1695     1.87432e+10 
           1705      1.8686e+10 
           1715      1.7371e+10 
           1725     1.68613e+10 
           1735     1.75398e+10 
           1745     1.74296e+10 
           1755     1.72646e+10 
           1765     1.71336e+10 
           1775     1.63217e+10 
           1785     1.66891e+10 
           1795     1.63353e+10 
           1805     1.63537e+10 
           1815      1.5752e+10 
           1825      1.5641e+10 
           1835     1.56041e+10 
           1845     1.46673e+10 
           1855     1.51676e+10 
           1865     1.51928e+10 
           1875     1.48007e+10 
           1885     1.39539e+10 
           1895     1.35741e+10 
           1905     1.41254e+10 
           1915     1.36578e+10 
           1925     1.27741e+10 
           1935      1.3725e+10 
           1945     1.39239e+10 
           1955     1.24245e+10 
           1967     1.32169e+10 
           1976     1.36496e+10 
           1984     1.30928e+10 
           1995     1.27936e+10 
           2005     1.31077e+10 
           2015     1.30948e+10 
           2025      1.3156e+10 
           2035      1.2442e+10 
           2045     1.23216e+10 
           2055     1.02848e+10 
           2065       1.006e+10 
           2074     1.07638e+10 
           2078     1.05906e+10 
           2085     1.15049e+10 
           2095     1.12744e+10 
           2105     1.14268e+10 
           2115     1.16357e+10 
           2125     1.14396e+10 
           2135     1.13774e+10 
           2145     1.10799e+10 
           2155     1.11501e+10 
           2165     1.07291e+10 
           2175     1.08329e+10 
           2185     1.06417e+10 
           2195     1.07748e+10 
           2205      1.0606e+10 
           2215     1.03216e+10 
           2225     1.02579e+10 
           2235     1.00909e+10 
           2245       9.9788e+9 
           2255      9.77269e+9 
           2265      9.73726e+9 
           2275      9.67878e+9 
           2285      9.35397e+9 
           2295      7.99804e+9 
           2305      9.03423e+9 
           2315      8.87692e+9 
           2325      8.93523e+9 
           2335      8.77179e+9 
           2345      8.69372e+9 
           2355      8.49641e+9 
           2365      8.33715e+9 
           2375      8.13552e+9 
           2385      7.86478e+9 
           2395      7.86491e+9 
           2405      7.87976e+9 
           2415        7.741e+9 
           2425      7.72662e+9 
           2435       7.5972e+9 
           2445      7.51817e+9 
           2455      7.40142e+9 
           2465      7.27515e+9 
           2475      7.09963e+9 
           2485       6.4423e+9 
           2495      3.83554e+9 
           2505      5.80437e+9 
           2513      6.37052e+9 
           2518      6.48548e+9 
           2525      6.71606e+9 
           2535      6.73059e+9 
           2545      6.55101e+9 
           2555      6.54888e+9 
           2565      6.44524e+9 
           2575      6.41573e+9 
           2585       6.3442e+9 
           2595      6.21148e+9 
           2605      6.21496e+9 
           2615      6.05017e+9 
           2625      6.03314e+9 
           2635      5.99232e+9 
           2645      5.88463e+9 
           2655      5.83183e+9 
           2665      5.67463e+9 
           2675      5.53331e+9 
           2685      5.59825e+9 
           2695      5.47068e+9 
           2705      5.42258e+9 
           2715      5.35664e+9 
           2725      5.32044e+9 
           2735      5.22168e+9 
           2745       5.2292e+9 
           2755      5.15259e+9 
           2765      5.08878e+9 
           2775      5.08152e+9 
           2785      4.95524e+9 
           2795      4.77652e+9 
           2805      4.85658e+9 
           2815      4.83544e+9 
           2825        4.789e+9 
           2835      4.67756e+9 
           2845      4.68048e+9 
           2855      4.59571e+9 
           2865      4.52687e+9 
           2875      4.46731e+9 
           2885      4.43382e+9 
           2895      4.39016e+9 
           2910      4.25564e+9 
           2930      4.23254e+9 
           2950      4.12383e+9 
           2970      4.02598e+9 
           2990      3.89114e+9 
           3010      3.74829e+9 
           3030      3.65601e+9 
           3050      3.64426e+9 
           3070      3.58534e+9 
           3090      3.46392e+9 
           3110      3.46122e+9 
           3130      3.35341e+9 
           3150      3.31681e+9 
           3170      3.23131e+9 
           3190      3.18144e+9 
           3210      3.08817e+9 
           3230      3.01989e+9 
           3250      2.98951e+9 
           3270      2.88752e+9 
           3290      2.85023e+9 
           3310      2.78129e+9 
           3330      2.71235e+9 
           3350      2.64172e+9 
           3370       2.5942e+9 
           3390      2.57555e+9 
           3410      2.52029e+9 
           3430       2.4937e+9 
           3450       2.4168e+9 
           3470      2.38317e+9 
           3490      2.33691e+9 
           3510      2.29121e+9 
           3530      2.25925e+9 
           3550      2.20941e+9 
           3570      2.16371e+9 
           3590      2.11879e+9 
           3610      2.07726e+9 
           3630      2.03899e+9 
           3640      2.00935e+9 
           3650      1.90648e+9 
           3670      1.87787e+9 
           3690      1.84091e+9 
           3710      1.77902e+9 
           3730      1.76338e+9 
           3750      1.80479e+9 
           3770       1.7752e+9 
           3790      1.80217e+9 
           3810      1.82002e+9 
           3830      1.69644e+9 
           3850      1.78034e+9 
           3870       1.6976e+9 
           3890      1.61132e+9 
           3910      1.70897e+9 
           3930      1.64511e+9 
           3950      1.60502e+9 
           3970      1.47662e+9 
           3990      1.58386e+9 
           4010      1.55341e+9 
           4030      1.51103e+9 
           4050      1.49966e+9 
           4070      1.43244e+9 
           4090      1.37363e+9 
           4110      1.30612e+9 
           4130      1.37277e+9 
           4150       1.3573e+9 
           4170      1.35432e+9 
           4190         1.33e+9 
           4210      1.30637e+9 
           4230      1.28779e+9 
           4250      1.25008e+9 
           4270      1.22322e+9 
           4290      1.19462e+9 
           4310      1.16417e+9 
           4330       1.1322e+9 
           4350      1.06892e+9 
           4370      1.11932e+9 
           4390      1.10674e+9 
           4410      1.08303e+9 
           4430      1.07976e+9 
           4450      1.05682e+9 
           4470      1.03913e+9 
           4490      1.03273e+9 
           4510      1.00514e+9 
           4530      9.98913e+8 
           4550      9.79233e+8 
           4570      9.70987e+8 
           4590      9.50921e+8 
           4610      9.33541e+8 
           4630      9.16214e+8 
           4650      8.64339e+8 
           4670      8.87648e+8 
           4690      8.74835e+8 
           4710      8.58744e+8 
           4730      8.68302e+8 
           4750      8.52339e+8 
           4770      8.46515e+8 
           4790      8.33418e+8 
           4810      8.17562e+8 
           4830      8.02958e+8 
           4850       7.8352e+8 
           4870      7.24934e+8 
           4890      7.67556e+8 
           4910      7.55878e+8 
           4930      7.40581e+8 
           4950      7.30381e+8 
           4970      7.29059e+8 
           4990      7.18431e+8 
           5010      6.92189e+8 
           5030      6.91028e+8 
           5050      6.82463e+8 
           5070      6.77647e+8 
           5090       6.6669e+8 
           5110      6.56619e+8 
           5130      6.46313e+8 
           5150       6.3761e+8 
           5170      6.27767e+8 
           5190      6.20323e+8 
           5210      6.12225e+8 
           5230      6.04301e+8 
           5250      5.93158e+8 
           5270      5.83904e+8 
           5290      5.79524e+8 
           5310      5.70958e+8 
           5330      5.63498e+8 
           5350      5.56134e+8 
           5370      5.48328e+8 
           5390      5.39495e+8 
           5410      5.29193e+8 
           5430      5.26669e+8 
           5450      5.19183e+8 
           5470      5.11868e+8 
           5490      5.05171e+8 
           5510      4.98135e+8 
           5530      4.91668e+8 
           5550      4.85954e+8 
           5570      4.78767e+8 
           5590      4.70862e+8 
           5610      4.66984e+8 
           5630      4.60903e+8 
           5650      4.54495e+8 
           5670      4.47298e+8 
           5690      4.34466e+8 
           5710      4.23952e+8 
           5730      4.19242e+8 
           5750      4.12354e+8 
           5770      4.09286e+8 
           5790      4.04024e+8 
           5810      3.98145e+8 
           5830        3.938e+8 
           5850      3.91431e+8 
           5870      3.81038e+8 
           5890      3.82321e+8 
           5910      3.79274e+8 
           5930      3.75659e+8 
           5950      3.72436e+8 
           5970      3.70188e+8 
           5990      3.64685e+8 
           6010      3.60969e+8 
           6030       3.5577e+8 
           6050      3.51621e+8 
           6070      3.47692e+8 
           6090      3.43909e+8 
           6110      3.39098e+8 
           6130      3.35235e+8 
           6150      3.30139e+8 
           6170      3.26043e+8 
           6190      3.23546e+8 
           6210      3.19991e+8 
           6230       3.1529e+8 
           6250      3.11491e+8 
           6270      3.08424e+8 
           6290      3.04809e+8 
           6310      2.99823e+8 
           6330      2.97866e+8 
           6350      2.93676e+8 
           6370      2.90971e+8 
           6390      2.87556e+8 
           6410      2.83527e+8 
           6430       2.8101e+8 
           6450       2.7735e+8 
           6470      2.73235e+8 
           6490      2.69971e+8 
           6510      2.65977e+8 
           6530      2.63307e+8 
           6550      2.59419e+8 
           6570      2.37515e+8 
           6590      2.54449e+8 
           6610      2.52627e+8 
           6630      2.50291e+8 
           6650       2.4699e+8 
           6670      2.42056e+8 
           6690      2.39071e+8 
           6710      2.38417e+8 
           6730      2.34923e+8 
           6750      2.33359e+8 
           6770      2.31243e+8 
           6790       2.2797e+8 
           6810      2.26235e+8 
           6830      2.23491e+8 
           6850        2.212e+8 
           6870      2.18533e+8 
           6890      2.15044e+8 
           6910      2.12705e+8 
           6930      2.11981e+8 
           6950      2.09647e+8 
           6970      2.07422e+8 
           6990      2.05104e+8 
           7010      2.02517e+8 
           7030      2.00047e+8 
           7050       1.9811e+8 
           7070       1.9378e+8 
           7090      1.94382e+8 
           7110      1.91368e+8 
           7130      1.89547e+8 
           7150      1.88341e+8 
           7170      1.85819e+8 
           7190      1.84189e+8 
           7210       1.8248e+8 
           7230      1.78776e+8 
           7250      1.78085e+8 
           7270      1.76829e+8 
           7290      1.73875e+8 
           7310      1.72932e+8 
           7330      1.71323e+8 
           7350      1.69555e+8 
           7370       1.6779e+8 
           7390      1.66173e+8 
           7410      1.64378e+8 
           7430      1.62785e+8 
           7450      1.60894e+8 
           7470       1.5848e+8 
           7490      1.57064e+8 
           7510      1.56109e+8 
           7530      1.54423e+8 
           7550      1.53097e+8 
           7570      1.51507e+8 
           7590      1.49225e+8 
           7610      1.47967e+8 
           7630      1.46849e+8 
           7650      1.45368e+8 
           7670      1.44201e+8 
           7690      1.42235e+8 
           7710      1.41074e+8 
           7730       1.3926e+8 
           7750      1.38392e+8 
           7770      1.37237e+8 
           7790      1.35882e+8 
           7810      1.34606e+8 
           7830      1.33299e+8 
           7850      1.31709e+8 
           7870      1.30159e+8 
           7890      1.28997e+8 
           7910      1.28087e+8 
           7930      1.26861e+8 
           7950      1.25812e+8 
           7970      1.24387e+8 
           7990      1.23334e+8 
           8010      1.22155e+8 
           8030      1.20899e+8 
           8050      1.19938e+8 
           8070      1.18807e+8 
           8090      1.17616e+8 
           8110      1.15598e+8 
           8130      1.15521e+8 
           8150      1.14302e+8 
           8170      1.13297e+8 
           8190      1.11475e+8 
           8210      1.09396e+8 
           8230      1.08053e+8 
           8250      1.07635e+8 
           8270      1.05716e+8 
           8290      1.05584e+8 
           8310      1.04853e+8 
           8330       1.0359e+8 
           8350      1.02316e+8 
           8370      1.01672e+8 
           8390       1.0115e+8 
           8410      1.00079e+8 
           8430      9.93816e+7 
           8450      9.82311e+7 
           8470      9.74895e+7 
           8490         9.69e+7 
           8510      9.50249e+7 
           8530      9.54549e+7 
           8550      9.32051e+7 
           8570      9.43505e+7 
