# Kurucz ODFNEW /NOVER (2003)
# teff = 21000 K (value for the effective temperature for the model. Temperatures are given in K)
# logg = 3 log(cm/s2) (value for Log(G) for the model.)
# meta = -0.5  (value for the Metallicity for the model.)
# lh = 1.25  (l/Hp where l is the  mixing length of the convective element and Hp is the pressure scale height)
# vtur = 2 km/s (Microturbulence velocity)
# alpha = 0  (Alpha)
#
# column 1: WAVELENGTH (ANGSTROM), Wavelength in Angstrom
# column 2: FLUX (ERG/CM2/S/A), Flux in erg/cm2/s/A
          147.2     5.95038e-19 
            151       3.534e-18 
          155.2     2.30523e-17 
          158.8     1.06825e-16 
            162     3.95979e-16 
            166     1.90415e-15 
          170.3     9.52134e-15 
          173.4     2.89781e-14 
          176.8     9.40804e-14 
          180.2     2.92455e-13 
          181.7     4.76017e-13 
          186.1      1.9024e-12 
            191     8.26882e-12 
          193.9     1.90743e-11 
          198.4     6.64201e-11 
          201.8     1.64316e-10 
            205     3.75017e-10 
          210.5      1.46227e-9 
          216.2       5.5586e-9 
          219.8      1.24656e-8 
            223      2.50034e-8 
          226.8      5.57035e-8 
            230      1.89547e-6 
            234      4.76767e-6 
            240      1.32326e-5 
          246.5      3.78526e-5 
          252.4      9.49012e-5 
          256.8     0.000173654 
            260     0.000290494 
            264     0.000504814 
          268.5     0.000921963 
          273.5      0.00175471 
          278.5      0.00328337 
            284      0.00644339 
            290       0.0128209 
            296        0.024805 
            301       0.0419346 
            308       0.0835275 
            318        0.228607 
            328        0.555023 
            338         1.31669 
            348         2.91932 
            357         6.27217 
            366         12.1001 
            375         21.7918 
            385         41.3265 
            395         75.7974 
            405         133.813 
            414         219.383 
            422         329.525 
            430         493.253 
            441         834.988 
            451         1312.38 
            460         1926.55 
            470          2928.9 
            480         4334.19 
            490         6347.76 
            500         9125.14 
            506         76613.9 
            512          439324 
            520          544544 
            530          743199 
            540          835923 
            550      1.25336e+6 
            560      1.51413e+6 
            570      1.92504e+6 
            580      1.89485e+6 
            590      2.59457e+6 
            600      3.20848e+6 
            610      3.94042e+6 
            620      4.53722e+6 
            630      5.26396e+6 
            640       5.6423e+6 
            650      5.65781e+6 
            658       7.5983e+6 
            665      8.38742e+6 
            675      9.06466e+6 
            685      9.97011e+6 
            695       1.2252e+7 
            705      1.32455e+7 
            716      1.52454e+7 
            726      1.65566e+7 
            735      1.78614e+7 
            745      2.05868e+7 
            755      2.27594e+7 
            765      2.51147e+7 
            775      2.77793e+7 
            785      3.04887e+7 
            795      3.27026e+7 
            805      3.51909e+7 
            815      3.74248e+7 
            825      4.13845e+7 
            835      4.11016e+7 
            845      4.60686e+7 
            855      4.90252e+7 
            865      5.31341e+7 
            875       5.7846e+7 
            885      6.31117e+7 
            895      6.72965e+7 
            905      6.89086e+7 
            915      1.39388e+8 
            925      1.94035e+9 
            935      4.55277e+9 
            945      7.68836e+9 
            955      9.11024e+9 
            965       9.8197e+9 
            975      2.16386e+9 
            985      8.39058e+9 
            995      8.57856e+9 
           1005     1.01185e+10 
           1015     1.01186e+10 
           1025      6.18007e+9 
           1035      7.61952e+9 
           1045     1.18036e+10 
           1055     1.09256e+10 
           1065      9.29048e+9 
           1075     1.07191e+10 
           1085      9.42956e+9 
           1095      1.0874e+10 
           1105      9.80495e+9 
           1115      9.57683e+9 
           1125      8.25865e+9 
           1135     1.03846e+10 
           1145      9.56604e+9 
           1155       9.9261e+9 
           1165      9.99791e+9 
           1175       6.7606e+9 
           1185      9.80788e+9 
           1195      8.77358e+9 
           1205       5.3862e+9 
           1215      4.78828e+9 
           1225      8.47464e+9 
           1235        9.445e+9 
           1245      9.37895e+9 
           1255      9.19947e+9 
           1265      9.08073e+9 
           1275      9.42829e+9 
           1285      9.22941e+9 
           1295      6.65792e+9 
           1305      7.17213e+9 
           1315      8.96626e+9 
           1325      8.45977e+9 
           1335      7.90038e+9 
           1345      8.36103e+9 
           1355      8.29758e+9 
           1365      7.71585e+9 
           1375      7.60104e+9 
           1385      7.54785e+9 
           1395      6.02817e+9 
           1405       6.4755e+9 
           1415      6.90982e+9 
           1425      6.87088e+9 
           1435      7.02462e+9 
           1442      7.16874e+9 
           1447      7.00755e+9 
           1455      6.86024e+9 
           1465      6.45042e+9 
           1475      6.48758e+9 
           1485      6.40563e+9 
           1495      6.29628e+9 
           1505      5.87392e+9 
           1512      5.26383e+9 
           1517      5.45542e+9 
           1525      5.60471e+9 
           1535      4.92899e+9 
           1545      4.97808e+9 
           1555      4.75799e+9 
           1565      5.05762e+9 
           1575      5.30903e+9 
           1585      5.26789e+9 
           1595      5.27031e+9 
           1605      5.22327e+9 
           1615      5.14781e+9 
           1625      5.06267e+9 
           1635      5.29237e+9 
           1645      5.24354e+9 
           1655      5.14735e+9 
           1665      5.25055e+9 
           1672       5.0645e+9 
           1677      5.32865e+9 
           1685      5.22364e+9 
           1695      4.96143e+9 
           1705      4.79739e+9 
           1715      4.55832e+9 
           1725      4.53449e+9 
           1735      4.68036e+9 
           1745      4.55969e+9 
           1755      4.61893e+9 
           1765      4.48318e+9 
           1775      4.29853e+9 
           1785      4.34592e+9 
           1795      4.46424e+9 
           1805      4.48614e+9 
           1815      4.03693e+9 
           1825      4.20365e+9 
           1835      4.08109e+9 
           1845      3.75155e+9 
           1855      3.69512e+9 
           1865      3.77008e+9 
           1875      3.97633e+9 
           1885      3.55628e+9 
           1895      3.30357e+9 
           1905      3.59038e+9 
           1915      3.38974e+9 
           1925      3.24766e+9 
           1935      3.42457e+9 
           1945      3.47987e+9 
           1955      3.16857e+9 
           1967       3.4307e+9 
           1976      3.56557e+9 
           1984      3.31895e+9 
           1995      3.24534e+9 
           2005      3.35868e+9 
           2015      3.32413e+9 
           2025      3.42597e+9 
           2035       3.1302e+9 
           2045      3.18516e+9 
           2055      3.09937e+9 
           2065      3.10777e+9 
           2074      3.29157e+9 
           2078      2.96195e+9 
           2085      3.11282e+9 
           2095      2.94352e+9 
           2105      3.02453e+9 
           2115      3.02985e+9 
           2125      3.06798e+9 
           2135      3.01856e+9 
           2145      2.84859e+9 
           2155      2.97585e+9 
           2165      2.96394e+9 
           2175      2.92448e+9 
           2185      2.83852e+9 
           2195      2.87331e+9 
           2205      2.84862e+9 
           2215      2.80384e+9 
           2225      2.73669e+9 
           2235      2.71173e+9 
           2245      2.73015e+9 
           2255      2.64635e+9 
           2265       2.6762e+9 
           2275      2.64152e+9 
           2285      2.64421e+9 
           2295      2.49726e+9 
           2305      2.56548e+9 
           2315      2.49289e+9 
           2325      2.46445e+9 
           2335      2.38742e+9 
           2345      2.38841e+9 
           2355      2.39996e+9 
           2365       2.3632e+9 
           2375      2.33025e+9 
           2385      2.30446e+9 
           2395      2.29439e+9 
           2405       2.2517e+9 
           2415      2.22735e+9 
           2425      2.23432e+9 
           2435      2.17598e+9 
           2445      2.17851e+9 
           2455      2.17842e+9 
           2465      2.13549e+9 
           2475      2.11008e+9 
           2485      2.08582e+9 
           2495      1.93859e+9 
           2505      2.03943e+9 
           2513      1.95572e+9 
           2518       2.0138e+9 
           2525      1.98391e+9 
           2535      1.95387e+9 
           2545      1.90365e+9 
           2555      1.93137e+9 
           2565       1.9011e+9 
           2575      1.90693e+9 
           2585      1.88263e+9 
           2595       1.8654e+9 
           2605      1.85599e+9 
           2615      1.83235e+9 
           2625      1.81585e+9 
           2635      1.79748e+9 
           2645      1.79377e+9 
           2655      1.78311e+9 
           2665      1.73862e+9 
           2675       1.7367e+9 
           2685      1.72849e+9 
           2695      1.68249e+9 
           2705      1.67332e+9 
           2715      1.66158e+9 
           2725      1.63926e+9 
           2735      1.63681e+9 
           2745      1.58831e+9 
           2755      1.58494e+9 
           2765      1.57152e+9 
           2775       1.5767e+9 
           2785      1.55418e+9 
           2795      1.50527e+9 
           2805      1.51764e+9 
           2815      1.51448e+9 
           2825      1.49174e+9 
           2835      1.44857e+9 
           2845      1.46237e+9 
           2855      1.44503e+9 
           2865      1.44106e+9 
           2875      1.42536e+9 
           2885      1.41318e+9 
           2895      1.39485e+9 
           2910      1.37277e+9 
           2930      1.34619e+9 
           2950       1.3119e+9 
           2970        1.296e+9 
           2990      1.26835e+9 
           3010      1.23716e+9 
           3030       1.2263e+9 
           3050      1.20375e+9 
           3070      1.18204e+9 
           3090      1.14943e+9 
           3110      1.13606e+9 
           3130      1.11486e+9 
           3150       1.0949e+9 
           3170      1.07145e+9 
           3190      1.04669e+9 
           3210      1.03508e+9 
           3230      1.01505e+9 
           3250      9.97954e+8 
           3270      9.79442e+8 
           3290      9.60853e+8 
           3310        9.457e+8 
           3330      9.28395e+8 
           3350       9.1073e+8 
           3370      8.95839e+8 
           3390      8.80842e+8 
           3410      8.65744e+8 
           3430      8.46103e+8 
           3450      8.28694e+8 
           3470      8.16603e+8 
           3490      8.03064e+8 
           3510      7.92991e+8 
           3530      7.81128e+8 
           3550      7.67987e+8 
           3570       7.5778e+8 
           3590      7.39685e+8 
           3610      7.26569e+8 
           3630      7.16383e+8 
           3640      7.14926e+8 
           3650      7.00184e+8 
           3670       6.9137e+8 
           3690       6.6807e+8 
           3710       6.6595e+8 
           3730      6.66951e+8 
           3750      7.31572e+8 
           3770      7.29688e+8 
           3790       7.4291e+8 
           3810      7.66118e+8 
           3830       6.8931e+8 
           3850      7.67641e+8 
           3870      7.52634e+8 
           3890      6.61936e+8 
           3910       7.4165e+8 
           3930      7.17852e+8 
           3950      7.16082e+8 
           3970      6.14732e+8 
           3990       6.9155e+8 
           4010      6.81459e+8 
           4030      6.54925e+8 
           4050      6.62598e+8 
           4070       6.4464e+8 
           4090      6.21055e+8 
           4110      5.62593e+8 
           4130      6.11071e+8 
           4150      6.04954e+8 
           4170      5.99274e+8 
           4190      5.92258e+8 
           4210      5.84816e+8 
           4230      5.74267e+8 
           4250      5.63514e+8 
           4270      5.49983e+8 
           4290      5.45645e+8 
           4310      5.35015e+8 
           4330      5.08866e+8 
           4350      4.69416e+8 
           4370      5.09989e+8 
           4390      4.99469e+8 
           4410      4.97215e+8 
           4430      4.89415e+8 
           4450      4.83979e+8 
           4470      4.65781e+8 
           4490      4.68443e+8 
           4510      4.63834e+8 
           4530      4.56186e+8 
           4550      4.49437e+8 
           4570      4.42445e+8 
           4590      4.36291e+8 
           4610      4.28862e+8 
           4630      4.22652e+8 
           4650      4.13536e+8 
           4670      4.10761e+8 
           4690       4.0634e+8 
           4710      3.94117e+8 
           4730      3.92138e+8 
           4750      3.86238e+8 
           4770      3.84248e+8 
           4790       3.7837e+8 
           4810      3.72087e+8 
           4830      3.66606e+8 
           4850      3.52794e+8 
           4870      3.20738e+8 
           4890      3.51898e+8 
           4910        3.476e+8 
           4930      3.37392e+8 
           4950      3.37577e+8 
           4970      3.33828e+8 
           4990      3.28949e+8 
           5010      3.18553e+8 
           5030      3.19821e+8 
           5050      3.12729e+8 
           5070       3.1138e+8 
           5090      3.07149e+8 
           5110      3.02831e+8 
           5130      2.97626e+8 
           5150      2.93926e+8 
           5170      2.91093e+8 
           5190      2.87287e+8 
           5210      2.82782e+8 
           5230      2.79673e+8 
           5250      2.76084e+8 
           5270      2.72297e+8 
           5290      2.68963e+8 
           5310      2.65324e+8 
           5330      2.61904e+8 
           5350      2.58265e+8 
           5370      2.55365e+8 
           5390      2.51995e+8 
           5410      2.48861e+8 
           5430      2.45383e+8 
           5450      2.42317e+8 
           5470      2.39264e+8 
           5490      2.36336e+8 
           5510      2.33482e+8 
           5530      2.30429e+8 
           5550      2.27707e+8 
           5570      2.24763e+8 
           5590      2.22085e+8 
           5610        2.192e+8 
           5630      2.16647e+8 
           5650      2.13333e+8 
           5670      2.10355e+8 
           5690      2.07622e+8 
           5710      2.05927e+8 
           5730      2.03448e+8 
           5750      2.00759e+8 
           5770      1.98736e+8 
           5790      1.96309e+8 
           5810      1.93955e+8 
           5830      1.91474e+8 
           5850      1.89298e+8 
           5870      1.82751e+8 
           5890      1.83934e+8 
           5910      1.82486e+8 
           5930      1.80164e+8 
           5950      1.77912e+8 
           5970      1.76299e+8 
           5990      1.73948e+8 
           6010      1.72146e+8 
           6030      1.70032e+8 
           6050      1.68127e+8 
           6070      1.66264e+8 
           6090      1.64321e+8 
           6110       1.6245e+8 
           6130      1.60609e+8 
           6150      1.58441e+8 
           6170      1.56822e+8 
           6190      1.55141e+8 
           6210      1.53401e+8 
           6230      1.51671e+8 
           6250      1.49833e+8 
           6270      1.48227e+8 
           6290      1.46582e+8 
           6310      1.44888e+8 
           6330      1.43344e+8 
           6350      1.41414e+8 
           6370      1.40026e+8 
           6390      1.38561e+8 
           6410      1.37046e+8 
           6430      1.35585e+8 
           6450      1.34075e+8 
           6470      1.32437e+8 
           6490      1.31032e+8 
           6510      1.29704e+8 
           6530      1.28186e+8 
           6550      1.24919e+8 
           6570      1.12631e+8 
           6590      1.23113e+8 
           6610      1.22783e+8 
           6630      1.21546e+8 
           6650      1.20296e+8 
           6670       1.1817e+8 
           6690      1.16943e+8 
           6710      1.16531e+8 
           6730      1.15224e+8 
           6750      1.14096e+8 
           6770      1.12897e+8 
           6790      1.11317e+8 
           6810      1.10478e+8 
           6830      1.09347e+8 
           6850      1.08236e+8 
           6870      1.07112e+8 
           6890      1.05983e+8 
           6910      1.04873e+8 
           6930      1.03798e+8 
           6950      1.02765e+8 
           6970       1.0171e+8 
           6990      1.00651e+8 
           7010       9.9633e+7 
           7030      9.86248e+7 
           7050      9.76112e+7 
           7070      9.51831e+7 
           7090      9.56661e+7 
           7110      9.44952e+7 
           7130      9.35953e+7 
           7150      9.27997e+7 
           7170      9.18577e+7 
           7190      9.09611e+7 
           7210      9.00586e+7 
           7230       8.8235e+7 
           7250      8.82362e+7 
           7270      8.74021e+7 
           7290      8.58812e+7 
           7310      8.56798e+7 
           7330      8.48482e+7 
           7350      8.40315e+7 
           7370      8.32084e+7 
           7390      8.23999e+7 
           7410      8.15989e+7 
           7430      8.07986e+7 
           7450      8.00327e+7 
           7470      7.91862e+7 
           7490      7.84952e+7 
           7510      7.77103e+7 
           7530      7.69924e+7 
           7550      7.62744e+7 
           7570      7.55498e+7 
           7590      7.48252e+7 
           7610      7.41072e+7 
           7630       7.3415e+7 
           7650      7.27291e+7 
           7670      7.20429e+7 
           7690      7.13629e+7 
           7710      7.06889e+7 
           7730      7.00336e+7 
           7750      6.93778e+7 
           7770      6.85469e+7 
           7790      6.81022e+7 
           7810      6.74142e+7 
           7830       6.6849e+7 
           7850      6.62643e+7 
           7870      6.56481e+7 
           7890      6.49526e+7 
           7910      6.44078e+7 
           7930      6.37419e+7 
           7950      6.31176e+7 
           7970      6.25284e+7 
           7990       6.1962e+7 
           8010      6.14181e+7 
           8030      6.09022e+7 
           8050      6.03965e+7 
           8070      5.98834e+7 
           8090      5.92251e+7 
           8110      5.86985e+7 
           8130      5.83246e+7 
           8150      5.76757e+7 
           8170       5.7309e+7 
           8190      5.67093e+7 
           8210      5.59806e+7 
           8230      5.56132e+7 
           8250      5.51861e+7 
           8270      5.43725e+7 
           8290      5.41363e+7 
           8310      5.36818e+7 
           8330      5.32093e+7 
           8350      5.25041e+7 
           8370      5.20879e+7 
           8390      5.17135e+7 
           8410       5.1218e+7 
           8430       5.0741e+7 
           8450       5.0031e+7 
           8470      4.94852e+7 
           8490      4.97493e+7 
           8510      4.83817e+7 
           8530      4.91917e+7 
           8550      4.68453e+7 
           8570      4.91311e+7 
           8590      4.66827e+7 
