# Kurucz ODFNEW /NOVER (2003)
# teff = 8250 K (value for the effective temperature for the model. Temperatures are given in K)
# logg = 3.5 log(cm/s2) (value for Log(G) for the model.)
# meta = 0.5  (value for the Metallicity for the model.)
# lh = 1.25  (l/Hp where l is the  mixing length of the convective element and Hp is the pressure scale height)
# vtur = 2 km/s (Microturbulence velocity)
# alpha = 0.4  (Alpha)
#
# column 1: WAVELENGTH (ANGSTROM), Wavelength in Angstrom
# column 2: FLUX (ERG/CM2/S/A), Flux in erg/cm2/s/A
            338     1.27696e-23 
            348      1.9942e-22 
            357     1.48479e-21 
            366     9.87018e-21 
            375     5.96927e-20 
            385     3.98117e-19 
            395     2.40402e-18 
            405     8.32032e-19 
            414     3.32163e-18 
            422     1.07793e-17 
            430     3.33759e-17 
            441       1.471e-16 
            451     5.29363e-16 
            460      1.5928e-15 
            470      5.1371e-15 
            480     1.57203e-14 
            490     4.58116e-14 
            500     1.27363e-13 
            506     3.03769e-13 
            512     6.10455e-13 
            520     1.28588e-12 
            530     3.17451e-12 
            540     7.41108e-12 
            550     1.70344e-11 
            560     3.76441e-11 
            570     8.05881e-11 
            580     1.65497e-10 
            590      3.3884e-10 
            600     6.67449e-10 
            610      1.28823e-9 
            620      2.41885e-9 
            630      4.44482e-9 
            640      7.98563e-9 
            650       1.4108e-8 
            658      2.19078e-8 
            665      3.16539e-8 
            675      5.34346e-8 
            685      8.87579e-8 
            695      1.44694e-7 
            705      2.28649e-7 
            716      3.83059e-7 
            726      5.95761e-7 
            735      8.75671e-7 
            745      1.32257e-6 
            755       1.9788e-6 
            765       2.9297e-6 
            775      4.28485e-6 
            785      6.22783e-6 
            795      8.76338e-6 
            805      1.24136e-5 
            815      1.76447e-5 
            825      2.45657e-5 
            835      3.38137e-5 
            845      4.62005e-5 
            855      6.25576e-5 
            865      8.40086e-5 
            875     0.000110535 
            885     0.000147839 
            895     0.000194073 
            905     0.000250087 
            915       0.0837716 
            925        0.241459 
            935        0.314462 
            945        0.415597 
            955        0.567309 
            965         0.74292 
            975        0.926977 
            985         1.17287 
            995         1.44196 
           1005         1.91176 
           1015         2.40703 
           1025         2.89357 
           1035         3.67929 
           1045         4.56205 
           1055          5.6234 
           1065         6.78576 
           1075         8.39082 
           1085         10.2507 
           1095         12.1977 
           1105         37.1045 
           1115         118.068 
           1125         170.323 
           1135         235.599 
           1145          294.97 
           1155         323.829 
           1165         441.397 
           1175         526.309 
           1185         546.975 
           1195         278.242 
           1205         436.267 
           1215         110.669 
           1225         523.863 
           1235         989.751 
           1245         2211.44 
           1255         4757.24 
           1265         3619.39 
           1275         6327.55 
           1285         8402.59 
           1295         9691.48 
           1305         6414.04 
           1315         11299.5 
           1325         13282.5 
           1335         14288.8 
           1345           17180 
           1355         17485.1 
           1365         18660.1 
           1375         20209.1 
           1385         22133.7 
           1395         25120.1 
           1405         27710.4 
           1415         28422.8 
           1425           31591 
           1435         31631.6 
           1442         36213.3 
           1447         38606.6 
           1455         42628.5 
           1465         43233.3 
           1475         46671.6 
           1485         51265.8 
           1495         57366.7 
           1505         62499.8 
           1512         63329.7 
           1517         68349.5 
           1525           77519 
           1535          134674 
           1545          259904 
           1555          269971 
           1565          270454 
           1575          428786 
           1585          593881 
           1595          777915 
           1605          782101 
           1615          724882 
           1625          597474 
           1635          722321 
           1645      1.11275e+6 
           1655          631398 
           1665      1.04534e+6 
           1672          512380 
           1677      1.71384e+6 
           1685      3.21276e+6 
           1695      3.01971e+6 
           1705      5.43175e+6 
           1715      1.09644e+7 
           1725      1.15407e+7 
           1735      1.62182e+7 
           1745      1.45655e+7 
           1755      2.00729e+7 
           1765      1.18658e+7 
           1775      1.84812e+7 
           1785      1.66478e+7 
           1795      2.43855e+7 
           1805      1.76072e+7 
           1815      1.93704e+7 
           1825      1.64361e+7 
           1835      1.46967e+7 
           1845      1.30316e+7 
           1855      1.68208e+7 
           1865      2.01382e+7 
           1875      1.82973e+7 
           1885      1.91258e+7 
           1895      2.12199e+7 
           1905      1.82104e+7 
           1915      2.03721e+7 
           1925      1.93294e+7 
           1935      1.23144e+7 
           1945      2.16068e+7 
           1955      2.21127e+7 
           1967      2.51563e+7 
           1976      2.38325e+7 
           1984      2.22223e+7 
           1995      2.22231e+7 
           2005      2.05682e+7 
           2015        1.843e+7 
           2025      1.79415e+7 
           2035      2.17329e+7 
           2045      2.41648e+7 
           2055      2.09051e+7 
           2065      2.08401e+7 
           2074      2.56001e+7 
           2078      2.83126e+7 
           2085      2.65647e+7 
           2095      2.42165e+7 
           2105      2.18061e+7 
           2115       2.2355e+7 
           2125      2.28885e+7 
           2135      1.72611e+7 
           2145       2.2096e+7 
           2155      2.26637e+7 
           2165      1.98619e+7 
           2175      2.00986e+7 
           2185      2.15335e+7 
           2195      2.34645e+7 
           2205      2.17141e+7 
           2215      1.78481e+7 
           2225      1.72863e+7 
           2235      2.20213e+7 
           2245      1.97528e+7 
           2255      1.66864e+7 
           2265      1.70967e+7 
           2275      1.93532e+7 
           2285      2.06085e+7 
           2295      1.80045e+7 
           2305      1.91448e+7 
           2315      1.77426e+7 
           2325      1.68265e+7 
           2335      1.26847e+7 
           2345      9.83986e+6 
           2355      1.57362e+7 
           2365      1.00358e+7 
           2375      1.29784e+7 
           2385      8.14956e+6 
           2395      1.05682e+7 
           2405      1.01483e+7 
           2415      1.15689e+7 
           2425      1.63905e+7 
           2435      1.55185e+7 
           2445      1.71897e+7 
           2455      1.71431e+7 
           2465      1.66149e+7 
           2475      1.52048e+7 
           2485      1.57098e+7 
           2495       1.4752e+7 
           2505      1.95178e+7 
           2513      1.41018e+7 
           2518      1.44178e+7 
           2525      1.17936e+7 
           2535      1.05388e+7 
           2545      1.06783e+7 
           2555      1.44049e+7 
           2565      1.31224e+7 
           2575      1.61615e+7 
           2585      1.59724e+7 
           2595       1.4809e+7 
           2605      1.32726e+7 
           2615      1.23312e+7 
           2625      1.62799e+7 
           2635      1.80969e+7 
           2645      2.41863e+7 
           2655      2.53887e+7 
           2665      1.93138e+7 
           2675      2.21969e+7 
           2685        2.141e+7 
           2695      1.98064e+7 
           2705      2.15271e+7 
           2715      1.87776e+7 
           2725       1.9051e+7 
           2735      2.10831e+7 
           2745      1.30447e+7 
           2755      1.46318e+7 
           2765      1.60592e+7 
           2775      1.87748e+7 
           2785      1.31011e+7 
           2795      4.58854e+6 
           2805      6.10196e+6 
           2815      1.71026e+7 
           2825      2.26789e+7 
           2835      2.21264e+7 
           2845      2.11008e+7 
           2855      1.80174e+7 
           2865      2.30699e+7 
           2875      2.22639e+7 
           2885      2.25909e+7 
           2895      2.11743e+7 
           2910      2.59112e+7 
           2930      2.38354e+7 
           2950      2.39847e+7 
           2970      2.59853e+7 
           2990      2.60286e+7 
           3010      2.70926e+7 
           3030      2.66512e+7 
           3050      2.63178e+7 
           3070      2.64561e+7 
           3090      2.75501e+7 
           3110      2.63151e+7 
           3130      2.62041e+7 
           3150      2.72464e+7 
           3170      2.68066e+7 
           3190      2.45993e+7 
           3210      2.61141e+7 
           3230      2.43203e+7 
           3250      2.60716e+7 
           3270      2.69139e+7 
           3290      2.70711e+7 
           3310      2.78143e+7 
           3330      2.68697e+7 
           3350       2.6342e+7 
           3370      2.58439e+7 
           3390      2.64374e+7 
           3410      2.69666e+7 
           3430      2.72692e+7 
           3450      2.70254e+7 
           3470      2.65759e+7 
           3490      2.63455e+7 
           3510      2.72387e+7 
           3530       2.7112e+7 
           3550      2.82497e+7 
           3570      2.64325e+7 
           3590      2.63253e+7 
           3610      2.65377e+7 
           3630      2.67218e+7 
           3640      2.61222e+7 
           3650      2.77418e+7 
           3670      2.74201e+7 
           3690      2.61517e+7 
           3710      2.79945e+7 
           3730      2.91383e+7 
           3750      3.71519e+7 
           3770      4.06101e+7 
           3790      5.14314e+7 
           3810      6.09651e+7 
           3830      4.69136e+7 
           3850      6.69255e+7 
           3870      7.70896e+7 
           3890      4.27814e+7 
           3910      7.45125e+7 
           3930      5.12131e+7 
           3950      6.99759e+7 
           3970      3.51299e+7 
           3990      7.40628e+7 
           4010      8.51244e+7 
           4030      8.41006e+7 
           4050      8.32606e+7 
           4070      7.96379e+7 
           4090      6.28397e+7 
           4110       4.7334e+7 
           4130      7.52734e+7 
           4150      8.11972e+7 
           4170      7.96988e+7 
           4190      7.92273e+7 
           4210      7.90439e+7 
           4230      7.64033e+7 
           4250      7.67892e+7 
           4270      7.25301e+7 
           4290      7.35912e+7 
           4310      6.64059e+7 
           4330      5.16401e+7 
           4350       4.3583e+7 
           4370      6.78913e+7 
           4390      6.90491e+7 
           4410      6.80969e+7 
           4430      6.63373e+7 
           4450      6.81433e+7 
           4470      6.82607e+7 
           4490         6.66e+7 
           4510      6.92964e+7 
           4530      6.54199e+7 
           4550      6.46659e+7 
           4570       6.7128e+7 
           4590      6.37708e+7 
           4610      6.57625e+7 
           4630      6.31131e+7 
           4650      6.37857e+7 
           4670      6.35463e+7 
           4690      6.05066e+7 
           4710      5.78422e+7 
           4730      6.09845e+7 
           4750      6.07142e+7 
           4770      5.93501e+7 
           4790      5.87521e+7 
           4810      5.68902e+7 
           4830      5.47325e+7 
           4850      4.16152e+7 
           4870      3.27743e+7 
           4890      5.09147e+7 
           4910      5.36386e+7 
           4930      5.29175e+7 
           4950      5.40882e+7 
           4970      5.43782e+7 
           4990      5.16057e+7 
           5010      4.89266e+7 
           5030      5.04278e+7 
           5050      4.95402e+7 
           5070      5.07682e+7 
           5090      5.00632e+7 
           5110      4.99664e+7 
           5130      4.85755e+7 
           5150      4.71776e+7 
           5170      4.63482e+7 
           5190      4.56071e+7 
           5210      4.58197e+7 
           5230      4.53542e+7 
           5250      4.59401e+7 
           5270      4.17845e+7 
           5290      4.47688e+7 
           5310      4.38029e+7 
           5330      4.13477e+7 
           5350      4.34833e+7 
           5370       4.3207e+7 
           5390      4.24098e+7 
           5410      4.10581e+7 
           5430      4.13874e+7 
           5450       4.1972e+7 
           5470       4.1264e+7 
           5490      4.06114e+7 
           5510        4.027e+7 
           5530      4.00851e+7 
           5550      3.99839e+7 
           5570      3.93051e+7 
           5590      3.87181e+7 
           5610      3.87573e+7 
           5630      3.87546e+7 
           5650      3.80264e+7 
           5670      3.71422e+7 
           5690      3.72877e+7 
           5710      3.69033e+7 
           5730      3.73965e+7 
           5750      3.63438e+7 
           5770      3.63322e+7 
           5790      3.58096e+7 
           5810      3.56405e+7 
           5830      3.54286e+7 
           5850      3.49512e+7 
           5870      3.46631e+7 
           5890      3.37765e+7 
           5910      3.40186e+7 
           5930      3.36952e+7 
           5950      3.32307e+7 
           5970      3.30898e+7 
           5990      3.25091e+7 
           6010      3.19458e+7 
           6030      3.19083e+7 
           6050      3.15567e+7 
           6070      3.16752e+7 
           6090      3.11872e+7 
           6110      3.07088e+7 
           6130      3.00506e+7 
           6150      2.90636e+7 
           6170      2.92011e+7 
           6190      2.98769e+7 
           6210      2.95314e+7 
           6230      2.90519e+7 
           6250      2.79645e+7 
           6270      2.88942e+7 
           6290       2.8666e+7 
           6310      2.79556e+7 
           6330      2.78329e+7 
           6350       2.7044e+7 
           6370      2.70601e+7 
           6390      2.71908e+7 
           6410      2.65722e+7 
           6430      2.66395e+7 
           6450      2.56595e+7 
           6470      2.60249e+7 
           6490       2.5414e+7 
           6510      2.52936e+7 
           6530      2.44913e+7 
           6550      2.10912e+7 
           6570      1.66769e+7 
           6590      2.30879e+7 
           6610      2.41987e+7 
           6630      2.43486e+7 
           6650       2.4239e+7 
           6670      2.39634e+7 
           6690      2.38827e+7 
           6710      2.36961e+7 
           6730      2.34066e+7 
           6750      2.29349e+7 
           6770      2.31843e+7 
           6790      2.29106e+7 
           6810       2.2743e+7 
           6830       2.2471e+7 
           6850      2.22878e+7 
           6870      2.22197e+7 
           6890      2.20235e+7 
           6910      2.18236e+7 
           6930      2.15942e+7 
           6950      2.14631e+7 
           6970      2.12284e+7 
           6990      2.11295e+7 
           7010      2.04295e+7 
           7030      2.06854e+7 
           7050      2.05531e+7 
           7070      2.04083e+7 
           7090      2.02679e+7 
           7110      1.95638e+7 
           7130      1.97358e+7 
           7150      1.95489e+7 
           7170      1.93674e+7 
           7190      1.92015e+7 
           7210      1.91466e+7 
           7230      1.89378e+7 
           7250      1.86127e+7 
           7270      1.87649e+7 
           7290      1.84196e+7 
           7310      1.84043e+7 
           7330      1.82633e+7 
           7350      1.81954e+7 
           7370      1.80885e+7 
           7390      1.78127e+7 
           7410       1.7526e+7 
           7430      1.72489e+7 
           7450      1.72236e+7 
           7470       1.7045e+7 
           7490      1.70414e+7 
           7510      1.69996e+7 
           7530      1.69127e+7 
           7550      1.68681e+7 
           7570      1.66187e+7 
           7590      1.65836e+7 
           7610      1.64263e+7 
           7630      1.63441e+7 
           7650      1.61146e+7 
           7670      1.58635e+7 
           7690      1.57525e+7 
           7710      1.57539e+7 
           7730      1.56724e+7 
           7750       1.5502e+7 
           7770      1.49549e+7 
           7790      1.53953e+7 
           7810      1.51918e+7 
           7830      1.50117e+7 
           7850       1.4788e+7 
           7870      1.47366e+7 
           7890      1.45325e+7 
           7910      1.44458e+7 
           7930      1.42293e+7 
           7950      1.40881e+7 
           7970      1.43353e+7 
           7990      1.39102e+7 
           8010      1.40809e+7 
           8030      1.38929e+7 
           8050      1.38425e+7 
           8070      1.37347e+7 
           8090      1.36444e+7 
           8110      1.35812e+7 
           8130      1.35304e+7 
           8150      1.34289e+7 
           8170      1.33322e+7 
           8190      1.29442e+7 
           8210       1.2775e+7 
           8230      1.26963e+7 
           8250      1.27284e+7 
           8270      1.29049e+7 
           8290      1.27736e+7 
           8310      1.26047e+7 
           8330      1.24417e+7 
           8350      1.24718e+7 
           8370      1.24408e+7 
           8390      1.22804e+7 
           8410      1.21997e+7 
           8430      1.20459e+7 
           8450      1.16903e+7 
           8470      1.16651e+7 
           8490      1.17958e+7 
           8510      1.09076e+7 
           8530      1.17382e+7 
           8550      9.63487e+6 
           8570      1.19685e+7 
           8590      1.10505e+7 
           8610      1.07182e+7 
           8630      1.19883e+7 
           8650        1.144e+7 
           8670       8.8994e+6 
           8690      1.13469e+7 
           8710      1.21137e+7 
           8730      1.15427e+7 
           8750      9.05922e+6 
           8770      1.10972e+7 
           8790      1.20551e+7 
           8810      1.21159e+7 
           8830       1.1562e+7 
           8850      1.03554e+7 
           8870      8.70084e+6 
           8890      1.10923e+7 
           8910      1.16623e+7 
           8930      1.16616e+7 
           8950      1.18325e+7 
           8970      1.15092e+7 
           8990      1.09192e+7 
           9010      8.56481e+6 
           9030      9.46202e+6 
           9050        1.094e+7 
           9070      1.09431e+7 
           9090      1.08357e+7 
           9110      1.10792e+7 
           9130      1.11491e+7 
           9150      1.11549e+7 
           9170      1.09472e+7 
           9190      1.05762e+7 
           9210      9.68781e+6 
           9230      7.45695e+6 
           9250      9.20926e+6 
           9270      9.86618e+6 
           9290      1.05187e+7 
           9310      1.05552e+7 
           9330      1.04265e+7 
           9350        1.046e+7 
           9370      1.04359e+7 
