# Kurucz ODFNEW /NOVER (2003)
# teff = 25000 K (value for the effective temperature for the model. Temperatures are given in K)
# logg = 4.5 log(cm/s2) (value for Log(G) for the model.)
# meta = -0.5  (value for the Metallicity for the model.)
# lh = 1.25  (l/Hp where l is the  mixing length of the convective element and Hp is the pressure scale height)
# vtur = 2 km/s (Microturbulence velocity)
# alpha = 0  (Alpha)
#
# column 1: WAVELENGTH (ANGSTROM), Wavelength in Angstrom
# column 2: FLUX (ERG/CM2/S/A), Flux in erg/cm2/s/A
          147.2       5.257e-14 
            151     2.25102e-13 
          155.2     1.04176e-12 
          158.8     3.64831e-12 
            162     1.06579e-11 
            166     3.85944e-11 
          170.3     1.44563e-10 
          173.4     3.61023e-10 
          176.8      9.5147e-10 
          180.2      2.42347e-9 
          181.7       3.6225e-9 
          186.1      1.13835e-8 
            191      3.84289e-8 
          193.9      7.67984e-8 
          198.4      2.16423e-7 
          201.8       4.5969e-7 
            205      9.13653e-7 
          210.5      2.83893e-6 
          216.2      8.66013e-6 
          219.8       1.7011e-5 
            223       3.0442e-5 
          226.8      5.94885e-5 
            230       0.0031151 
            234      0.00714847 
            240       0.0166559 
          246.5       0.0397709 
          252.4       0.0853567 
          256.8        0.139361 
            260        0.215494 
            264        0.338546 
          268.5        0.557264 
          273.5        0.947335 
          278.5          1.5875 
            284         2.77503 
            290         4.87822 
            296         8.38586 
            301         12.8769 
            308         22.4463 
            318         51.8392 
            328         106.526 
            338         216.767 
            348         414.669 
            357         788.019 
            366         1357.32 
            375         2171.89 
            385         3658.64 
            395         5993.14 
            405         9459.52 
            414         14141.1 
            422         19504.7 
            430         27043.4 
            441         41258.3 
            451           59417 
            460         80514.3 
            470          112879 
            480          154395 
            490          209704 
            500          280633 
            506      1.67121e+6 
            512      7.25496e+6 
            520      8.56809e+6 
            530      1.07316e+7 
            540      1.16838e+7 
            550      1.58052e+7 
            560      1.80929e+7 
            570      2.17921e+7 
            580       2.1737e+7 
            590      2.76762e+7 
            600      3.15678e+7 
            610      3.67395e+7 
            620      4.05847e+7 
            630      4.50898e+7 
            640      4.61797e+7 
            650      4.64773e+7 
            658      5.67995e+7 
            665      6.32711e+7 
            675      6.76794e+7 
            685      7.24997e+7 
            695      8.61363e+7 
            705      9.09032e+7 
            716      1.01609e+8 
            726      1.07935e+8 
            735      1.14548e+8 
            745      1.27268e+8 
            755      1.36925e+8 
            765      1.47151e+8 
            775      1.58676e+8 
            785      1.70555e+8 
            795      1.79059e+8 
            805      1.89212e+8 
            815      1.98136e+8 
            825      2.13642e+8 
            835      2.12327e+8 
            845      2.31032e+8 
            855      2.41753e+8 
            865      2.57071e+8 
            875       2.7375e+8 
            885      2.91518e+8 
            895      3.05405e+8 
            905      3.11075e+8 
            915      4.09571e+8 
            925       2.0388e+9 
            935        5.612e+9 
            945     1.55269e+10 
            955     2.27593e+10 
            965     3.00061e+10 
            975      6.68116e+9 
            985      3.1987e+10 
            995     2.99489e+10 
           1005     3.29552e+10 
           1015     3.02641e+10 
           1025      9.81639e+9 
           1035     2.40012e+10 
           1045     3.59437e+10 
           1055      3.3871e+10 
           1065     2.86905e+10 
           1075     3.19724e+10 
           1085     2.86061e+10 
           1095     3.15422e+10 
           1105     2.89884e+10 
           1115     2.85347e+10 
           1125     2.47578e+10 
           1135     2.85051e+10 
           1145     2.57206e+10 
           1155     2.66275e+10 
           1165     2.63925e+10 
           1175     1.87545e+10 
           1185     2.49782e+10 
           1195     2.26577e+10 
           1205     1.66049e+10 
           1215       7.4921e+9 
           1225     1.85324e+10 
           1235     2.24031e+10 
           1245      2.2286e+10 
           1255     2.17835e+10 
           1265     2.16344e+10 
           1275     2.20048e+10 
           1285     2.15587e+10 
           1295     1.72803e+10 
           1305     1.77317e+10 
           1315     2.04203e+10 
           1325     1.92265e+10 
           1335     1.84141e+10 
           1345     1.85399e+10 
           1355     1.84566e+10 
           1365     1.72539e+10 
           1375     1.68864e+10 
           1385     1.67108e+10 
           1395     1.40027e+10 
           1405     1.45634e+10 
           1415     1.51617e+10 
           1425     1.47766e+10 
           1435     1.49197e+10 
           1442     1.51448e+10 
           1447     1.48235e+10 
           1455     1.44832e+10 
           1465     1.36942e+10 
           1475     1.36254e+10 
           1485     1.33109e+10 
           1495     1.30846e+10 
           1505     1.21425e+10 
           1512     1.11285e+10 
           1517     1.13964e+10 
           1525     1.15642e+10 
           1535     1.02778e+10 
           1545     1.02824e+10 
           1555      9.80982e+9 
           1565     1.02949e+10 
           1575     1.06498e+10 
           1585     1.04909e+10 
           1595     1.04467e+10 
           1605     1.02585e+10 
           1615     1.00128e+10 
           1625      9.91648e+9 
           1635     1.01807e+10 
           1645      9.97739e+9 
           1655      9.84934e+9 
           1665      9.92001e+9 
           1672      9.57299e+9 
           1677      9.99703e+9 
           1685      9.75412e+9 
           1695      9.36111e+9 
           1705      9.01538e+9 
           1715      8.64772e+9 
           1725      8.48596e+9 
           1735      8.63835e+9 
           1745      8.44176e+9 
           1755      8.47475e+9 
           1765      8.16083e+9 
           1775      7.90497e+9 
           1785      7.92317e+9 
           1795      8.02584e+9 
           1805      7.99971e+9 
           1815      7.41331e+9 
           1825      7.55795e+9 
           1835      7.33661e+9 
           1845      6.75895e+9 
           1855      6.73203e+9 
           1865      6.81427e+9 
           1875      6.98556e+9 
           1885      6.33381e+9 
           1895      5.92818e+9 
           1905      6.29722e+9 
           1915      6.00316e+9 
           1925      5.76019e+9 
           1935      5.98817e+9 
           1945      6.09316e+9 
           1955      5.57954e+9 
           1967      5.89803e+9 
           1976       6.1169e+9 
           1984      5.69221e+9 
           1995      5.56941e+9 
           2005      5.66946e+9 
           2015      5.63504e+9 
           2025      5.74149e+9 
           2035      5.33406e+9 
           2045      5.34661e+9 
           2055       5.1864e+9 
           2065      5.21527e+9 
           2074      5.37899e+9 
           2078      5.01901e+9 
           2085      5.12662e+9 
           2095      4.89497e+9 
           2105      5.01733e+9 
           2115      4.98145e+9 
           2125      5.03404e+9 
           2135       4.9227e+9 
           2145      4.71413e+9 
           2155      4.82485e+9 
           2165      4.77781e+9 
           2175      4.69846e+9 
           2185      4.60616e+9 
           2195      4.60518e+9 
           2205      4.54638e+9 
           2215      4.48507e+9 
           2225      4.38199e+9 
           2235      4.31903e+9 
           2245      4.31667e+9 
           2255      4.21075e+9 
           2265      4.21265e+9 
           2275       4.1524e+9 
           2285      4.12754e+9 
           2295      3.93858e+9 
           2305      4.00077e+9 
           2315       3.9059e+9 
           2325      3.86094e+9 
           2335      3.76638e+9 
           2345      3.74474e+9 
           2355      3.73284e+9 
           2365      3.67541e+9 
           2375      3.61747e+9 
           2385      3.57495e+9 
           2395      3.53859e+9 
           2405       3.4805e+9 
           2415      3.43559e+9 
           2425      3.42781e+9 
           2435      3.35041e+9 
           2445      3.32955e+9 
           2455      3.31123e+9 
           2465      3.25751e+9 
           2475      3.21642e+9 
           2485      3.17472e+9 
           2495      3.00547e+9 
           2505      3.09091e+9 
           2513      2.97289e+9 
           2518      3.04494e+9 
           2525        3.011e+9 
           2535      2.96806e+9 
           2545      2.90081e+9 
           2555      2.90798e+9 
           2565      2.86863e+9 
           2575      2.85452e+9 
           2585      2.82182e+9 
           2595      2.78926e+9 
           2605      2.76756e+9 
           2615       2.7364e+9 
           2625      2.70991e+9 
           2635      2.67853e+9 
           2645      2.65551e+9 
           2655      2.62865e+9 
           2665      2.57013e+9 
           2675      2.55232e+9 
           2685      2.54239e+9 
           2695      2.47272e+9 
           2705      2.46328e+9 
           2715      2.44077e+9 
           2725      2.40052e+9 
           2735      2.39563e+9 
           2745      2.33526e+9 
           2755      2.32375e+9 
           2765      2.29121e+9 
           2775      2.29625e+9 
           2785      2.26434e+9 
           2795      2.19136e+9 
           2805      2.20128e+9 
           2815      2.19675e+9 
           2825      2.14997e+9 
           2835      2.09673e+9 
           2845      2.12013e+9 
           2855      2.09407e+9 
           2865      2.07833e+9 
           2875      2.05506e+9 
           2885      2.03337e+9 
           2895       2.0095e+9 
           2910       1.9742e+9 
           2930      1.93238e+9 
           2950       1.8767e+9 
           2970       1.8542e+9 
           2990      1.81064e+9 
           3010      1.76845e+9 
           3030      1.74276e+9 
           3050       1.7075e+9 
           3070      1.67374e+9 
           3090      1.62776e+9 
           3110      1.60474e+9 
           3130      1.57257e+9 
           3150      1.54189e+9 
           3170      1.50821e+9 
           3190      1.46722e+9 
           3210      1.45173e+9 
           3230      1.42171e+9 
           3250       1.3951e+9 
           3270      1.36872e+9 
           3290      1.34043e+9 
           3310      1.31741e+9 
           3330      1.29167e+9 
           3350      1.26525e+9 
           3370      1.24312e+9 
           3390      1.22066e+9 
           3410      1.19799e+9 
           3430      1.16984e+9 
           3450      1.14394e+9 
           3470      1.12597e+9 
           3490        1.105e+9 
           3510      1.08722e+9 
           3530      1.07064e+9 
           3550      1.05152e+9 
           3570      1.03898e+9 
           3590      1.01098e+9 
           3610      9.95585e+8 
           3630      9.77097e+8 
           3640      9.76541e+8 
           3650      9.57765e+8 
           3670       9.4604e+8 
           3690      9.28591e+8 
           3710      8.95971e+8 
           3730      8.59121e+8 
           3750      8.76664e+8 
           3770      8.68209e+8 
           3790      9.14593e+8 
           3810      9.53729e+8 
           3830      8.30459e+8 
           3850      9.82457e+8 
           3870      9.94314e+8 
           3890      7.82483e+8 
           3910      9.82871e+8 
           3930      9.65453e+8 
           3950      9.50099e+8 
           3970      7.27864e+8 
           3990      9.09493e+8 
           4010      9.12157e+8 
           4030      8.52605e+8 
           4050      8.90737e+8 
           4070      8.61673e+8 
           4090      7.85028e+8 
           4110      6.86124e+8 
           4130      8.10358e+8 
           4150      8.07576e+8 
           4170      8.02946e+8 
           4190      7.92831e+8 
           4210      7.82213e+8 
           4230       7.6757e+8 
           4250      7.52082e+8 
           4270      7.32326e+8 
           4290      7.25104e+8 
           4310       7.0606e+8 
           4330      6.31114e+8 
           4350      5.74894e+8 
           4370      6.69365e+8 
           4390      6.48776e+8 
           4410       6.5722e+8 
           4430      6.47287e+8 
           4450      6.39446e+8 
           4470      5.97875e+8 
           4490      6.17097e+8 
           4510      6.11506e+8 
           4530      6.01107e+8 
           4550      5.91539e+8 
           4570      5.81918e+8 
           4590      5.73156e+8 
           4610      5.63124e+8 
           4630      5.54245e+8 
           4650      5.42257e+8 
           4670      5.38002e+8 
           4690      5.31471e+8 
           4710      5.13432e+8 
           4730       5.1272e+8 
           4750      5.04605e+8 
           4770      5.01011e+8 
           4790      4.92879e+8 
           4810      4.83187e+8 
           4830      4.72557e+8 
           4850      4.31111e+8 
           4870       3.8426e+8 
           4890      4.50728e+8 
           4910      4.48532e+8 
           4930      4.30935e+8 
           4950      4.37315e+8 
           4970       4.3211e+8 
           4990      4.25597e+8 
           5010      4.10919e+8 
           5030      4.13271e+8 
           5050      4.03489e+8 
           5070      4.01983e+8 
           5090      3.96169e+8 
           5110      3.90333e+8 
           5130      3.83745e+8 
           5150      3.78498e+8 
           5170      3.74419e+8 
           5190      3.69315e+8 
           5210      3.63543e+8 
           5230      3.59157e+8 
           5250      3.54266e+8 
           5270       3.4929e+8 
           5290      3.44715e+8 
           5310      3.39945e+8 
           5330       3.3529e+8 
           5350      3.30485e+8 
           5370      3.26538e+8 
           5390      3.22097e+8 
           5410       3.1784e+8 
           5430      3.13369e+8 
           5450      3.09235e+8 
           5470      3.05177e+8 
           5490      3.01245e+8 
           5510      2.97399e+8 
           5530      2.93404e+8 
           5550      2.89728e+8 
           5570       2.8589e+8 
           5590      2.82293e+8 
           5610      2.78524e+8 
           5630      2.75075e+8 
           5650       2.7096e+8 
           5670      2.67094e+8 
           5690      2.63498e+8 
           5710       2.6102e+8 
           5730      2.57813e+8 
           5750       2.5429e+8 
           5770      2.51512e+8 
           5790      2.48339e+8 
           5810      2.45237e+8 
           5830      2.42039e+8 
           5850      2.39143e+8 
           5870      2.28212e+8 
           5890      2.31866e+8 
           5910      2.30246e+8 
           5930      2.27302e+8 
           5950      2.24404e+8 
           5970      2.22121e+8 
           5990       2.1916e+8 
           6010      2.16713e+8 
           6030      2.14003e+8 
           6050      2.11489e+8 
           6070      2.09024e+8 
           6090      2.06506e+8 
           6110      2.04056e+8 
           6130      2.01664e+8 
           6150        1.989e+8 
           6170      1.96782e+8 
           6190      1.94568e+8 
           6210      1.92311e+8 
           6230      1.90059e+8 
           6250      1.87706e+8 
           6270       1.8561e+8 
           6290      1.83489e+8 
           6310      1.81315e+8 
           6330      1.79288e+8 
           6350      1.76889e+8 
           6370      1.75056e+8 
           6390      1.73141e+8 
           6410      1.71173e+8 
           6430       1.6928e+8 
           6450      1.67327e+8 
           6470      1.65214e+8 
           6490      1.63446e+8 
           6510      1.61403e+8 
           6530      1.58808e+8 
           6550      1.50586e+8 
           6570      1.32949e+8 
           6590      1.51722e+8 
           6610      1.52331e+8 
           6630      1.51182e+8 
           6650      1.49635e+8 
           6670      1.46292e+8 
           6690      1.44737e+8 
           6710      1.44813e+8 
           6730      1.43155e+8 
           6750      1.41696e+8 
           6770      1.40161e+8 
           6790      1.38209e+8 
           6810       1.3709e+8 
           6830      1.35634e+8 
           6850      1.34217e+8 
           6870      1.32782e+8 
           6890      1.31346e+8 
           6910      1.29931e+8 
           6930      1.28571e+8 
           6950      1.27231e+8 
           6970      1.25897e+8 
           6990      1.24561e+8 
           7010      1.23253e+8 
           7030      1.21966e+8 
           7050      1.20684e+8 
           7070      1.17394e+8 
           7090      1.18202e+8 
           7110      1.16949e+8 
           7130      1.15745e+8 
           7150      1.14568e+8 
           7170       1.1338e+8 
           7190       1.1224e+8 
           7210      1.11097e+8 
           7230      1.08926e+8 
           7250      1.08806e+8 
           7270      1.07738e+8 
           7290      1.05716e+8 
           7310      1.05554e+8 
           7330      1.04502e+8 
           7350       1.0346e+8 
           7370      1.02427e+8 
           7390      1.01405e+8 
           7410      1.00391e+8 
           7430      9.93809e+7 
           7450      9.84204e+7 
           7470      9.73675e+7 
           7490      9.64788e+7 
           7510      9.54981e+7 
           7530      9.45862e+7 
           7550      9.36759e+7 
           7570      9.27609e+7 
           7590      9.18607e+7 
           7610      9.09491e+7 
           7630      9.00782e+7 
           7650      8.92151e+7 
           7670      8.83534e+7 
           7690      8.75059e+7 
           7710      8.66659e+7 
           7730      8.58271e+7 
           7750      8.50146e+7 
           7770      8.40159e+7 
           7790       8.3405e+7 
           7810      8.25646e+7 
           7830      8.18361e+7 
           7850      8.11079e+7 
           7870      8.03312e+7 
           7890      7.94706e+7 
           7910      7.88705e+7 
           7930      7.81137e+7 
           7950      7.73159e+7 
           7970      7.64895e+7 
           7990      7.57529e+7 
           8010      7.50815e+7 
           8030       7.4375e+7 
           8050      7.36919e+7 
           8070      7.30321e+7 
           8090        7.228e+7 
           8110      7.16548e+7 
           8130      7.10918e+7 
           8150       7.0386e+7 
           8170      6.98442e+7 
           8190      6.90935e+7 
           8210       6.8299e+7 
           8230      6.78229e+7 
           8250      6.72896e+7 
           8270      6.63091e+7 
           8290      6.60443e+7 
           8310      6.54868e+7 
           8330      6.48741e+7 
           8350      6.39693e+7 
           8370      6.36156e+7 
           8390      6.31628e+7 
           8410      6.26017e+7 
           8430      6.19976e+7 
           8450      6.09499e+7 
           8470      6.08882e+7 
           8490      6.01993e+7 
           8510      5.97034e+7 
           8530      5.91441e+7 
           8550      5.82236e+7 
           8570      5.86344e+7 
