# Kurucz ODFNEW /NOVER (2003)
# teff = 8000 K (value for the effective temperature for the model. Temperatures are given in K)
# logg = 5 log(cm/s2) (value for Log(G) for the model.)
# meta = 0  (value for the Metallicity for the model.)
# lh = 1.25  (l/Hp where l is the  mixing length of the convective element and Hp is the pressure scale height)
# vtur = 2 km/s (Microturbulence velocity)
# alpha = 0.4  (Alpha)
#
# column 1: WAVELENGTH (ANGSTROM), Wavelength in Angstrom
# column 2: FLUX (ERG/CM2/S/A), Flux in erg/cm2/s/A
            318     4.15831e-25 
            328     4.72418e-24 
            338     4.60904e-23 
            348     3.91929e-22 
            357     2.41191e-21 
            366     1.35265e-20 
            375       6.942e-20 
            385     3.88561e-19 
            395     1.98106e-18 
            405     9.27279e-18 
            414     3.47637e-17 
            422     1.06936e-16 
            430     3.14546e-16 
            441     1.29509e-15 
            451     4.39441e-15 
            460     1.25683e-14 
            470     3.84063e-14 
            480     1.11578e-13 
            490     3.09401e-13 
            500     8.20095e-13 
            506     1.90545e-12 
            512     3.72585e-12 
            520     7.57583e-12 
            530     1.79312e-11 
            540     4.02736e-11 
            550     8.88583e-11 
            560     1.88797e-10 
            570     3.89565e-10 
            580     7.72363e-10 
            590      1.52824e-9 
            600      2.91369e-9 
            610      5.43367e-9 
            620      9.89454e-9 
            630      1.76443e-8 
            640      3.08364e-8 
            650      5.29008e-8 
            658      8.03727e-8 
            665      1.14503e-7 
            675      1.88024e-7 
            685      3.03921e-7 
            695      4.83023e-7 
            705      7.50723e-7 
            716      1.21759e-6 
            726      1.85121e-6 
            735       2.6692e-6 
            745      3.95609e-6 
            755      5.80144e-6 
            765       8.4149e-6 
            775      1.20654e-5 
            785      1.71502e-5 
            795      2.37765e-5 
            805      3.32346e-5 
            815       4.6098e-5 
            825          6.3e-5 
            835       8.5296e-5 
            845     0.000114534 
            855     0.000152552 
            865     0.000201595 
            875      0.00026289 
            885      0.00034424 
            895     0.000445176 
            905     0.000569769 
            915        0.240507 
            925        0.789937 
            935          1.0472 
            945         1.38897 
            955          1.8836 
            965         2.42121 
            975         2.92399 
            985         3.74266 
            995         4.56174 
           1005         5.94173 
           1015         7.35632 
           1025         8.50902 
           1035         11.0354 
           1045         13.5219 
           1055         16.4816 
           1065         19.7451 
           1075         24.1498 
           1085          29.273 
           1095         34.6402 
           1105         95.3714 
           1115         287.993 
           1125         401.458 
           1135         555.082 
           1145         685.657 
           1155         740.934 
           1165         977.447 
           1175         1147.17 
           1185          1185.7 
           1195         685.699 
           1205         766.859 
           1215         207.989 
           1225         873.673 
           1235         1812.78 
           1245         3170.31 
           1255         5204.28 
           1265         4917.98 
           1275         6795.21 
           1285          8739.8 
           1295           10132 
           1305         8950.46 
           1315         12199.1 
           1325         13895.8 
           1335         15323.9 
           1345         17551.1 
           1355         18303.1 
           1365         20229.3 
           1375           21879 
           1385         23429.9 
           1395         26229.4 
           1405         28725.7 
           1415         30659.9 
           1425         33344.2 
           1435         34317.2 
           1442           38777 
           1447           40154 
           1455         43735.3 
           1465         45385.3 
           1475         48907.1 
           1485         52905.9 
           1495         58391.6 
           1505         63482.8 
           1512         65406.1 
           1517         69546.2 
           1525         78442.3 
           1535          117034 
           1545          171286 
           1555          187366 
           1565          178672 
           1575          238586 
           1585          269565 
           1595          305764 
           1605          317804 
           1615          336268 
           1625          339989 
           1635          428672 
           1645          670853 
           1655          472675 
           1665          821440 
           1672          594987 
           1677      1.32226e+6 
           1685      2.23074e+6 
           1695      1.36791e+6 
           1705      2.90962e+6 
           1715      6.95622e+6 
           1725      7.94029e+6 
           1735      1.21169e+7 
           1745      1.16695e+7 
           1755      1.61369e+7 
           1765      8.35481e+6 
           1775      1.41036e+7 
           1785      1.58993e+7 
           1795      2.04276e+7 
           1805      1.45036e+7 
           1815      1.44872e+7 
           1825       1.3364e+7 
           1835      1.37357e+7 
           1845        9.963e+6 
           1855      1.40892e+7 
           1865      1.84616e+7 
           1875      1.73983e+7 
           1885      1.83094e+7 
           1895      1.89339e+7 
           1905      1.69055e+7 
           1915      2.02293e+7 
           1925      1.90285e+7 
           1935      1.26515e+7 
           1945      2.13588e+7 
           1955      2.20339e+7 
           1967      2.45993e+7 
           1976      2.28831e+7 
           1984      2.09762e+7 
           1995      2.18284e+7 
           2005       1.9781e+7 
           2015       1.9908e+7 
           2025      1.76053e+7 
           2035      2.25907e+7 
           2045      2.42521e+7 
           2055      2.27829e+7 
           2065      2.28438e+7 
           2074      2.66966e+7 
           2078      2.90193e+7 
           2085      2.75292e+7 
           2095      2.54242e+7 
           2105      2.33059e+7 
           2115      2.43451e+7 
           2125      2.42158e+7 
           2135      2.02579e+7 
           2145      2.50952e+7 
           2155      2.46982e+7 
           2165      2.22836e+7 
           2175      2.21062e+7 
           2185      2.49108e+7 
           2195      2.68174e+7 
           2205      2.49452e+7 
           2215      2.11975e+7 
           2225      2.20804e+7 
           2235      2.65833e+7 
           2245      2.39386e+7 
           2255      2.15294e+7 
           2265       2.0977e+7 
           2275      2.29643e+7 
           2285      2.51419e+7 
           2295      2.17496e+7 
           2305      2.34879e+7 
           2315       2.3059e+7 
           2325      2.24597e+7 
           2335      1.93138e+7 
           2345        1.525e+7 
           2355      2.21356e+7 
           2365      1.63604e+7 
           2375      1.94181e+7 
           2385      1.39334e+7 
           2395      1.64385e+7 
           2405      1.62584e+7 
           2415      1.64522e+7 
           2425      2.09133e+7 
           2435      1.95461e+7 
           2445      2.20472e+7 
           2455       2.1998e+7 
           2465      2.21875e+7 
           2475      1.98106e+7 
           2485      1.96112e+7 
           2495       1.8529e+7 
           2505      2.35012e+7 
           2513      1.74335e+7 
           2518      1.58331e+7 
           2525      1.48183e+7 
           2535      1.34712e+7 
           2545      1.18207e+7 
           2555      1.44447e+7 
           2565      1.58881e+7 
           2575      2.10392e+7 
           2585       2.1953e+7 
           2595      2.17103e+7 
           2605      1.98218e+7 
           2615      1.85284e+7 
           2625      2.34951e+7 
           2635      2.43708e+7 
           2645      2.94118e+7 
           2655      3.14091e+7 
           2665      2.51051e+7 
           2675      2.80066e+7 
           2685      2.87254e+7 
           2695      2.50509e+7 
           2705       2.7186e+7 
           2715      2.40275e+7 
           2725      2.46043e+7 
           2735      2.67369e+7 
           2745      1.96314e+7 
           2755      2.13226e+7 
           2765      2.30284e+7 
           2775      2.48215e+7 
           2785      1.83089e+7 
           2795      7.28332e+6 
           2805      9.69113e+6 
           2815      2.45509e+7 
           2825      2.91928e+7 
           2835      2.84163e+7 
           2845      2.62397e+7 
           2855      2.06681e+7 
           2865      2.84242e+7 
           2875      2.82669e+7 
           2885      2.76757e+7 
           2895      2.71931e+7 
           2910      3.18957e+7 
           2930      2.95884e+7 
           2950      2.96795e+7 
           2970      3.13337e+7 
           2990      3.10107e+7 
           3010      3.15193e+7 
           3030      3.15182e+7 
           3050      3.14902e+7 
           3070      3.17208e+7 
           3090      3.20075e+7 
           3110      3.11324e+7 
           3130      3.11915e+7 
           3150       3.1763e+7 
           3170      3.15393e+7 
           3190      2.90815e+7 
           3210      3.03775e+7 
           3230      2.83613e+7 
           3250      3.01908e+7 
           3270      3.13397e+7 
           3290      3.13869e+7 
           3310      3.19794e+7 
           3330      3.11035e+7 
           3350      3.04495e+7 
           3370      2.99492e+7 
           3390      3.03463e+7 
           3410      3.03552e+7 
           3430      3.06042e+7 
           3450      3.03849e+7 
           3470      3.00394e+7 
           3490      3.01458e+7 
           3510      3.06243e+7 
           3530       3.0089e+7 
           3550      3.12414e+7 
           3570      2.93706e+7 
           3590       2.9042e+7 
           3610      2.92692e+7 
           3630      2.93106e+7 
           3640      2.88001e+7 
           3650      3.06134e+7 
           3670      3.03086e+7 
           3690      2.94304e+7 
           3710      2.89908e+7 
           3730      2.70647e+7 
           3750      3.01276e+7 
           3770      3.15688e+7 
           3790      3.71245e+7 
           3810      4.21703e+7 
           3830      3.32764e+7 
           3850      4.58607e+7 
           3870      5.05571e+7 
           3890      3.20537e+7 
           3910      5.00159e+7 
           3930      3.84562e+7 
           3950      4.86893e+7 
           3970      2.85997e+7 
           3990      5.03943e+7 
           4010       5.7739e+7 
           4030      5.81463e+7 
           4050       5.7137e+7 
           4070      5.43572e+7 
           4090      4.42443e+7 
           4110      3.49875e+7 
           4130      5.24116e+7 
           4150      5.62387e+7 
           4170       5.6266e+7 
           4190      5.59061e+7 
           4210      5.60712e+7 
           4230      5.40537e+7 
           4250      5.48873e+7 
           4270      5.29176e+7 
           4290      5.22309e+7 
           4310        4.746e+7 
           4330      3.84769e+7 
           4350      3.32382e+7 
           4370      4.90025e+7 
           4390      5.05666e+7 
           4410      5.04692e+7 
           4430      4.95174e+7 
           4450      5.02014e+7 
           4470      5.05583e+7 
           4490      4.98379e+7 
           4510      5.13268e+7 
           4530      4.90902e+7 
           4550      4.88197e+7 
           4570      5.00889e+7 
           4590      4.84464e+7 
           4610      4.91614e+7 
           4630      4.79609e+7 
           4650      4.80841e+7 
           4670      4.81861e+7 
           4690      4.62757e+7 
           4710      4.41327e+7 
           4730      4.64949e+7 
           4750      4.62277e+7 
           4770      4.55776e+7 
           4790      4.48021e+7 
           4810      4.35559e+7 
           4830      4.13614e+7 
           4850      3.26256e+7 
           4870       2.6581e+7 
           4890      3.87756e+7 
           4910      4.12247e+7 
           4930      4.11653e+7 
           4950      4.19357e+7 
           4970       4.2215e+7 
           4990      4.06987e+7 
           5010      3.93433e+7 
           5030      4.04292e+7 
           5050      3.97684e+7 
           5070      4.03844e+7 
           5090      3.98379e+7 
           5110      3.98412e+7 
           5130      3.90302e+7 
           5150      3.82077e+7 
           5170      3.69078e+7 
           5190      3.64336e+7 
           5210      3.71954e+7 
           5230      3.69211e+7 
           5250      3.73688e+7 
           5270      3.44813e+7 
           5290      3.65783e+7 
           5310      3.63207e+7 
           5330      3.41589e+7 
           5350      3.55321e+7 
           5370      3.52902e+7 
           5390       3.4951e+7 
           5410      3.38165e+7 
           5430      3.43804e+7 
           5450      3.44152e+7 
           5470       3.4028e+7 
           5490      3.35106e+7 
           5510      3.35035e+7 
           5530      3.31446e+7 
           5550      3.32473e+7 
           5570      3.26071e+7 
           5590       3.2086e+7 
           5610       3.2115e+7 
           5630      3.22022e+7 
           5650      3.18236e+7 
           5670      3.11682e+7 
           5690      3.12253e+7 
           5710      3.08648e+7 
           5730      3.11844e+7 
           5750      3.05007e+7 
           5770      3.04752e+7 
           5790      3.01515e+7 
           5810      3.00313e+7 
           5830      2.98644e+7 
           5850      2.94503e+7 
           5870      2.92423e+7 
           5890      2.85739e+7 
           5910      2.88123e+7 
           5930      2.85797e+7 
           5950      2.83198e+7 
           5970      2.81567e+7 
           5990      2.78409e+7 
           6010      2.74849e+7 
           6030      2.72086e+7 
           6050      2.71566e+7 
           6070      2.71119e+7 
           6090      2.67706e+7 
           6110      2.64443e+7 
           6130       2.5872e+7 
           6150       2.5437e+7 
           6170      2.52407e+7 
           6190      2.57533e+7 
           6210      2.55535e+7 
           6230      2.51539e+7 
           6250      2.45196e+7 
           6270      2.49959e+7 
           6290      2.48239e+7 
           6310      2.43734e+7 
           6330      2.42009e+7 
           6350      2.37543e+7 
           6370      2.36695e+7 
           6390      2.37301e+7 
           6410      2.32677e+7 
           6430      2.32599e+7 
           6450      2.26712e+7 
           6470      2.26501e+7 
           6490      2.22719e+7 
           6510       2.1985e+7 
           6530       2.1043e+7 
           6550      1.81505e+7 
           6570      1.47201e+7 
           6590      1.97941e+7 
           6610      2.10222e+7 
           6630      2.12864e+7 
           6650      2.13068e+7 
           6670      2.11758e+7 
           6690      2.11327e+7 
           6710      2.09575e+7 
           6730      2.08149e+7 
           6750      2.04362e+7 
           6770      2.05556e+7 
           6790      2.03849e+7 
           6810      2.02215e+7 
           6830      2.00782e+7 
           6850      1.98824e+7 
           6870      1.98051e+7 
           6890       1.9653e+7 
           6910      1.95023e+7 
           6930      1.93421e+7 
           6950      1.92161e+7 
           6970      1.90502e+7 
           6990      1.89505e+7 
           7010       1.8493e+7 
           7030      1.85945e+7 
           7050      1.85043e+7 
           7070       1.8356e+7 
           7090      1.82406e+7 
           7110      1.78266e+7 
           7130      1.78809e+7 
           7150      1.77199e+7 
           7170      1.75493e+7 
           7190      1.73884e+7 
           7210      1.73559e+7 
           7230      1.72167e+7 
           7250      1.70323e+7 
           7270      1.70371e+7 
           7290      1.67559e+7 
           7310      1.67827e+7 
           7330      1.66212e+7 
           7350      1.65803e+7 
           7370      1.64593e+7 
           7390      1.62385e+7 
           7410      1.60014e+7 
           7430      1.59038e+7 
           7450      1.58511e+7 
           7470      1.57468e+7 
           7490      1.56541e+7 
           7510      1.56102e+7 
           7530      1.55187e+7 
           7550      1.54472e+7 
           7570      1.52914e+7 
           7590      1.52122e+7 
           7610      1.50693e+7 
           7630      1.50098e+7 
           7650      1.48419e+7 
           7670       1.4634e+7 
           7690       1.4528e+7 
           7710      1.45421e+7 
           7730      1.44581e+7 
           7750      1.42945e+7 
           7770      1.39053e+7 
           7790      1.42052e+7 
           7810       1.4043e+7 
           7830      1.39179e+7 
           7850      1.37835e+7 
           7870      1.36965e+7 
           7890      1.35594e+7 
           7910      1.35005e+7 
           7930      1.32192e+7 
           7950      1.32106e+7 
           7970      1.33093e+7 
           7990      1.30828e+7 
           8010      1.31033e+7 
           8030      1.29721e+7 
           8050      1.28909e+7 
           8070      1.28311e+7 
           8090      1.27338e+7 
           8110      1.26676e+7 
           8130      1.26264e+7 
           8150      1.25294e+7 
           8170      1.24388e+7 
           8190      1.21647e+7 
           8210      1.20585e+7 
           8230      1.20067e+7 
           8250      1.19618e+7 
           8270      1.20571e+7 
           8290       1.1959e+7 
           8310      1.17886e+7 
           8330      1.16778e+7 
           8350      1.16716e+7 
           8370       1.1674e+7 
           8390      1.15483e+7 
           8410      1.15131e+7 
           8430      1.13833e+7 
           8450      1.11253e+7 
           8470      1.12193e+7 
           8490      1.10829e+7 
           8510      1.06735e+7 
           8530       1.0915e+7 
           8550      9.72609e+6 
           8570      1.09405e+7 
           8590      1.06165e+7 
           8610      1.04966e+7 
           8630      1.07586e+7 
           8650      1.04642e+7 
           8670      9.11291e+6 
           8690      1.02533e+7 
           8710      1.05941e+7 
           8730      1.02476e+7 
           8750        9.073e+6 
           8770      9.99464e+6 
           8790      1.04027e+7 
           8810      1.03676e+7 
           8830      1.01303e+7 
           8850       9.3631e+6 
           8870      8.38912e+6 
           8890      9.73903e+6 
           8910      1.00589e+7 
           8930      1.00601e+7 
           8950      1.01493e+7 
           8970      9.93832e+6 
           8990      9.50353e+6 
           9010      7.95456e+6 
           9030      8.53014e+6 
           9050      9.48878e+6 
           9070      9.53811e+6 
           9090      9.45288e+6 
           9110      9.64519e+6 
           9130       9.7128e+6 
           9150      9.65059e+6 
           9170      9.48982e+6 
           9190      9.21571e+6 
           9210       8.5193e+6 
           9230      6.96256e+6 
           9250      8.18337e+6 
           9270      8.72897e+6 
           9290      9.14104e+6 
           9310      9.19525e+6 
           9330       9.1628e+6 
           9350       9.1551e+6 
