# Kurucz ODFNEW /NOVER (2003)
# teff = 35000 K (value for the effective temperature for the model. Temperatures are given in K)
# logg = 5 log(cm/s2) (value for Log(G) for the model.)
# meta = 0.2  (value for the Metallicity for the model.)
# lh = 1.25  (l/Hp where l is the  mixing length of the convective element and Hp is the pressure scale height)
# vtur = 2 km/s (Microturbulence velocity)
# alpha = 0  (Alpha)
#
# column 1: WAVELENGTH (ANGSTROM), Wavelength in Angstrom
# column 2: FLUX (ERG/CM2/S/A), Flux in erg/cm2/s/A
          147.2     0.000264832 
            151     0.000649846 
          155.2      0.00166179 
          158.8      0.00357302 
            162      0.00685431 
            166       0.0149675 
          170.3       0.0331329 
          173.4       0.0575652 
          176.8        0.103357 
          180.2        0.180603 
          181.7        0.230899 
          186.1         0.45621 
            191        0.939433 
          193.9         1.41394 
          198.4         2.61435 
          201.8         4.06913 
            205         6.09042 
          210.5         11.8511 
          216.2         22.6179 
          219.8         33.8044 
            223         47.5205 
          226.8          71.146 
            230         20362.6 
            234           46002 
            240         68184.1 
          246.5          105885 
          252.4          163434 
          256.8          219207 
            260          354432 
            264          591775 
          268.5          854343 
          273.5       1.1088e+6 
          278.5      1.30074e+6 
            284      2.45578e+6 
            290      3.35437e+6 
            296      4.17079e+6 
            301      7.36319e+6 
            308      1.47596e+7 
            318      2.97486e+7 
            328      3.98076e+7 
            338      6.78379e+7 
            348      9.87801e+7 
            357      1.86143e+8 
            366      3.62679e+8 
            375      4.03372e+8 
            385      5.26341e+8 
            395      8.71506e+8 
            405      1.02338e+9 
            414      1.19701e+9 
            422      1.31089e+9 
            430      1.41138e+9 
            441      1.66606e+9 
            451      1.78957e+9 
            460      1.79142e+9 
            470      2.03884e+9 
            480      2.33134e+9 
            490      2.39516e+9 
            500       2.7988e+9 
            506      3.92685e+9 
            512     2.32539e+10 
            520      2.1641e+10 
            530     1.94963e+10 
            540     1.74295e+10 
            550     1.99112e+10 
            560     2.49703e+10 
            570     2.60916e+10 
            580     2.40854e+10 
            590     2.50583e+10 
            600      2.0176e+10 
            610     2.36618e+10 
            620     2.77823e+10 
            630     2.66159e+10 
            640      2.6589e+10 
            650     2.62034e+10 
            658     2.20166e+10 
            665     2.54248e+10 
            675     2.76504e+10 
            685     2.18487e+10 
            695     2.80161e+10 
            705     2.28808e+10 
            716     2.91687e+10 
            726     2.83264e+10 
            735     2.82485e+10 
            745      2.6843e+10 
            755     2.66197e+10 
            765     2.65997e+10 
            775     2.71408e+10 
            785     2.75493e+10 
            795     2.75461e+10 
            805     2.63183e+10 
            815     2.60751e+10 
            825     2.71256e+10 
            835     2.25559e+10 
            845     2.56642e+10 
            855     2.52096e+10 
            865     2.58284e+10 
            875     2.57635e+10 
            885     2.59051e+10 
            895     2.58745e+10 
            905     2.49655e+10 
            915     2.34243e+10 
            925     5.10525e+10 
            935     7.96616e+10 
            945      1.1259e+11 
            955     1.26176e+11 
            965     1.50599e+11 
            975     6.56267e+10 
            985     1.26703e+11 
            995     1.11041e+11 
           1005      1.1597e+11 
           1015     1.20516e+11 
           1025     8.61444e+10 
           1035     1.16315e+11 
           1045     1.33153e+11 
           1055     1.26288e+11 
           1065     1.08549e+11 
           1075     1.12628e+11 
           1085     1.01384e+11 
           1095     1.09105e+11 
           1105      1.0352e+11 
           1115      1.0215e+11 
           1125     8.48845e+10 
           1135     9.69178e+10 
           1145     9.27783e+10 
           1155     8.77842e+10 
           1165     8.39798e+10 
           1175     5.81129e+10 
           1185     7.67342e+10 
           1195     7.40941e+10 
           1205     7.04358e+10 
           1215     5.12259e+10 
           1225     6.72132e+10 
           1235     7.19904e+10 
           1245     6.95504e+10 
           1255     6.89918e+10 
           1265     7.04856e+10 
           1275     7.20076e+10 
           1285     7.17149e+10 
           1295     6.66107e+10 
           1305     6.62773e+10 
           1315     6.93427e+10 
           1325     6.65447e+10 
           1335     6.45982e+10 
           1345     6.38994e+10 
           1355     6.23483e+10 
           1365     5.98752e+10 
           1375     5.80769e+10 
           1385     5.59922e+10 
           1395     4.64846e+10 
           1405     4.67757e+10 
           1415     5.29751e+10 
           1425     4.73179e+10 
           1435      5.0316e+10 
           1442     4.96094e+10 
           1447     4.92888e+10 
           1455     4.69349e+10 
           1465     4.57662e+10 
           1475     4.56309e+10 
           1485     4.56283e+10 
           1495     4.40457e+10 
           1505     4.26273e+10 
           1512     4.16304e+10 
           1517     4.17886e+10 
           1525     4.03745e+10 
           1535     3.52439e+10 
           1545     3.00702e+10 
           1555     3.01848e+10 
           1565     3.34442e+10 
           1575     3.47749e+10 
           1585     3.48713e+10 
           1595     3.46946e+10 
           1605     3.28231e+10 
           1615     3.11772e+10 
           1625     3.19231e+10 
           1635     3.18974e+10 
           1645     3.15233e+10 
           1655        3.19e+10 
           1665       3.131e+10 
           1672     2.90082e+10 
           1677     3.33297e+10 
           1685     3.17521e+10 
           1695     3.06324e+10 
           1705     3.01083e+10 
           1715      2.8836e+10 
           1725     2.75543e+10 
           1735     2.84891e+10 
           1745      2.8171e+10 
           1755     2.76356e+10 
           1765      2.7148e+10 
           1775     2.61877e+10 
           1785     2.64945e+10 
           1795     2.58377e+10 
           1805     2.56632e+10 
           1815     2.49123e+10 
           1825     2.44489e+10 
           1835     2.43476e+10 
           1845     2.31226e+10 
           1855      2.3313e+10 
           1865     2.32749e+10 
           1875     2.27058e+10 
           1885     2.15972e+10 
           1895     2.11821e+10 
           1905     2.15977e+10 
           1915     2.09546e+10 
           1925     1.96171e+10 
           1935     2.06937e+10 
           1945      2.0835e+10 
           1955     1.90433e+10 
           1967     1.97718e+10 
           1976     2.00938e+10 
           1984     1.93817e+10 
           1995     1.88543e+10 
           2005     1.90969e+10 
           2015       1.897e+10 
           2025     1.88584e+10 
           2035     1.81113e+10 
           2045     1.78545e+10 
           2055      1.4442e+10 
           2065     1.38898e+10 
           2074     1.41777e+10 
           2078     1.39792e+10 
           2085     1.44436e+10 
           2095     1.50777e+10 
           2105     1.61574e+10 
           2115      1.6378e+10 
           2125     1.60257e+10 
           2135     1.58751e+10 
           2145      1.5571e+10 
           2155     1.55234e+10 
           2165      1.4841e+10 
           2175     1.51333e+10 
           2185     1.45887e+10 
           2195     1.48494e+10 
           2205     1.46259e+10 
           2215     1.39704e+10 
           2225     1.41488e+10 
           2235     1.39259e+10 
           2245     1.36751e+10 
           2255     1.31295e+10 
           2265     1.33281e+10 
           2275      1.3177e+10 
           2285     1.28087e+10 
           2295      1.1741e+10 
           2305      1.2135e+10 
           2315     1.22096e+10 
           2325     1.21452e+10 
           2335     1.19523e+10 
           2345      1.1791e+10 
           2355      1.1545e+10 
           2365     1.13614e+10 
           2375     1.11049e+10 
           2385     1.05828e+10 
           2395     1.07061e+10 
           2405     1.06779e+10 
           2415     1.05425e+10 
           2425      1.0464e+10 
           2435      1.0262e+10 
           2445     1.01492e+10 
           2455     1.00004e+10 
           2465      9.87855e+9 
           2475      9.74292e+9 
           2485      9.49995e+9 
           2495       7.7264e+9 
           2505      9.11411e+9 
           2513      8.60459e+9 
           2518      8.85031e+9 
           2525      9.05362e+9 
           2535      8.98292e+9 
           2545      8.79206e+9 
           2555       8.6824e+9 
           2565      8.57991e+9 
           2575      8.47306e+9 
           2585      8.37436e+9 
           2595      8.22211e+9 
           2605       8.1741e+9 
           2615      8.01419e+9 
           2625      7.95653e+9 
           2635      7.86424e+9 
           2645      7.72788e+9 
           2655      7.64573e+9 
           2665      7.47176e+9 
           2675      7.29754e+9 
           2685      7.32689e+9 
           2695      7.15125e+9 
           2705       7.0892e+9 
           2715      6.98852e+9 
           2725      6.91247e+9 
           2735      6.70588e+9 
           2745      6.77461e+9 
           2755      6.69176e+9 
           2765      6.57151e+9 
           2775      6.55847e+9 
           2785       6.4454e+9 
           2795      6.22769e+9 
           2805      6.24992e+9 
           2815      6.22841e+9 
           2825      6.12491e+9 
           2835      6.00022e+9 
           2845      6.00373e+9 
           2855      5.91229e+9 
           2865      5.81601e+9 
           2875      5.75785e+9 
           2885      5.68949e+9 
           2895      5.61429e+9 
           2910      5.48449e+9 
           2930       5.3989e+9 
           2950      5.23374e+9 
           2970      5.12505e+9 
           2990      4.97117e+9 
           3010      4.83215e+9 
           3030      4.71317e+9 
           3050       4.6382e+9 
           3070      4.55638e+9 
           3090      4.41394e+9 
           3110       4.3554e+9 
           3130      4.23916e+9 
           3150      4.15665e+9 
           3170        4.053e+9 
           3190      3.96347e+9 
           3210      3.85135e+9 
           3230      3.79513e+9 
           3250      3.72824e+9 
           3270      3.61759e+9 
           3290      3.55669e+9 
           3310      3.47739e+9 
           3330      3.39403e+9 
           3350      3.31038e+9 
           3370      3.24699e+9 
           3390      3.19962e+9 
           3410      3.12944e+9 
           3430       3.0682e+9 
           3450      2.98674e+9 
           3470      2.93589e+9 
           3490      2.87648e+9 
           3510      2.81979e+9 
           3530      2.76885e+9 
           3550      2.70916e+9 
           3570      2.66213e+9 
           3590      2.59257e+9 
           3610      2.54282e+9 
           3630        2.492e+9 
           3640      2.46607e+9 
           3650       2.3462e+9 
           3670      2.30831e+9 
           3690      2.26484e+9 
           3710      2.18977e+9 
           3730      2.15915e+9 
           3750      2.12745e+9 
           3770      2.06671e+9 
           3790       2.1078e+9 
           3810      2.15276e+9 
           3830      1.94661e+9 
           3850      2.15025e+9 
           3870      2.11714e+9 
           3890      1.81333e+9 
           3910      2.10724e+9 
           3930      2.06272e+9 
           3950      2.00038e+9 
           3970      1.67006e+9 
           3990      1.94587e+9 
           4010       1.9274e+9 
           4030      1.83771e+9 
           4050      1.87178e+9 
           4070      1.79642e+9 
           4090      1.66899e+9 
           4110      1.52098e+9 
           4130      1.70811e+9 
           4150      1.68966e+9 
           4170      1.68118e+9 
           4190      1.64768e+9 
           4210      1.61571e+9 
           4230        1.601e+9 
           4250      1.55741e+9 
           4270      1.52267e+9 
           4290       1.4979e+9 
           4310      1.45446e+9 
           4330      1.34212e+9 
           4350      1.25057e+9 
           4370      1.38537e+9 
           4390      1.35451e+9 
           4410      1.34855e+9 
           4430      1.33825e+9 
           4450      1.31374e+9 
           4470       1.2552e+9 
           4490      1.27196e+9 
           4510      1.24568e+9 
           4530      1.23087e+9 
           4550      1.20033e+9 
           4570      1.19533e+9 
           4590       1.1719e+9 
           4610      1.14926e+9 
           4630      1.12181e+9 
           4650      1.06981e+9 
           4670       1.0906e+9 
           4690      1.06284e+9 
           4710      1.04964e+9 
           4730      1.05434e+9 
           4750      1.03639e+9 
           4770       1.0251e+9 
           4790       1.0082e+9 
           4810      9.88829e+8 
           4830      9.66672e+8 
           4850      9.02405e+8 
           4870      8.21193e+8 
           4890      9.20755e+8 
           4910      9.11707e+8 
           4930       8.8388e+8 
           4950      8.84609e+8 
           4970      8.77275e+8 
           4990       8.6363e+8 
           5010       8.3488e+8 
           5030      8.34404e+8 
           5050      8.20554e+8 
           5070      8.13317e+8 
           5090      8.00569e+8 
           5110      7.88255e+8 
           5130      7.75421e+8 
           5150      7.64254e+8 
           5170      7.53335e+8 
           5190       7.4333e+8 
           5210      7.32943e+8 
           5230      7.22376e+8 
           5250      7.10035e+8 
           5270      6.99623e+8 
           5290      6.91678e+8 
           5310      6.81694e+8 
           5330      6.72079e+8 
           5350      6.62509e+8 
           5370      6.53259e+8 
           5390      6.43739e+8 
           5410      6.27597e+8 
           5430      6.26215e+8 
           5450      6.17416e+8 
           5470       6.0873e+8 
           5490      6.00353e+8 
           5510      5.92032e+8 
           5530       5.8379e+8 
           5550      5.76313e+8 
           5570      5.68186e+8 
           5590      5.59474e+8 
           5610      5.53158e+8 
           5630      5.45752e+8 
           5650      5.38048e+8 
           5670      5.29912e+8 
           5690      5.16884e+8 
           5710      5.05725e+8 
           5730      4.99573e+8 
           5750      4.92321e+8 
           5770      4.87058e+8 
           5790      4.80541e+8 
           5810      4.73567e+8 
           5830      4.66898e+8 
           5850      4.62445e+8 
           5870      4.45917e+8 
           5890       4.4967e+8 
           5910      4.45855e+8 
           5930      4.40796e+8 
           5950      4.35922e+8 
           5970      4.32107e+8 
           5990      4.26759e+8 
           6010      4.22683e+8 
           6030      4.17656e+8 
           6050      4.13551e+8 
           6070      4.08887e+8 
           6090       4.0391e+8 
           6110      3.98697e+8 
           6130      3.93954e+8 
           6150      3.88239e+8 
           6170      3.83697e+8 
           6190      3.79462e+8 
           6210      3.75029e+8 
           6230      3.70373e+8 
           6250      3.65528e+8 
           6270      3.61302e+8 
           6290      3.57008e+8 
           6310       3.5244e+8 
           6330      3.48487e+8 
           6350      3.43987e+8 
           6370      3.40206e+8 
           6390      3.36068e+8 
           6410      3.31911e+8 
           6430      3.28173e+8 
           6450      3.24058e+8 
           6470       3.1961e+8 
           6490      3.16087e+8 
           6510      3.11881e+8 
           6530       3.0689e+8 
           6550      2.94692e+8 
           6570      2.65426e+8 
           6590      2.94717e+8 
           6610      2.94169e+8 
           6630      2.91575e+8 
           6650      2.88179e+8 
           6670      2.81618e+8 
           6690      2.78346e+8 
           6710      2.77903e+8 
           6730      2.74532e+8 
           6750      2.71816e+8 
           6770      2.69135e+8 
           6790      2.65403e+8 
           6810      2.63091e+8 
           6830      2.60107e+8 
           6850      2.57249e+8 
           6870      2.54253e+8 
           6890      2.50684e+8 
           6910      2.48217e+8 
           6930      2.46096e+8 
           6950      2.43364e+8 
           6970      2.40698e+8 
           6990      2.38004e+8 
           7010      2.35268e+8 
           7030      2.32322e+8 
           7050      2.30051e+8 
           7070      2.24697e+8 
           7090      2.25342e+8 
           7110      2.22787e+8 
           7130      2.20427e+8 
           7150      2.18156e+8 
           7170      2.15402e+8 
           7190      2.13265e+8 
           7210      2.11236e+8 
           7230      2.07597e+8 
           7250      2.06553e+8 
           7270      2.04585e+8 
           7290      2.01124e+8 
           7310      2.00223e+8 
           7330       1.9815e+8 
           7350      1.96097e+8 
           7370      1.94056e+8 
           7390      1.92048e+8 
           7410      1.90038e+8 
           7430      1.88089e+8 
           7450      1.86089e+8 
           7470      1.83886e+8 
           7490       1.8179e+8 
           7510      1.80409e+8 
           7530      1.78528e+8 
           7550      1.76797e+8 
           7570      1.74957e+8 
           7590       1.7248e+8 
           7610      1.71165e+8 
           7630      1.69634e+8 
           7650      1.67957e+8 
           7670       1.6632e+8 
           7690      1.64354e+8 
           7710      1.62849e+8 
           7730      1.60961e+8 
           7750      1.59761e+8 
           7770      1.58191e+8 
           7790      1.56648e+8 
           7810      1.55056e+8 
           7830       1.5357e+8 
           7850      1.52043e+8 
           7870      1.50407e+8 
           7890      1.48895e+8 
           7910      1.47626e+8 
           7930      1.46187e+8 
           7950      1.44862e+8 
           7970      1.43377e+8 
           7990       1.4204e+8 
           8010      1.40651e+8 
           8030      1.39227e+8 
           8050      1.38007e+8 
           8070      1.36652e+8 
           8090      1.35275e+8 
           8110      1.33532e+8 
           8130      1.32791e+8 
           8150      1.31448e+8 
           8170      1.30263e+8 
           8190      1.28549e+8 
           8210      1.26415e+8 
           8230      1.24844e+8 
           8250      1.24151e+8 
           8270      1.22554e+8 
           8290      1.21936e+8 
           8310      1.20936e+8 
           8330       1.1959e+8 
           8350      1.18164e+8 
           8370      1.17428e+8 
           8390      1.16574e+8 
           8410      1.15451e+8 
           8430      1.14437e+8 
           8450      1.12978e+8 
           8470      1.12398e+8 
           8490      1.11268e+8 
           8510      1.09981e+8 
           8530      1.09227e+8 
           8550      1.08258e+8 
           8570      1.07528e+8 
           8590      1.05563e+8 
