# Kurucz ODFNEW /NOVER (2003)
# teff = 7750 K (value for the effective temperature for the model. Temperatures are given in K)
# logg = 2 log(cm/s2) (value for Log(G) for the model.)
# meta = -0.5  (value for the Metallicity for the model.)
# lh = 1.25  (l/Hp where l is the  mixing length of the convective element and Hp is the pressure scale height)
# vtur = 2 km/s (Microturbulence velocity)
# alpha = 0.4  (Alpha)
#
# column 1: WAVELENGTH (ANGSTROM), Wavelength in Angstrom
# column 2: FLUX (ERG/CM2/S/A), Flux in erg/cm2/s/A
            366     1.29202e-23 
            375     1.26126e-22 
            385     1.00365e-21 
            395     7.06689e-21 
            405     4.49595e-20 
            414     2.19634e-19 
            422     8.48214e-19 
            430      3.1096e-18 
            441     1.61223e-18 
            451     6.49864e-18 
            460     2.15658e-17 
            470      7.7215e-17 
            480     2.61127e-16 
            490     8.37607e-16 
            500     2.55347e-15 
            506     6.12305e-14 
            512     1.65052e-13 
            520     3.08503e-14 
            530     8.26525e-14 
            540      2.0923e-13 
            550     5.18056e-13 
            560     1.23014e-12 
            570     2.82564e-12 
            580      6.2176e-12 
            590     1.35897e-11 
            600     2.85456e-11 
            610     5.84148e-11 
            620     1.16469e-10 
            630     2.26712e-10 
            640     4.31418e-10 
            650     8.03553e-10 
            658       1.3017e-9 
            665      1.96243e-9 
            675      3.47579e-9 
            685      6.04389e-9 
            695      1.03217e-8 
            705      1.72787e-8 
            716      3.00682e-8 
            726      4.88284e-8 
            735      7.46032e-8 
            745      1.17833e-7 
            755      1.83677e-7 
            765      2.82612e-7 
            775      4.29395e-7 
            785      6.44975e-7 
            795      9.49356e-7 
            805      1.39995e-6 
            815      2.03756e-6 
            825      2.92854e-6 
            835      4.16651e-6 
            845       5.8734e-6 
            855       8.2017e-6 
            865      1.13529e-5 
            875      1.55411e-5 
            885      2.12029e-5 
            895      2.86305e-5 
            905      3.82601e-5 
            915       0.0465453 
            925        0.156416 
            935        0.203313 
            945        0.272377 
            955        0.384729 
            965        0.501483 
            975        0.601182 
            985        0.803024 
            995        0.977493 
           1005         1.31617 
           1015         1.63805 
           1025         1.90591 
           1035         2.55349 
           1045         3.20123 
           1055         3.96285 
           1065         4.74937 
           1075         5.91748 
           1085         7.24738 
           1095         8.56531 
           1105          28.293 
           1115         92.0623 
           1125         131.189 
           1135          176.52 
           1145         213.171 
           1155         221.885 
           1165         277.029 
           1175         289.732 
           1185         325.615 
           1195         96.4363 
           1205         74.1848 
           1215         17.3831 
           1225         85.0878 
           1235         245.493 
           1245         597.362 
           1255         1199.25 
           1265         1304.55 
           1275         2346.88 
           1285         3559.39 
           1295         4602.46 
           1305         3565.94 
           1315          6440.6 
           1325         8111.93 
           1335         9136.12 
           1345         11569.3 
           1355         12279.9 
           1365         13532.3 
           1375         15129.4 
           1385         17183.6 
           1395         19883.5 
           1405         22273.3 
           1415         23263.5 
           1425         26325.8 
           1435         26607.8 
           1442         30727.3 
           1447         33147.7 
           1455           37039 
           1465         37846.3 
           1475         41270.8 
           1485           45835 
           1495         51863.3 
           1505         56856.4 
           1512         57904.9 
           1517         62667.4 
           1525         66401.6 
           1535          299244 
           1545      1.16974e+6 
           1555       1.0923e+6 
           1565          972869 
           1575      1.64459e+6 
           1585      1.93162e+6 
           1595      2.42132e+6 
           1605        2.171e+6 
           1615      2.13394e+6 
           1625      1.97365e+6 
           1635      2.38857e+6 
           1645      3.31438e+6 
           1655      1.93191e+6 
           1665      3.26146e+6 
           1672      1.35406e+6 
           1677      4.12157e+6 
           1685      5.78146e+6 
           1695      6.09108e+6 
           1705      6.35043e+6 
           1715      7.97796e+6 
           1725      8.12488e+6 
           1735       9.5995e+6 
           1745      8.92798e+6 
           1755      1.08167e+7 
           1765      8.25746e+6 
           1775      1.03105e+7 
           1785      9.60734e+6 
           1795      1.23787e+7 
           1805      1.00583e+7 
           1815      1.12434e+7 
           1825       9.4314e+6 
           1835      9.21577e+6 
           1845       8.4292e+6 
           1855      9.51177e+6 
           1865      1.02413e+7 
           1875       1.0074e+7 
           1885       1.0436e+7 
           1895      1.11046e+7 
           1905      9.90078e+6 
           1915      1.09848e+7 
           1925      1.12186e+7 
           1935      9.14409e+6 
           1945      1.18296e+7 
           1955      1.19307e+7 
           1967      1.27291e+7 
           1976       1.2294e+7 
           1984      1.18945e+7 
           1995      1.15952e+7 
           2005      1.11444e+7 
           2015      1.05692e+7 
           2025      9.93312e+6 
           2035      1.13604e+7 
           2045      1.23693e+7 
           2055      1.11519e+7 
           2065      1.09329e+7 
           2074       1.3033e+7 
           2078      1.35883e+7 
           2085      1.29834e+7 
           2095      1.23378e+7 
           2105      1.14668e+7 
           2115      1.16475e+7 
           2125      1.18902e+7 
           2135      9.21198e+6 
           2145      1.12854e+7 
           2155       1.1447e+7 
           2165      1.05394e+7 
           2175      1.05606e+7 
           2185      1.10047e+7 
           2195      1.20486e+7 
           2205      1.15227e+7 
           2215      1.00252e+7 
           2225      9.86298e+6 
           2235      1.18949e+7 
           2245      1.05641e+7 
           2255      9.74898e+6 
           2265      9.74974e+6 
           2275      1.09053e+7 
           2285      1.13584e+7 
           2295      1.03234e+7 
           2305      1.08331e+7 
           2315      1.04368e+7 
           2325      1.00391e+7 
           2335       8.2667e+6 
           2345      6.84098e+6 
           2355      9.76666e+6 
           2365       7.0527e+6 
           2375      8.80741e+6 
           2385      5.91074e+6 
           2395      7.34343e+6 
           2405      7.01415e+6 
           2415      7.82885e+6 
           2425      1.01392e+7 
           2435      9.83246e+6 
           2445      1.05343e+7 
           2455      1.03242e+7 
           2465      1.02431e+7 
           2475      9.54366e+6 
           2485      1.00258e+7 
           2495      9.61034e+6 
           2505      1.16729e+7 
           2513      9.52506e+6 
           2518      9.89488e+6 
           2525      8.59036e+6 
           2535      8.14636e+6 
           2545      8.40818e+6 
           2555      9.68078e+6 
           2565      9.18171e+6 
           2575      1.03849e+7 
           2585      1.01418e+7 
           2595      9.57317e+6 
           2605      8.79421e+6 
           2615      8.36017e+6 
           2625      1.01921e+7 
           2635      1.08788e+7 
           2645      1.37671e+7 
           2655      1.38191e+7 
           2665      1.18203e+7 
           2675       1.2734e+7 
           2685      1.26315e+7 
           2695      1.18605e+7 
           2705      1.23383e+7 
           2715      1.11871e+7 
           2725      1.14085e+7 
           2735      1.24881e+7 
           2745      8.87199e+6 
           2755      9.76515e+6 
           2765      1.04269e+7 
           2775       1.1866e+7 
           2785      9.81479e+6 
           2795      3.78908e+6 
           2805      4.95378e+6 
           2815      1.15217e+7 
           2825      1.32161e+7 
           2835      1.28962e+7 
           2845      1.24091e+7 
           2855      1.13716e+7 
           2865      1.31186e+7 
           2875      1.27053e+7 
           2885      1.30483e+7 
           2895      1.24027e+7 
           2910      1.44359e+7 
           2930      1.37915e+7 
           2950      1.37787e+7 
           2970      1.44441e+7 
           2990      1.46253e+7 
           3010      1.49996e+7 
           3030      1.48913e+7 
           3050      1.47966e+7 
           3070      1.47452e+7 
           3090      1.52643e+7 
           3110      1.47555e+7 
           3130      1.47809e+7 
           3150      1.53148e+7 
           3170      1.53078e+7 
           3190      1.43641e+7 
           3210      1.50255e+7 
           3230      1.44508e+7 
           3250      1.50702e+7 
           3270      1.52863e+7 
           3290      1.55922e+7 
           3310      1.58644e+7 
           3330      1.54406e+7 
           3350      1.52105e+7 
           3370      1.51838e+7 
           3390      1.53572e+7 
           3410      1.57906e+7 
           3430      1.60488e+7 
           3450      1.58851e+7 
           3470       1.5666e+7 
           3490      1.55847e+7 
           3510      1.60271e+7 
           3530      1.61625e+7 
           3550      1.64679e+7 
           3570      1.58769e+7 
           3590      1.58747e+7 
           3610      1.60042e+7 
           3630      1.61489e+7 
           3640      1.58905e+7 
           3650       1.6465e+7 
           3670      1.62256e+7 
           3690      1.67056e+7 
           3710       2.0954e+7 
           3730      2.61324e+7 
           3750      3.79288e+7 
           3770      4.09573e+7 
           3790      5.16518e+7 
           3810      5.92885e+7 
           3830      4.60661e+7 
           3850      6.31818e+7 
           3870       6.8839e+7 
           3890      4.17382e+7 
           3910      6.64472e+7 
           3930      5.04228e+7 
           3950      6.48668e+7 
           3970      3.58255e+7 
           3990      6.53001e+7 
           4010       6.8413e+7 
           4030      6.72346e+7 
           4050      6.67513e+7 
           4070      6.48279e+7 
           4090      5.64888e+7 
           4110      4.31992e+7 
           4130      6.23461e+7 
           4150      6.37088e+7 
           4170      6.18707e+7 
           4190      6.14853e+7 
           4210      6.12469e+7 
           4230      5.97932e+7 
           4250      5.95238e+7 
           4270      5.80542e+7 
           4290      5.75265e+7 
           4310      5.39862e+7 
           4330      4.59778e+7 
           4350      3.92587e+7 
           4370      5.49404e+7 
           4390      5.40207e+7 
           4410       5.2848e+7 
           4430      5.29996e+7 
           4450      5.29409e+7 
           4470      5.25606e+7 
           4490      5.19028e+7 
           4510      5.22844e+7 
           4530      5.05093e+7 
           4550      4.93965e+7 
           4570       5.0576e+7 
           4590      4.89864e+7 
           4610      5.00779e+7 
           4630      4.85127e+7 
           4650      4.87601e+7 
           4670      4.82846e+7 
           4690      4.71509e+7 
           4710      4.54998e+7 
           4730      4.66936e+7 
           4750        4.655e+7 
           4770      4.56571e+7 
           4790      4.51059e+7 
           4810      4.44254e+7 
           4830      4.34575e+7 
           4850      3.63364e+7 
           4870      2.90447e+7 
           4890      4.14208e+7 
           4910      4.20342e+7 
           4930      4.12397e+7 
           4950      4.14468e+7 
           4970      4.14464e+7 
           4990      4.03008e+7 
           5010      3.89621e+7 
           5030       3.9515e+7 
           5050      3.89618e+7 
           5070       3.9061e+7 
           5090      3.86674e+7 
           5110      3.83393e+7 
           5130      3.75371e+7 
           5150      3.69833e+7 
           5170      3.59789e+7 
           5190      3.55679e+7 
           5210      3.57311e+7 
           5230       3.5132e+7 
           5250      3.55387e+7 
           5270      3.38004e+7 
           5290      3.47434e+7 
           5310      3.40586e+7 
           5330      3.32147e+7 
           5350      3.38856e+7 
           5370      3.33632e+7 
           5390      3.29293e+7 
           5410      3.24019e+7 
           5430      3.21956e+7 
           5450      3.22235e+7 
           5470      3.19253e+7 
           5490      3.16219e+7 
           5510      3.13382e+7 
           5530      3.09086e+7 
           5550      3.09199e+7 
           5570      3.04942e+7 
           5590      3.00787e+7 
           5610      2.99245e+7 
           5630      2.97895e+7 
           5650       2.9376e+7 
           5670      2.90297e+7 
           5690      2.89074e+7 
           5710      2.86221e+7 
           5730      2.85006e+7 
           5750      2.81341e+7 
           5770      2.79314e+7 
           5790      2.76433e+7 
           5810      2.74165e+7 
           5830      2.71733e+7 
           5850      2.68887e+7 
           5870      2.66621e+7 
           5890      2.61219e+7 
           5910      2.61805e+7 
           5930      2.59453e+7 
           5950      2.56637e+7 
           5970      2.54878e+7 
           5990      2.51677e+7 
           6010      2.49452e+7 
           6030      2.47624e+7 
           6050      2.45269e+7 
           6070      2.43809e+7 
           6090      2.41286e+7 
           6110       2.3875e+7 
           6130       2.3549e+7 
           6150      2.30664e+7 
           6170      2.30596e+7 
           6190      2.30996e+7 
           6210      2.28964e+7 
           6230      2.26195e+7 
           6250      2.21191e+7 
           6270      2.23232e+7 
           6290       2.2131e+7 
           6310      2.18367e+7 
           6330      2.17027e+7 
           6350      2.13457e+7 
           6370      2.12026e+7 
           6390      2.11559e+7 
           6410      2.08728e+7 
           6430      2.07723e+7 
           6450      2.03476e+7 
           6470      2.03867e+7 
           6490      2.00349e+7 
           6510      1.99343e+7 
           6530      1.96241e+7 
           6550      1.77026e+7 
           6570      1.40105e+7 
           6590      1.88087e+7 
           6610      1.91123e+7 
           6630      1.90872e+7 
           6650      1.89649e+7 
           6670      1.88115e+7 
           6690      1.86765e+7 
           6710      1.85201e+7 
           6730      1.83454e+7 
           6750      1.81483e+7 
           6770      1.80939e+7 
           6790      1.79286e+7 
           6810      1.77958e+7 
           6830      1.76158e+7 
           6850      1.74915e+7 
           6870      1.73706e+7 
           6890      1.72318e+7 
           6910       1.7092e+7 
           6930      1.69472e+7 
           6950      1.68194e+7 
           6970       1.6678e+7 
           6990      1.65549e+7 
           7010      1.63165e+7 
           7030      1.62703e+7 
           7050      1.61599e+7 
           7070      1.60362e+7 
           7090      1.59151e+7 
           7110      1.56163e+7 
           7130      1.56244e+7 
           7150      1.54863e+7 
           7170      1.53846e+7 
           7190      1.52561e+7 
           7210      1.51368e+7 
           7230      1.50165e+7 
           7250      1.48929e+7 
           7270       1.4821e+7 
           7290      1.46618e+7 
           7310      1.45563e+7 
           7330       1.4449e+7 
           7350      1.43641e+7 
           7370      1.42759e+7 
           7390      1.41442e+7 
           7410      1.39863e+7 
           7430      1.38688e+7 
           7450      1.37897e+7 
           7470      1.36431e+7 
           7490      1.35757e+7 
           7510      1.34974e+7 
           7530      1.34179e+7 
           7550      1.33389e+7 
           7570      1.32133e+7 
           7590      1.31372e+7 
           7610      1.30371e+7 
           7630      1.29449e+7 
           7650      1.28232e+7 
           7670      1.27135e+7 
           7690      1.26252e+7 
           7710      1.25249e+7 
           7730      1.24671e+7 
           7750      1.23671e+7 
           7770      1.20183e+7 
           7790      1.22069e+7 
           7810      1.21074e+7 
           7830      1.20038e+7 
           7850      1.18926e+7 
           7870      1.17903e+7 
           7890      1.16815e+7 
           7910      1.16436e+7 
           7930      1.15322e+7 
           7950      1.14326e+7 
           7970      1.14298e+7 
           7990      1.12311e+7 
           8010      1.12572e+7 
           8030      1.11668e+7 
           8050      1.10962e+7 
           8070      1.10158e+7 
           8090      1.09384e+7 
           8110      1.08679e+7 
           8130      1.07986e+7 
           8150      1.07218e+7 
           8170      1.06462e+7 
           8190      1.04752e+7 
           8210      1.04304e+7 
           8230      1.03547e+7 
           8250      1.02897e+7 
           8270      1.03204e+7 
           8290      1.02405e+7 
           8310      1.01443e+7 
           8330      9.98438e+6 
           8350      9.98686e+6 
           8370      9.81874e+6 
           8390      9.74148e+6 
           8410      9.64353e+6 
           8430      9.74308e+6 
           8450      9.55825e+6 
           8470      9.21752e+6 
           8490      9.96126e+6 
           8510      8.87357e+6 
           8530      1.00917e+7 
           8550      8.25375e+6 
           8570      1.03142e+7 
           8590      9.52952e+6 
           8610      9.20174e+6 
           8630      1.05153e+7 
           8650      1.01873e+7 
           8670      7.98726e+6 
           8690      1.02613e+7 
           8710      1.06666e+7 
           8730       1.0338e+7 
           8750      8.12087e+6 
           8770       9.9339e+6 
           8790      1.04685e+7 
           8810      1.03953e+7 
           8830      1.01941e+7 
           8850      9.43236e+6 
           8870       7.8988e+6 
           8890       9.8725e+6 
           8910      1.00237e+7 
           8930      9.98031e+6 
           8950      1.00091e+7 
           8970      9.89103e+6 
           8990      9.61726e+6 
           9010      7.79306e+6 
           9030      8.62994e+6 
           9050      9.52926e+6 
           9070      9.39386e+6 
           9090      9.27506e+6 
           9110      9.40551e+6 
           9130      9.42039e+6 
           9150      9.36801e+6 
           9170      9.27522e+6 
           9190      9.13274e+6 
           9210      8.68497e+6 
           9230      6.84139e+6 
           9250      8.35772e+6 
           9270      8.65927e+6 
           9290      8.90707e+6 
           9310      8.87492e+6 
           9330      8.81225e+6 
           9350      8.76985e+6 
           9370      8.71786e+6 
           9390      8.62095e+6 
           9410      8.37246e+6 
           9430      8.46112e+6 
