# Kurucz ODFNEW /NOVER (2003)
# teff = 27000 K (value for the effective temperature for the model. Temperatures are given in K)
# logg = 4 log(cm/s2) (value for Log(G) for the model.)
# meta = 0  (value for the Metallicity for the model.)
# lh = 1.25  (l/Hp where l is the  mixing length of the convective element and Hp is the pressure scale height)
# vtur = 2 km/s (Microturbulence velocity)
# alpha = 0  (Alpha)
#
# column 1: WAVELENGTH (ANGSTROM), Wavelength in Angstrom
# column 2: FLUX (ERG/CM2/S/A), Flux in erg/cm2/s/A
          147.2     3.58198e-12 
            151     1.34235e-11 
          155.2     5.40295e-11 
          158.8     1.69172e-10 
            162     4.49738e-10 
            166      1.45696e-9 
          170.3      4.86089e-9 
          173.4      1.12301e-8 
          176.8      2.72403e-8 
          180.2      6.40852e-8 
          181.7      9.25754e-8 
          186.1      2.64241e-7 
            191       8.0627e-7 
          193.9      1.52166e-6 
          198.4      3.93779e-6 
          201.8      7.86314e-6 
            205       1.4776e-5 
          210.5      4.18881e-5 
          216.2     0.000116793 
          219.8      0.00021731 
            223     0.000371199 
          226.8     0.000691056 
            230        0.086954 
            234        0.192857 
            240        0.403813 
          246.5         0.88419 
          252.4         1.74983 
          256.8         2.67445 
            260         4.31461 
            264         6.50639 
          268.5         10.3782 
          273.5         16.8053 
          278.5         26.4553 
            284          48.427 
            290         80.1569 
            296         130.129 
            301         189.302 
            308         334.499 
            318         748.921 
            328          1409.3 
            338            2752 
            348         4990.02 
            357         20061.8 
            366         39600.5 
            375         56378.8 
            385         90214.3 
            395          167070 
            405          237579 
            414          341570 
            422          441412 
            430          602767 
            441          855250 
            451      1.10864e+6 
            460      1.39498e+6 
            470      1.88723e+6 
            480      2.45643e+6 
            490      3.18643e+6 
            500      4.02136e+6 
            506      1.74463e+7 
            512      1.09834e+8 
            520      1.14798e+8 
            530       1.2255e+8 
            540      1.23385e+8 
            550      1.73296e+8 
            560       2.0391e+8 
            570       2.2918e+8 
            580       2.1597e+8 
            590      2.66827e+8 
            600      2.76352e+8 
            610      3.20255e+8 
            620      3.55521e+8 
            630      3.65216e+8 
            640      3.37042e+8 
            650      2.84843e+8 
            658      3.71488e+8 
            665      4.39944e+8 
            675       4.6299e+8 
            685      4.50381e+8 
            695      5.88104e+8 
            705      5.67779e+8 
            716      6.54847e+8 
            726      6.61497e+8 
            735      6.77196e+8 
            745      7.54375e+8 
            755      7.83893e+8 
            765      8.27585e+8 
            775      8.72413e+8 
            785      9.24545e+8 
            795      9.45065e+8 
            805      9.61379e+8 
            815      9.71451e+8 
            825       1.0495e+9 
            835      9.01535e+8 
            845      1.05401e+9 
            855      1.06181e+9 
            865      1.12008e+9 
            875      1.17734e+9 
            885      1.25329e+9 
            895      1.29561e+9 
            905      1.27992e+9 
            915      1.68808e+9 
            925     1.01572e+10 
            935     2.09906e+10 
            945     3.47847e+10 
            955      3.9983e+10 
            965     4.56416e+10 
            975      1.0064e+10 
            985     3.63137e+10 
            995     3.52625e+10 
           1005     4.00778e+10 
           1015     4.12374e+10 
           1025     2.57397e+10 
           1035     3.49086e+10 
           1045     4.75696e+10 
           1055     4.38357e+10 
           1065     3.60645e+10 
           1075     4.02214e+10 
           1085     3.62865e+10 
           1095     3.99752e+10 
           1105     3.69718e+10 
           1115     3.61268e+10 
           1125     2.85628e+10 
           1135     3.61661e+10 
           1145     3.33332e+10 
           1155     3.34193e+10 
           1165     3.27287e+10 
           1175     1.92307e+10 
           1185     3.01711e+10 
           1195     2.87555e+10 
           1205     2.27007e+10 
           1215     1.76089e+10 
           1225     2.66413e+10 
           1235      2.9383e+10 
           1245     2.81862e+10 
           1255      2.7923e+10 
           1265     2.85073e+10 
           1275     2.93226e+10 
           1285     2.90437e+10 
           1295     2.28393e+10 
           1305     2.42802e+10 
           1315     2.81933e+10 
           1325     2.64539e+10 
           1335      2.5592e+10 
           1345     2.56106e+10 
           1355      2.5275e+10 
           1365     2.35796e+10 
           1375     2.27736e+10 
           1385     2.20296e+10 
           1395     1.56908e+10 
           1405     1.70167e+10 
           1415     1.96942e+10 
           1425     1.87676e+10 
           1435     1.96357e+10 
           1442     1.99546e+10 
           1447     1.96209e+10 
           1455     1.88629e+10 
           1465     1.75284e+10 
           1475      1.7915e+10 
           1485      1.7707e+10 
           1495     1.72501e+10 
           1505     1.57769e+10 
           1512     1.42632e+10 
           1517     1.46634e+10 
           1525     1.49005e+10 
           1535     1.25135e+10 
           1545     1.18717e+10 
           1555     1.15345e+10 
           1565     1.26864e+10 
           1575     1.35365e+10 
           1585      1.3543e+10 
           1595     1.33801e+10 
           1605     1.33097e+10 
           1615     1.28299e+10 
           1625     1.28021e+10 
           1635      1.3425e+10 
           1645     1.33793e+10 
           1655      1.3292e+10 
           1665     1.33221e+10 
           1672     1.25823e+10 
           1677     1.41096e+10 
           1685     1.34333e+10 
           1695     1.27054e+10 
           1705     1.24116e+10 
           1715     1.17384e+10 
           1725     1.14643e+10 
           1735     1.18667e+10 
           1745     1.16543e+10 
           1755     1.16412e+10 
           1765     1.15284e+10 
           1775     1.07905e+10 
           1785     1.09992e+10 
           1795     1.11422e+10 
           1805     1.11996e+10 
           1815     1.01321e+10 
           1825     1.04298e+10 
           1835     1.01635e+10 
           1845      9.24574e+9 
           1855      9.45933e+9 
           1865      9.57782e+9 
           1875      9.77597e+9 
           1885      8.75806e+9 
           1895      8.16325e+9 
           1905       8.7869e+9 
           1915      8.33007e+9 
           1925      7.83465e+9 
           1935      8.36452e+9 
           1945      8.57569e+9 
           1955      7.64405e+9 
           1967      8.27607e+9 
           1976      8.66109e+9 
           1984      8.01369e+9 
           1995       7.8718e+9 
           2005      8.12859e+9 
           2015      8.06778e+9 
           2025      8.23892e+9 
           2035      7.51517e+9 
           2045      7.61499e+9 
           2055      7.11161e+9 
           2065      7.06631e+9 
           2074      7.44687e+9 
           2078      6.80316e+9 
           2085      7.16251e+9 
           2095      6.88624e+9 
           2105      7.16394e+9 
           2115       7.1671e+9 
           2125      7.21368e+9 
           2135      7.08006e+9 
           2145       6.7178e+9 
           2155      6.96856e+9 
           2165      6.89542e+9 
           2175      6.81193e+9 
           2185      6.60887e+9 
           2195      6.67835e+9 
           2205      6.63914e+9 
           2215       6.5232e+9 
           2225      6.36516e+9 
           2235      6.23759e+9 
           2245      6.27124e+9 
           2255      6.08906e+9 
           2265      6.11949e+9 
           2275      6.03189e+9 
           2285      5.98599e+9 
           2295      5.40894e+9 
           2305      5.76798e+9 
           2315      5.63039e+9 
           2325      5.56638e+9 
           2335      5.43803e+9 
           2345      5.47334e+9 
           2355      5.41201e+9 
           2365      5.35732e+9 
           2375      5.23082e+9 
           2385      5.17764e+9 
           2395      5.10737e+9 
           2405      5.03756e+9 
           2415      4.97487e+9 
           2425       4.9484e+9 
           2435      4.81749e+9 
           2445      4.80577e+9 
           2455      4.78564e+9 
           2465      4.71192e+9 
           2475      4.63216e+9 
           2485      4.53358e+9 
           2495      3.76661e+9 
           2505        4.371e+9 
           2513      4.20762e+9 
           2518      4.33829e+9 
           2525      4.33182e+9 
           2535      4.29202e+9 
           2545       4.1436e+9 
           2555      4.15959e+9 
           2565      4.10895e+9 
           2575      4.09034e+9 
           2585      4.03524e+9 
           2595      3.99352e+9 
           2605      3.95853e+9 
           2615      3.89658e+9 
           2625      3.86662e+9 
           2635      3.82572e+9 
           2645      3.76513e+9 
           2655       3.7373e+9 
           2665      3.60666e+9 
           2675      3.59991e+9 
           2685      3.59578e+9 
           2695      3.46825e+9 
           2705      3.40965e+9 
           2715      3.40605e+9 
           2725      3.39145e+9 
           2735      3.35707e+9 
           2745      3.30031e+9 
           2755      3.28051e+9 
           2765      3.22933e+9 
           2775      3.24171e+9 
           2785      3.18744e+9 
           2795      3.07734e+9 
           2805      3.09556e+9 
           2815      3.09562e+9 
           2825      3.04471e+9 
           2835      2.94939e+9 
           2845      2.98148e+9 
           2855      2.92606e+9 
           2865      2.91269e+9 
           2875      2.88047e+9 
           2885      2.84855e+9 
           2895      2.80602e+9 
           2910      2.74594e+9 
           2930      2.70823e+9 
           2950      2.62462e+9 
           2970      2.58465e+9 
           2990      2.52301e+9 
           3010      2.43408e+9 
           3030      2.41498e+9 
           3050       2.3745e+9 
           3070      2.33463e+9 
           3090      2.24173e+9 
           3110      2.23122e+9 
           3130      2.17349e+9 
           3150      2.13615e+9 
           3170      2.08281e+9 
           3190      2.03767e+9 
           3210      2.00805e+9 
           3230      1.95845e+9 
           3250       1.9285e+9 
           3270      1.88338e+9 
           3290      1.84559e+9 
           3310      1.81152e+9 
           3330       1.7707e+9 
           3350      1.73821e+9 
           3370      1.70268e+9 
           3390      1.67593e+9 
           3410      1.64392e+9 
           3430      1.60735e+9 
           3450      1.57095e+9 
           3470      1.54247e+9 
           3490      1.51139e+9 
           3510      1.48639e+9 
           3530      1.46533e+9 
           3550      1.43679e+9 
           3570      1.41533e+9 
           3590      1.37472e+9 
           3610      1.35202e+9 
           3630      1.32936e+9 
           3640      1.32695e+9 
           3650      1.29656e+9 
           3670      1.28115e+9 
           3690      1.25433e+9 
           3710      1.20761e+9 
           3730      1.16342e+9 
           3750      1.20243e+9 
           3770       1.1888e+9 
           3790      1.23273e+9 
           3810      1.26993e+9 
           3830      1.12955e+9 
           3850      1.27711e+9 
           3870      1.25697e+9 
           3890      1.07021e+9 
           3910      1.24913e+9 
           3930      1.21025e+9 
           3950      1.19452e+9 
           3970      9.91822e+8 
           3990      1.15543e+9 
           4010      1.14527e+9 
           4030      1.09027e+9 
           4050      1.10808e+9 
           4070       1.0596e+9 
           4090      9.99358e+8 
           4110      9.04953e+8 
           4130      1.01088e+9 
           4150      1.00335e+9 
           4170      9.97194e+8 
           4190       9.8362e+8 
           4210      9.73361e+8 
           4230      9.52851e+8 
           4250      9.27323e+8 
           4270       9.0316e+8 
           4290      8.91053e+8 
           4310      8.65402e+8 
           4330      8.07936e+8 
           4350      7.46769e+8 
           4370       8.2381e+8 
           4390      8.14933e+8 
           4410      8.09941e+8 
           4430      8.02759e+8 
           4450      7.88844e+8 
           4470      7.55555e+8 
           4490      7.64891e+8 
           4510      7.56882e+8 
           4530      7.45183e+8 
           4550      7.33587e+8 
           4570      7.21264e+8 
           4590      7.08823e+8 
           4610      6.93309e+8 
           4630       6.8278e+8 
           4650        6.592e+8 
           4670      6.62428e+8 
           4690      6.56071e+8 
           4710      6.32884e+8 
           4730        6.348e+8 
           4750      6.24173e+8 
           4770      6.22211e+8 
           4790      6.11592e+8 
           4810      5.99628e+8 
           4830      5.87793e+8 
           4850      5.56065e+8 
           4870       5.0279e+8 
           4890      5.63122e+8 
           4910      5.57028e+8 
           4930       5.3894e+8 
           4950      5.38976e+8 
           4970      5.35455e+8 
           4990      5.26829e+8 
           5010      5.06662e+8 
           5030      5.10815e+8 
           5050      5.00159e+8 
           5070      4.97335e+8 
           5090      4.89333e+8 
           5110      4.81702e+8 
           5130      4.72213e+8 
           5150      4.66507e+8 
           5170      4.61847e+8 
           5190      4.56029e+8 
           5210      4.49162e+8 
           5230      4.43116e+8 
           5250      4.37081e+8 
           5270      4.30203e+8 
           5290      4.25125e+8 
           5310      4.18989e+8 
           5330      4.13583e+8 
           5350      4.07588e+8 
           5370      4.02545e+8 
           5390      3.96672e+8 
           5410      3.91672e+8 
           5430      3.86301e+8 
           5450      3.80883e+8 
           5470      3.75824e+8 
           5490      3.70829e+8 
           5510      3.66466e+8 
           5530      3.60925e+8 
           5550      3.56922e+8 
           5570      3.51996e+8 
           5590      3.47577e+8 
           5610      3.42936e+8 
           5630      3.38662e+8 
           5650       3.3333e+8 
           5670      3.27737e+8 
           5690       3.2226e+8 
           5710      3.20307e+8 
           5730      3.16629e+8 
           5750      3.11593e+8 
           5770       3.0912e+8 
           5790      3.04954e+8 
           5810      3.01184e+8 
           5830      2.96705e+8 
           5850       2.9348e+8 
           5870      2.82452e+8 
           5890      2.84121e+8 
           5910      2.81931e+8 
           5930      2.78019e+8 
           5950      2.74482e+8 
           5970      2.72615e+8 
           5990       2.6812e+8 
           6010      2.65577e+8 
           6030      2.61849e+8 
           6050      2.58927e+8 
           6070      2.56191e+8 
           6090      2.53119e+8 
           6110      2.50052e+8 
           6130       2.4719e+8 
           6150      2.43254e+8 
           6170       2.4068e+8 
           6190      2.38203e+8 
           6210      2.35577e+8 
           6230      2.32854e+8 
           6250      2.29727e+8 
           6270      2.27171e+8 
           6290      2.24672e+8 
           6310      2.21887e+8 
           6330      2.19509e+8 
           6350      2.16531e+8 
           6370      2.14394e+8 
           6390      2.11836e+8 
           6410      2.09425e+8 
           6430      2.07131e+8 
           6450      2.04698e+8 
           6470      2.01743e+8 
           6490      1.99562e+8 
           6510      1.97618e+8 
           6530      1.94704e+8 
           6550      1.88248e+8 
           6570      1.68313e+8 
           6590      1.86612e+8 
           6610      1.86459e+8 
           6630      1.84667e+8 
           6650      1.82536e+8 
           6670      1.79105e+8 
           6690      1.77178e+8 
           6710      1.76717e+8 
           6730      1.74354e+8 
           6750      1.72901e+8 
           6770      1.71026e+8 
           6790      1.68067e+8 
           6810      1.67097e+8 
           6830      1.65256e+8 
           6850      1.63642e+8 
           6870      1.61861e+8 
           6890      1.59922e+8 
           6910      1.58043e+8 
           6930      1.56709e+8 
           6950      1.55052e+8 
           6970      1.53403e+8 
           6990       1.5174e+8 
           7010      1.50132e+8 
           7030      1.48501e+8 
           7050      1.46955e+8 
           7070      1.43208e+8 
           7090      1.43893e+8 
           7110      1.41691e+8 
           7130      1.40274e+8 
           7150      1.39417e+8 
           7170      1.37966e+8 
           7190      1.36573e+8 
           7210      1.35157e+8 
           7230      1.32089e+8 
           7250      1.32136e+8 
           7270      1.31003e+8 
           7290      1.28676e+8 
           7310      1.28312e+8 
           7330      1.26981e+8 
           7350       1.2574e+8 
           7370      1.24483e+8 
           7390      1.23224e+8 
           7410      1.21976e+8 
           7430      1.20727e+8 
           7450       1.1953e+8 
           7470      1.17885e+8 
           7490      1.17095e+8 
           7510      1.15931e+8 
           7530      1.14745e+8 
           7550      1.13708e+8 
           7570      1.12588e+8 
           7590      1.11453e+8 
           7610      1.10224e+8 
           7630      1.09259e+8 
           7650      1.08199e+8 
           7670      1.07155e+8 
           7690      1.06101e+8 
           7710      1.05045e+8 
           7730       1.0401e+8 
           7750       1.0306e+8 
           7770      1.01837e+8 
           7790      1.01086e+8 
           7810      1.00062e+8 
           7830      9.91582e+7 
           7850      9.82562e+7 
           7870      9.71918e+7 
           7890      9.61187e+7 
           7910      9.53985e+7 
           7930      9.44506e+7 
           7950      9.35766e+7 
           7970      9.26272e+7 
           7990      9.17332e+7 
           8010      9.08588e+7 
           8030      9.00095e+7 
           8050      8.92314e+7 
           8070      8.84426e+7 
           8090      8.74936e+7 
           8110      8.63752e+7 
           8130      8.60363e+7 
           8150      8.51438e+7 
           8170      8.44904e+7 
           8190      8.33706e+7 
           8210      8.24842e+7 
           8230      8.16889e+7 
           8250      8.12822e+7 
           8270      7.98485e+7 
           8290      7.97158e+7 
           8310      7.90598e+7 
           8330      7.83386e+7 
           8350      7.72776e+7 
           8370      7.67581e+7 
           8390      7.62213e+7 
           8410      7.54917e+7 
           8430      7.47894e+7 
           8450      7.35863e+7 
           8470      7.33547e+7 
           8490      7.26541e+7 
           8510      7.17876e+7 
           8530      7.14617e+7 
           8550      6.99064e+7 
           8570      7.08937e+7 
           8590      6.82613e+7 
