# Kurucz ODFNEW /NOVER (2003)
# teff = 27000 K (value for the effective temperature for the model. Temperatures are given in K)
# logg = 4 log(cm/s2) (value for Log(G) for the model.)
# meta = -1  (value for the Metallicity for the model.)
# lh = 1.25  (l/Hp where l is the  mixing length of the convective element and Hp is the pressure scale height)
# vtur = 2 km/s (Microturbulence velocity)
# alpha = 0.4  (Alpha)
#
# column 1: WAVELENGTH (ANGSTROM), Wavelength in Angstrom
# column 2: FLUX (ERG/CM2/S/A), Flux in erg/cm2/s/A
          147.2     3.80001e-12 
            151     1.53008e-11 
          155.2     6.62087e-11 
          158.8     2.19203e-10 
            162     6.09006e-10 
            166      2.06999e-9 
          170.3      7.24126e-9 
          173.4      1.72004e-8 
          176.8      4.28936e-8 
          180.2      1.03353e-7 
          181.7      1.50738e-7 
          186.1      4.40514e-7 
            191      1.37129e-6 
          193.9      2.61235e-6 
          198.4      6.83553e-6 
          201.8      1.37321e-5 
            205      2.59072e-5 
          210.5      7.36629e-5 
          216.2      0.00020528 
          219.8     0.000381182 
            223     0.000649354 
          226.8      0.00119929 
            230         0.18667 
            234        0.432576 
            240        0.913046 
          246.5         1.98774 
          252.4         3.92899 
          256.8         5.79037 
            260         8.98633 
            264         13.0717 
          268.5         20.7657 
          273.5         33.3829 
          278.5         52.3792 
            284         90.0347 
            290         147.677 
            296          238.01 
            301         343.273 
            308         558.399 
            318         1239.22 
            328         2312.99 
            338         4408.54 
            348         7830.18 
            357         17560.5 
            366         29684.2 
            375         43795.7 
            385         69744.2 
            395          109712 
            405          160931 
            414          229230 
            422          295572 
            430          391664 
            441          558602 
            451          764716 
            460          978802 
            470      1.30378e+6 
            480      1.69021e+6 
            490      2.18993e+6 
            500      2.81146e+6 
            506      1.64355e+7 
            512      6.02407e+7 
            520      6.54721e+7 
            530      7.56946e+7 
            540      7.60203e+7 
            550      9.88526e+7 
            560      1.11702e+8 
            570      1.27281e+8 
            580      1.23479e+8 
            590       1.5133e+8 
            600      1.63553e+8 
            610      1.83748e+8 
            620      1.99919e+8 
            630      2.15995e+8 
            640       2.1914e+8 
            650      2.35106e+8 
            658      2.58581e+8 
            665      2.76747e+8 
            675      2.84996e+8 
            685      2.95932e+8 
            695      3.44654e+8 
            705       3.4975e+8 
            716      3.88799e+8 
            726      4.02563e+8 
            735      4.22493e+8 
            745       4.5961e+8 
            755      4.82741e+8 
            765      5.10108e+8 
            775       5.4049e+8 
            785      5.73196e+8 
            795       5.9261e+8 
            805      6.17859e+8 
            815      6.34835e+8 
            825      6.75221e+8 
            835       6.4515e+8 
            845      7.13017e+8 
            855      7.36994e+8 
            865      7.72013e+8 
            875      8.08397e+8 
            885      8.48528e+8 
            895      8.79807e+8 
            905       8.9244e+8 
            915      1.21785e+9 
            925      8.00593e+9 
            935     1.77603e+10 
            945     3.40523e+10 
            955     3.97021e+10 
            965      4.7806e+10 
            975     1.78456e+10 
            985      4.5364e+10 
            995     4.19225e+10 
           1005     4.39905e+10 
           1015     4.31645e+10 
           1025     2.34642e+10 
           1035     3.83578e+10 
           1045     4.66968e+10 
           1055     4.44551e+10 
           1065     3.88911e+10 
           1075     4.14602e+10 
           1085      3.8181e+10 
           1095     4.11974e+10 
           1105     3.84003e+10 
           1115     3.77025e+10 
           1125     3.29989e+10 
           1135     3.73593e+10 
           1145     3.42153e+10 
           1155     3.49301e+10 
           1165     3.47383e+10 
           1175     2.66541e+10 
           1185     3.26017e+10 
           1195      3.0705e+10 
           1205     2.54005e+10 
           1215     1.61609e+10 
           1225      2.8145e+10 
           1235      3.0045e+10 
           1245     2.93164e+10 
           1255     2.88678e+10 
           1265     2.85921e+10 
           1275     2.86691e+10 
           1285     2.80489e+10 
           1295     2.38479e+10 
           1305     2.46142e+10 
           1315     2.65376e+10 
           1325     2.53918e+10 
           1335      2.4571e+10 
           1345      2.4284e+10 
           1355     2.44009e+10 
           1365     2.31005e+10 
           1375     2.27158e+10 
           1385     2.24067e+10 
           1395     1.83344e+10 
           1405     1.90698e+10 
           1415     2.07799e+10 
           1425     1.99605e+10 
           1435     2.01553e+10 
           1442     2.03297e+10 
           1447     1.99861e+10 
           1455     1.94911e+10 
           1465     1.88696e+10 
           1475     1.86475e+10 
           1485     1.83323e+10 
           1495      1.7894e+10 
           1505     1.69601e+10 
           1512     1.63114e+10 
           1517     1.64571e+10 
           1525     1.63092e+10 
           1535     1.48575e+10 
           1545     1.46634e+10 
           1555     1.40792e+10 
           1565     1.45631e+10 
           1575     1.48324e+10 
           1585     1.46187e+10 
           1595     1.45186e+10 
           1605     1.39381e+10 
           1615     1.35745e+10 
           1625     1.35431e+10 
           1635     1.36608e+10 
           1645     1.32751e+10 
           1655     1.33121e+10 
           1665     1.31219e+10 
           1672     1.27963e+10 
           1677     1.33212e+10 
           1685     1.29731e+10 
           1695       1.257e+10 
           1705     1.22089e+10 
           1715     1.17962e+10 
           1725     1.15735e+10 
           1735     1.16441e+10 
           1745     1.14426e+10 
           1755     1.13639e+10 
           1765     1.10483e+10 
           1775     1.07374e+10 
           1785     1.06898e+10 
           1795     1.06867e+10 
           1805     1.06319e+10 
           1815      1.0135e+10 
           1825     1.01442e+10 
           1835      9.94804e+9 
           1845      9.25869e+9 
           1855      9.22351e+9 
           1865       9.2948e+9 
           1875      9.31272e+9 
           1885      8.64525e+9 
           1895      8.18182e+9 
           1905      8.55717e+9 
           1915      8.22015e+9 
           1925      7.91984e+9 
           1935        8.166e+9 
           1945      8.24119e+9 
           1955      7.63823e+9 
           1967       7.9089e+9 
           1976      8.13139e+9 
           1984      7.67881e+9 
           1995      7.47917e+9 
           2005       7.5545e+9 
           2015      7.55477e+9 
           2025      7.58902e+9 
           2035      7.19522e+9 
           2045       7.1398e+9 
           2055      6.75433e+9 
           2065      6.72158e+9 
           2074      6.90168e+9 
           2078      6.61829e+9 
           2085       6.7001e+9 
           2095      6.53251e+9 
           2105      6.64999e+9 
           2115       6.6089e+9 
           2125      6.61158e+9 
           2135      6.48855e+9 
           2145      6.29219e+9 
           2155      6.32722e+9 
           2165      6.24953e+9 
           2175      6.15214e+9 
           2185      6.06274e+9 
           2195      6.02545e+9 
           2205      5.94171e+9 
           2215       5.8587e+9 
           2225      5.75692e+9 
           2235      5.66004e+9 
           2245      5.62692e+9 
           2255      5.51808e+9 
           2265      5.47673e+9 
           2275      5.40489e+9 
           2285      5.33409e+9 
           2295      5.10481e+9 
           2305      5.17704e+9 
           2315      5.09579e+9 
           2325      5.03205e+9 
           2335      4.93888e+9 
           2345      4.91212e+9 
           2355      4.85521e+9 
           2365      4.79403e+9 
           2375      4.71708e+9 
           2385      4.65363e+9 
           2395      4.59265e+9 
           2405      4.53969e+9 
           2415      4.46806e+9 
           2425      4.43065e+9 
           2435      4.34973e+9 
           2445      4.30804e+9 
           2455      4.26264e+9 
           2465      4.21071e+9 
           2475      4.15086e+9 
           2485      4.09446e+9 
           2495      3.72461e+9 
           2505      3.97627e+9 
           2513      3.87392e+9 
           2518      3.90311e+9 
           2525      3.89397e+9 
           2535      3.85117e+9 
           2545      3.74715e+9 
           2555      3.73427e+9 
           2565      3.69318e+9 
           2575      3.66387e+9 
           2585      3.61996e+9 
           2595      3.57707e+9 
           2605      3.55188e+9 
           2615      3.50741e+9 
           2625      3.46773e+9 
           2635      3.42192e+9 
           2645      3.37941e+9 
           2655      3.33657e+9 
           2665      3.27975e+9 
           2675      3.24549e+9 
           2685      3.22825e+9 
           2695      3.15377e+9 
           2705      3.13775e+9 
           2715       3.1062e+9 
           2725      3.05158e+9 
           2735      3.03092e+9 
           2745      2.99503e+9 
           2755      2.96439e+9 
           2765      2.91046e+9 
           2775      2.90474e+9 
           2785      2.86595e+9 
           2795      2.78259e+9 
           2805      2.78553e+9 
           2815      2.77367e+9 
           2825       2.7189e+9 
           2835      2.67528e+9 
           2845      2.68048e+9 
           2855      2.64398e+9 
           2865      2.61707e+9 
           2875      2.58827e+9 
           2885      2.56154e+9 
           2895      2.53088e+9 
           2910      2.48453e+9 
           2930       2.4326e+9 
           2950      2.36401e+9 
           2970      2.32886e+9 
           2990      2.27653e+9 
           3010      2.22006e+9 
           3030      2.18026e+9 
           3050      2.13686e+9 
           3070       2.0942e+9 
           3090      2.03096e+9 
           3110      2.00546e+9 
           3130       1.9613e+9 
           3150      1.92247e+9 
           3170       1.8828e+9 
           3190       1.8318e+9 
           3210      1.80773e+9 
           3230      1.76858e+9 
           3250      1.73536e+9 
           3270      1.70138e+9 
           3290      1.66547e+9 
           3310      1.63547e+9 
           3330      1.60223e+9 
           3350      1.56949e+9 
           3370       1.5403e+9 
           3390      1.51215e+9 
           3410      1.48342e+9 
           3430      1.44891e+9 
           3450       1.4163e+9 
           3470      1.39248e+9 
           3490      1.36571e+9 
           3510      1.34453e+9 
           3530      1.32254e+9 
           3550      1.29793e+9 
           3570      1.27997e+9 
           3590      1.24728e+9 
           3610      1.22786e+9 
           3630      1.20313e+9 
           3640      1.20085e+9 
           3650      1.17618e+9 
           3670      1.16108e+9 
           3690      1.13638e+9 
           3710       1.0972e+9 
           3730      1.05587e+9 
           3750      1.09613e+9 
           3770      1.08866e+9 
           3790      1.13029e+9 
           3810      1.16675e+9 
           3830      1.03561e+9 
           3850      1.18177e+9 
           3870      1.17628e+9 
           3890      9.81875e+8 
           3910      1.15556e+9 
           3930      1.12927e+9 
           3950       1.1134e+9 
           3970      9.10792e+8 
           3990      1.07256e+9 
           4010      1.06172e+9 
           4030      1.00997e+9 
           4050      1.03417e+9 
           4070      1.00018e+9 
           4090      9.38935e+8 
           4110      8.39496e+8 
           4130      9.46059e+8 
           4150      9.38099e+8 
           4170      9.30336e+8 
           4190      9.15167e+8 
           4210      9.02985e+8 
           4230      8.86971e+8 
           4250      8.68214e+8 
           4270      8.48385e+8 
           4290      8.37484e+8 
           4310      8.18778e+8 
           4330      7.58908e+8 
           4350       6.9626e+8 
           4370      7.79424e+8 
           4390      7.57873e+8 
           4410      7.58956e+8 
           4430      7.48568e+8 
           4450      7.37574e+8 
           4470        7.015e+8 
           4490      7.13503e+8 
           4510      7.04855e+8 
           4530      6.93761e+8 
           4550      6.81343e+8 
           4570      6.70071e+8 
           4590      6.59488e+8 
           4610        6.494e+8 
           4630      6.40076e+8 
           4650      6.22525e+8 
           4670      6.18931e+8 
           4690      6.10804e+8 
           4710      5.91991e+8 
           4730      5.93007e+8 
           4750      5.83098e+8 
           4770      5.76761e+8 
           4790      5.67916e+8 
           4810      5.58318e+8 
           4830      5.46873e+8 
           4850      5.14601e+8 
           4870      4.64953e+8 
           4890      5.23137e+8 
           4910       5.1779e+8 
           4930      5.00531e+8 
           4950      5.02521e+8 
           4970      4.97021e+8 
           4990      4.89686e+8 
           5010      4.75863e+8 
           5030      4.75526e+8 
           5050      4.65887e+8 
           5070      4.62278e+8 
           5090      4.55467e+8 
           5110      4.48995e+8 
           5130      4.42394e+8 
           5150      4.36209e+8 
           5170      4.30233e+8 
           5190      4.24448e+8 
           5210      4.18295e+8 
           5230      4.12816e+8 
           5250      4.07134e+8 
           5270      4.01432e+8 
           5290       3.9602e+8 
           5310      3.90557e+8 
           5330      3.85244e+8 
           5350      3.79921e+8 
           5370      3.74954e+8 
           5390      3.69752e+8 
           5410      3.64809e+8 
           5430      3.59929e+8 
           5450      3.55072e+8 
           5470      3.50378e+8 
           5490      3.45792e+8 
           5510      3.41289e+8 
           5530      3.36731e+8 
           5550      3.32376e+8 
           5570      3.28002e+8 
           5590      3.23754e+8 
           5610      3.19498e+8 
           5630      3.15414e+8 
           5650       3.1112e+8 
           5670      3.06901e+8 
           5690      3.02653e+8 
           5710      2.99312e+8 
           5730      2.95608e+8 
           5750      2.91391e+8 
           5770      2.88231e+8 
           5790       2.8458e+8 
           5810      2.80995e+8 
           5830      2.77386e+8 
           5850      2.73973e+8 
           5870      2.63417e+8 
           5890      2.66605e+8 
           5910      2.63779e+8 
           5930      2.60481e+8 
           5950      2.57233e+8 
           5970      2.54318e+8 
           5990      2.51047e+8 
           6010      2.48107e+8 
           6030      2.45034e+8 
           6050      2.42109e+8 
           6070      2.39228e+8 
           6090      2.36339e+8 
           6110      2.33513e+8 
           6130      2.30728e+8 
           6150      2.27816e+8 
           6170      2.25183e+8 
           6190       2.2257e+8 
           6210      2.19957e+8 
           6230      2.17363e+8 
           6250      2.14768e+8 
           6270       2.1227e+8 
           6290      2.09798e+8 
           6310      2.07316e+8 
           6330      2.04946e+8 
           6350      2.02442e+8 
           6370      2.00198e+8 
           6390      1.97904e+8 
           6410      1.95626e+8 
           6430      1.93418e+8 
           6450      1.91206e+8 
           6470      1.88919e+8 
           6490       1.8679e+8 
           6510      1.84729e+8 
           6530       1.8207e+8 
           6550      1.75621e+8 
           6570      1.57517e+8 
           6590      1.74944e+8 
           6610      1.74465e+8 
           6630      1.72668e+8 
           6650      1.70771e+8 
           6670      1.67445e+8 
           6690      1.65646e+8 
           6710      1.65245e+8 
           6730      1.63308e+8 
           6750      1.61656e+8 
           6770      1.59896e+8 
           6790      1.57975e+8 
           6810      1.56415e+8 
           6830      1.54685e+8 
           6850       1.5306e+8 
           6870      1.51412e+8 
           6890      1.49733e+8 
           6910      1.48094e+8 
           6930      1.46589e+8 
           6950      1.45045e+8 
           6970        1.435e+8 
           6990      1.41971e+8 
           7010       1.4048e+8 
           7030      1.38988e+8 
           7050      1.37533e+8 
           7070      1.34058e+8 
           7090      1.34674e+8 
           7110      1.33247e+8 
           7130      1.31871e+8 
           7150      1.30508e+8 
           7170      1.29143e+8 
           7190      1.27828e+8 
           7210      1.26518e+8 
           7230      1.24623e+8 
           7250      1.23858e+8 
           7270      1.22664e+8 
           7290      1.20475e+8 
           7310      1.20162e+8 
           7330       1.1896e+8 
           7350      1.17763e+8 
           7370      1.16576e+8 
           7390      1.15401e+8 
           7410      1.14244e+8 
           7430      1.13091e+8 
           7450      1.11982e+8 
           7470      1.10728e+8 
           7490      1.09755e+8 
           7510      1.08643e+8 
           7530      1.07595e+8 
           7550      1.06544e+8 
           7570      1.05495e+8 
           7590      1.04462e+8 
           7610        1.034e+8 
           7630      1.02425e+8 
           7650      1.01427e+8 
           7670      1.00444e+8 
           7690      9.94698e+7 
           7710      9.85107e+7 
           7730      9.75477e+7 
           7750      9.66184e+7 
           7770      9.56099e+7 
           7790      9.47782e+7 
           7810      9.38178e+7 
           7830      9.29766e+7 
           7850       9.2155e+7 
           7870      9.12553e+7 
           7890      9.03152e+7 
           7910      8.95761e+7 
           7930      8.87234e+7 
           7950      8.78365e+7 
           7970      8.68921e+7 
           7990      8.60504e+7 
           8010      8.52513e+7 
           8030       8.4465e+7 
           8050       8.3726e+7 
           8070      8.29934e+7 
           8090      8.20713e+7 
           8110      8.12889e+7 
           8130      8.07413e+7 
           8150      7.98974e+7 
           8170      7.92923e+7 
           8190      7.84056e+7 
           8210      7.75043e+7 
           8230      7.69779e+7 
           8250      7.63505e+7 
           8270       7.5205e+7 
           8290      7.48974e+7 
           8310      7.42536e+7 
           8330      7.35609e+7 
           8350      7.25659e+7 
           8370      7.21174e+7 
           8390      7.15813e+7 
           8410       7.0927e+7 
           8430      7.02356e+7 
           8450      6.91543e+7 
           8470      6.88912e+7 
           8490      6.82429e+7 
           8510      6.74752e+7 
           8530      6.71177e+7 
           8550      6.56342e+7 
           8570      6.66516e+7 
           8590      6.40748e+7 
