# Kurucz ODFNEW /NOVER (2003)
# teff = 34000 K (value for the effective temperature for the model. Temperatures are given in K)
# logg = 4.5 log(cm/s2) (value for Log(G) for the model.)
# meta = 0.2  (value for the Metallicity for the model.)
# lh = 1.25  (l/Hp where l is the  mixing length of the convective element and Hp is the pressure scale height)
# vtur = 2 km/s (Microturbulence velocity)
# alpha = 0  (Alpha)
#
# column 1: WAVELENGTH (ANGSTROM), Wavelength in Angstrom
# column 2: FLUX (ERG/CM2/S/A), Flux in erg/cm2/s/A
          147.2      2.99797e-5 
            151      7.71914e-5 
          155.2     0.000207657 
          158.8     0.000465253 
            162     0.000924397 
            166      0.00210485 
          170.3      0.00486323 
          173.4      0.00870307 
          176.8        0.016127 
          180.2       0.0290471 
          181.7         0.03764 
          186.1       0.0771827 
            191        0.165424 
          193.9        0.254742 
          198.4        0.487697 
          201.8        0.778543 
            205         1.19298 
          210.5         2.41383 
          216.2         4.79132 
          219.8         7.33527 
            223         10.5286 
          226.8         16.1668 
            230         6465.65 
            234           13997 
            240         21147.9 
          246.5         33753.1 
          252.4           53376 
          256.8         72733.8 
            260          125380 
            264          224472 
          268.5          331411 
          273.5          435034 
          278.5          513155 
            284      1.01857e+6 
            290      1.41437e+6 
            296      1.77895e+6 
            301      3.35747e+6 
            308      7.10577e+6 
            318      1.51774e+7 
            328      2.07694e+7 
            338      3.69791e+7 
            348       5.5257e+7 
            357      1.06774e+8 
            366        2.163e+8 
            375      2.42551e+8 
            385      3.25198e+8 
            395      5.58484e+8 
            405      6.73462e+8 
            414      7.98074e+8 
            422      8.88366e+8 
            430      9.59346e+8 
            441       1.1512e+9 
            451       1.2325e+9 
            460      1.23292e+9 
            470      1.42538e+9 
            480      1.64999e+9 
            490       1.6792e+9 
            500      2.01053e+9 
            506      2.98443e+9 
            512     1.78561e+10 
            520     1.67104e+10 
            530     1.48479e+10 
            540     1.34103e+10 
            550     1.51427e+10 
            560     1.97314e+10 
            570      2.1152e+10 
            580     1.94894e+10 
            590     2.02802e+10 
            600     1.55893e+10 
            610     1.89327e+10 
            620     2.28752e+10 
            630     2.18454e+10 
            640     2.19875e+10 
            650     2.12805e+10 
            658     1.73249e+10 
            665     2.08399e+10 
            675     2.33798e+10 
            685     1.79194e+10 
            695     2.37897e+10 
            705     1.85763e+10 
            716     2.51189e+10 
            726     2.44196e+10 
            735     2.43817e+10 
            745     2.27629e+10 
            755     2.27039e+10 
            765     2.26434e+10 
            775     2.34621e+10 
            785      2.3762e+10 
            795      2.4034e+10 
            805     2.27971e+10 
            815     2.25632e+10 
            825     2.37177e+10 
            835     1.91114e+10 
            845      2.2374e+10 
            855     2.19892e+10 
            865     2.26186e+10 
            875      2.2602e+10 
            885     2.28046e+10 
            895      2.2802e+10 
            905     2.19844e+10 
            915     2.15574e+10 
            925     5.26155e+10 
            935     8.10449e+10 
            945     1.04557e+11 
            955      1.1392e+11 
            965     1.29012e+11 
            975     5.78434e+10 
            985     1.04928e+11 
            995     9.35255e+10 
           1005      9.6929e+10 
           1015     1.01918e+11 
           1025     8.10096e+10 
           1035     9.93604e+10 
           1045     1.12602e+11 
           1055     1.06663e+11 
           1065     9.30111e+10 
           1075     9.56734e+10 
           1085     8.73224e+10 
           1095     9.25654e+10 
           1105     8.83399e+10 
           1115     8.70048e+10 
           1125     7.24541e+10 
           1135     8.28338e+10 
           1145     8.00628e+10 
           1155     7.55111e+10 
           1165     7.25382e+10 
           1175     4.92937e+10 
           1185     6.59681e+10 
           1195     6.38266e+10 
           1205     6.11837e+10 
           1215     4.81609e+10 
           1225     5.86926e+10 
           1235     6.24883e+10 
           1245     6.01761e+10 
           1255     5.97543e+10 
           1265     6.12547e+10 
           1275     6.29394e+10 
           1285     6.27052e+10 
           1295     5.86921e+10 
           1305     5.81035e+10 
           1315     6.09312e+10 
           1325      5.8706e+10 
           1335     5.68405e+10 
           1345     5.66253e+10 
           1355     5.49615e+10 
           1365     5.30087e+10 
           1375      5.1284e+10 
           1385     4.96034e+10 
           1395     4.07796e+10 
           1405     4.11076e+10 
           1415     4.71367e+10 
           1425      4.2062e+10 
           1435     4.48404e+10 
           1442     4.40437e+10 
           1447     4.38352e+10 
           1455     4.16764e+10 
           1465     4.06636e+10 
           1475     4.08223e+10 
           1485      4.0809e+10 
           1495     3.93884e+10 
           1505     3.82513e+10 
           1512      3.7402e+10 
           1517     3.76371e+10 
           1525     3.62503e+10 
           1535     3.16432e+10 
           1545     2.65523e+10 
           1555     2.67494e+10 
           1565     3.00741e+10 
           1575     3.14475e+10 
           1585     3.15558e+10 
           1595      3.1339e+10 
           1605     2.95867e+10 
           1615     2.81584e+10 
           1625     2.88601e+10 
           1635     2.89746e+10 
           1645      2.8725e+10 
           1655     2.89002e+10 
           1665     2.84114e+10 
           1672     2.61715e+10 
           1677     3.04416e+10 
           1685     2.89179e+10 
           1695     2.78919e+10 
           1705     2.75138e+10 
           1715     2.62038e+10 
           1725      2.5183e+10 
           1735     2.60287e+10 
           1745     2.57436e+10 
           1755     2.52798e+10 
           1765     2.48962e+10 
           1775     2.39815e+10 
           1785      2.4306e+10 
           1795     2.36851e+10 
           1805     2.35529e+10 
           1815     2.28778e+10 
           1825     2.24604e+10 
           1835      2.2402e+10 
           1845     2.13187e+10 
           1855     2.15613e+10 
           1865     2.15149e+10 
           1875     2.09774e+10 
           1885     1.99634e+10 
           1895     1.96095e+10 
           1905     2.00094e+10 
           1915     1.94466e+10 
           1925     1.82091e+10 
           1935     1.92348e+10 
           1945     1.93631e+10 
           1955     1.76476e+10 
           1967     1.83872e+10 
           1976     1.86841e+10 
           1984     1.80629e+10 
           1995     1.75595e+10 
           2005     1.78243e+10 
           2015     1.77164e+10 
           2025      1.7631e+10 
           2035     1.69214e+10 
           2045     1.66825e+10 
           2055     1.33938e+10 
           2065      1.2888e+10 
           2074      1.3322e+10 
           2078     1.31949e+10 
           2085     1.38864e+10 
           2095     1.47077e+10 
           2105     1.52587e+10 
           2115     1.53716e+10 
           2125     1.50537e+10 
           2135     1.49188e+10 
           2145     1.46351e+10 
           2155     1.46383e+10 
           2165     1.39714e+10 
           2175     1.42692e+10 
           2185     1.37673e+10 
           2195     1.40323e+10 
           2205     1.38115e+10 
           2215     1.32272e+10 
           2225     1.33596e+10 
           2235     1.31468e+10 
           2245     1.29179e+10 
           2255      1.2462e+10 
           2265     1.25953e+10 
           2275     1.24644e+10 
           2285      1.2129e+10 
           2295     1.10157e+10 
           2305     1.15301e+10 
           2315     1.15467e+10 
           2325     1.14978e+10 
           2335     1.13111e+10 
           2345     1.11545e+10 
           2355     1.09167e+10 
           2365      1.0741e+10 
           2375     1.05005e+10 
           2385     1.00417e+10 
           2395     1.01301e+10 
           2405     1.01034e+10 
           2415      9.97984e+9 
           2425      9.91436e+9 
           2435       9.7289e+9 
           2445      9.62112e+9 
           2455      9.48289e+9 
           2465      9.36085e+9 
           2475      9.23739e+9 
           2485      8.97224e+9 
           2495      7.03528e+9 
           2505       8.6002e+9 
           2513       8.2234e+9 
           2518      8.42488e+9 
           2525      8.59568e+9 
           2535      8.53269e+9 
           2545        8.357e+9 
           2555      8.25535e+9 
           2565      8.16133e+9 
           2575       8.0583e+9 
           2585      7.96281e+9 
           2595      7.81428e+9 
           2605      7.77716e+9 
           2615      7.61863e+9 
           2625      7.56944e+9 
           2635      7.48714e+9 
           2645      7.35632e+9 
           2655      7.27963e+9 
           2665      7.11689e+9 
           2675      6.94743e+9 
           2685        6.982e+9 
           2695      6.81928e+9 
           2705      6.76535e+9 
           2715      6.66552e+9 
           2725      6.60198e+9 
           2735      6.41781e+9 
           2745      6.47162e+9 
           2755       6.3885e+9 
           2765      6.27979e+9 
           2775      6.26201e+9 
           2785      6.15106e+9 
           2795      5.95136e+9 
           2805      5.97556e+9 
           2815      5.94934e+9 
           2825      5.85773e+9 
           2835      5.74383e+9 
           2845      5.73843e+9 
           2855      5.65347e+9 
           2865      5.55991e+9 
           2875      5.50444e+9 
           2885      5.44281e+9 
           2895       5.3747e+9 
           2910      5.25004e+9 
           2930      5.16808e+9 
           2950      5.01729e+9 
           2970      4.90766e+9 
           2990      4.76005e+9 
           3010      4.62798e+9 
           3030       4.5121e+9 
           3050      4.44421e+9 
           3070      4.36451e+9 
           3090      4.23402e+9 
           3110      4.17779e+9 
           3130      4.06766e+9 
           3150      3.99111e+9 
           3170       3.8933e+9 
           3190      3.81131e+9 
           3210      3.70145e+9 
           3230      3.64528e+9 
           3250      3.58308e+9 
           3270      3.47515e+9 
           3290      3.41838e+9 
           3310      3.34215e+9 
           3330      3.26292e+9 
           3350      3.18061e+9 
           3370      3.12154e+9 
           3390      3.07796e+9 
           3410      3.01089e+9 
           3430       2.9534e+9 
           3450      2.87498e+9 
           3470      2.82745e+9 
           3490      2.77048e+9 
           3510      2.71717e+9 
           3530      2.66772e+9 
           3550      2.61108e+9 
           3570      2.56432e+9 
           3590      2.50084e+9 
           3610      2.44982e+9 
           3630       2.4036e+9 
           3640      2.37415e+9 
           3650      2.24641e+9 
           3670      2.20999e+9 
           3690      2.16803e+9 
           3710      2.10011e+9 
           3730      2.06635e+9 
           3750      2.05921e+9 
           3770      2.01897e+9 
           3790      2.07567e+9 
           3810      2.11523e+9 
           3830      1.92316e+9 
           3850      2.10343e+9 
           3870      2.05614e+9 
           3890      1.80471e+9 
           3910      2.04312e+9 
           3930      1.98491e+9 
           3950      1.93835e+9 
           3970      1.66277e+9 
           3990      1.88953e+9 
           4010      1.85969e+9 
           4030       1.7848e+9 
           4050      1.80233e+9 
           4070      1.73401e+9 
           4090      1.63555e+9 
           4110       1.5033e+9 
           4130      1.64939e+9 
           4150      1.62878e+9 
           4170      1.61835e+9 
           4190      1.58725e+9 
           4210      1.55452e+9 
           4230      1.54116e+9 
           4250      1.50102e+9 
           4270      1.46833e+9 
           4290      1.44435e+9 
           4310      1.40573e+9 
           4330       1.3202e+9 
           4350      1.23343e+9 
           4370      1.34082e+9 
           4390      1.31143e+9 
           4410      1.29976e+9 
           4430      1.28985e+9 
           4450      1.26653e+9 
           4470      1.22083e+9 
           4490       1.2273e+9 
           4510      1.19943e+9 
           4530      1.18589e+9 
           4550        1.157e+9 
           4570      1.15209e+9 
           4590      1.12943e+9 
           4610      1.10921e+9 
           4630      1.08389e+9 
           4650      1.03165e+9 
           4670      1.05243e+9 
           4690      1.02624e+9 
           4710      1.01528e+9 
           4730      1.01833e+9 
           4750      1.00109e+9 
           4770      9.89919e+8 
           4790      9.74034e+8 
           4810      9.56637e+8 
           4830      9.37282e+8 
           4850       8.8956e+8 
           4870       8.1252e+8 
           4890      8.94051e+8 
           4910       8.8322e+8 
           4930      8.58475e+8 
           4950      8.55304e+8 
           4970      8.48098e+8 
           4990      8.35186e+8 
           5010      8.08599e+8 
           5030      8.07036e+8 
           5050       7.9389e+8 
           5070      7.86614e+8 
           5090      7.74468e+8 
           5110      7.62675e+8 
           5130       7.5037e+8 
           5150      7.39624e+8 
           5170      7.28994e+8 
           5190      7.19274e+8 
           5210      7.09363e+8 
           5230       6.9921e+8 
           5250      6.87086e+8 
           5270      6.77065e+8 
           5290      6.69654e+8 
           5310      6.60009e+8 
           5330      6.50769e+8 
           5350      6.41648e+8 
           5370      6.32683e+8 
           5390      6.23484e+8 
           5410       6.0847e+8 
           5430      6.06679e+8 
           5450      5.98188e+8 
           5470      5.89768e+8 
           5490      5.81704e+8 
           5510      5.73605e+8 
           5530      5.65755e+8 
           5550      5.58542e+8 
           5570      5.50616e+8 
           5590      5.42089e+8 
           5610       5.3622e+8 
           5630      5.29042e+8 
           5650      5.21668e+8 
           5670      5.13834e+8 
           5690      5.00617e+8 
           5710      4.88219e+8 
           5730      4.82281e+8 
           5750      4.75331e+8 
           5770      4.70288e+8 
           5790      4.64055e+8 
           5810      4.57205e+8 
           5830      4.51181e+8 
           5850      4.47353e+8 
           5870      4.33245e+8 
           5890       4.3615e+8 
           5910      4.32394e+8 
           5930      4.27747e+8 
           5950      4.23386e+8 
           5970      4.19994e+8 
           5990      4.15189e+8 
           6010      4.11251e+8 
           6030      4.06217e+8 
           6050      4.01735e+8 
           6070      3.97078e+8 
           6090      3.92209e+8 
           6110      3.87102e+8 
           6130      3.82485e+8 
           6150      3.77013e+8 
           6170      3.72485e+8 
           6190      3.68528e+8 
           6210      3.64205e+8 
           6230      3.59618e+8 
           6250      3.55044e+8 
           6270      3.50972e+8 
           6290       3.4681e+8 
           6310      3.42051e+8 
           6330       3.3852e+8 
           6350      3.34233e+8 
           6370       3.3055e+8 
           6390      3.26547e+8 
           6410      3.22257e+8 
           6430      3.18906e+8 
           6450      3.14885e+8 
           6470      3.10629e+8 
           6490      3.07205e+8 
           6510      3.03374e+8 
           6530      2.98691e+8 
           6550      2.89793e+8 
           6570      2.62197e+8 
           6590      2.87665e+8 
           6610      2.86495e+8 
           6630      2.83527e+8 
           6650      2.80171e+8 
           6670      2.74243e+8 
           6690      2.70804e+8 
           6710      2.70205e+8 
           6730      2.66863e+8 
           6750       2.6425e+8 
           6770      2.61697e+8 
           6790       2.5818e+8 
           6810      2.55869e+8 
           6830      2.52976e+8 
           6850      2.50184e+8 
           6870      2.47269e+8 
           6890      2.43566e+8 
           6910      2.41432e+8 
           6930      2.39382e+8 
           6950      2.36727e+8 
           6970      2.34145e+8 
           6990      2.31558e+8 
           7010      2.28851e+8 
           7030      2.25973e+8 
           7050      2.23821e+8 
           7070       2.1875e+8 
           7090      2.19256e+8 
           7110      2.16571e+8 
           7130       2.1438e+8 
           7150      2.12283e+8 
           7170      2.09459e+8 
           7190      2.07486e+8 
           7210      2.05569e+8 
           7230      2.02069e+8 
           7250      2.01013e+8 
           7270       1.9911e+8 
           7290      1.95801e+8 
           7310      1.94865e+8 
           7330      1.92863e+8 
           7350      1.90873e+8 
           7370      1.88889e+8 
           7390       1.8695e+8 
           7410      1.84989e+8 
           7430        1.831e+8 
           7450      1.81141e+8 
           7470      1.79031e+8 
           7490      1.76962e+8 
           7510       1.7562e+8 
           7530      1.73811e+8 
           7550      1.72131e+8 
           7570      1.70336e+8 
           7590      1.67778e+8 
           7610       1.6665e+8 
           7630      1.65163e+8 
           7650      1.63534e+8 
           7670      1.61972e+8 
           7690      1.60035e+8 
           7710      1.58572e+8 
           7730      1.56743e+8 
           7750      1.55584e+8 
           7770      1.54067e+8 
           7790      1.52569e+8 
           7810      1.51016e+8 
           7830       1.4957e+8 
           7850      1.48039e+8 
           7870      1.46478e+8 
           7890      1.45028e+8 
           7910       1.4379e+8 
           7930      1.42395e+8 
           7950      1.41101e+8 
           7970      1.39629e+8 
           7990      1.38364e+8 
           8010       1.3701e+8 
           8030      1.35616e+8 
           8050       1.3442e+8 
           8070       1.3313e+8 
           8090      1.31776e+8 
           8110      1.30113e+8 
           8130      1.29376e+8 
           8150       1.2805e+8 
           8170      1.26916e+8 
           8190      1.25275e+8 
           8210      1.22916e+8 
           8230      1.21379e+8 
           8250      1.20758e+8 
           8270      1.19183e+8 
           8290      1.18576e+8 
           8310      1.17608e+8 
           8330      1.16278e+8 
           8350      1.14873e+8 
           8370      1.14185e+8 
           8390      1.13369e+8 
           8410      1.12287e+8 
           8430      1.11299e+8 
           8450      1.09886e+8 
           8470       1.0931e+8 
           8490      1.08221e+8 
           8510      1.06891e+8 
           8530      1.06307e+8 
           8550       1.0511e+8 
           8570      1.04866e+8 
