# Kurucz ODFNEW /NOVER (2003)
# teff = 23000 K (value for the effective temperature for the model. Temperatures are given in K)
# logg = 5 log(cm/s2) (value for Log(G) for the model.)
# meta = 0.5  (value for the Metallicity for the model.)
# lh = 1.25  (l/Hp where l is the  mixing length of the convective element and Hp is the pressure scale height)
# vtur = 2 km/s (Microturbulence velocity)
# alpha = 0  (Alpha)
#
# column 1: WAVELENGTH (ANGSTROM), Wavelength in Angstrom
# column 2: FLUX (ERG/CM2/S/A), Flux in erg/cm2/s/A
          147.2     4.97412e-15 
            151     2.16808e-14 
          155.2     1.01673e-13 
          158.8     3.58945e-13 
            162     1.05323e-12 
            166     3.82239e-12 
          170.3     1.42562e-11 
          173.4     3.56462e-11 
          176.8     9.35838e-11 
          180.2     2.37231e-10 
          181.7     3.53532e-10 
          186.1      1.10289e-9 
            191      3.69459e-9 
          193.9      7.34527e-9 
          198.4       2.0557e-8 
          201.8      4.34703e-8 
            205      8.60404e-8 
          210.5       2.6575e-7 
          216.2      8.07178e-7 
          219.8      1.58312e-6 
            223      2.83117e-6 
          226.8      5.53359e-6 
            230      9.75437e-5 
            234     0.000225518 
            240     0.000563878 
          246.5      0.00144015 
          252.4      0.00327175 
          256.8      0.00570605 
            260      0.00902646 
            264       0.0147933 
          268.5       0.0253868 
          273.5       0.0450843 
          278.5       0.0792877 
            284        0.148224 
            290        0.274193 
            296        0.495721 
            301        0.794657 
            308          1.5337 
            318         3.72989 
            328         8.18598 
            338         17.9824 
            348         36.7322 
            357         87.3298 
            366         160.109 
            375         265.684 
            385          466.41 
            395         810.635 
            405         1328.39 
            414         2061.38 
            422         2950.43 
            430         4264.85 
            441         6773.85 
            451         10042.7 
            460         14002.7 
            470         20350.9 
            480         28799.2 
            490         40520.8 
            500         55832.8 
            506          267308 
            512      2.99192e+6 
            520      3.55803e+6 
            530      4.49567e+6 
            540       5.0281e+6 
            550      7.18887e+6 
            560      8.34475e+6 
            570      1.03666e+7 
            580      1.03315e+7 
            590      1.35822e+7 
            600       1.5516e+7 
            610      1.84588e+7 
            620      1.99028e+7 
            630      2.11667e+7 
            640       1.9277e+7 
            650      1.41811e+7 
            658      2.23316e+7 
            665       2.8829e+7 
            675       3.3473e+7 
            685      3.57866e+7 
            695      4.63486e+7 
            705      4.90626e+7 
            716      5.56846e+7 
            726      5.94432e+7 
            735      6.27182e+7 
            745      7.14803e+7 
            755      7.76359e+7 
            765      8.46961e+7 
            775      9.19267e+7 
            785      9.91733e+7 
            795      1.03662e+8 
            805      1.09305e+8 
            815       1.1513e+8 
            825      1.25701e+8 
            835      1.19612e+8 
            845      1.34003e+8 
            855      1.39746e+8 
            865      1.50405e+8 
            875      1.61128e+8 
            885      1.75362e+8 
            895      1.84869e+8 
            905      1.82246e+8 
            915      2.38527e+8 
            925      1.00044e+9 
            935      2.20882e+9 
            945      5.34789e+9 
            955      9.31017e+9 
            965     1.21625e+10 
            975      2.11242e+9 
            985     1.26229e+10 
            995     1.26152e+10 
           1005     1.61471e+10 
           1015     1.49865e+10 
           1025      4.47575e+9 
           1035     1.03338e+10 
           1045     2.12506e+10 
           1055     2.00962e+10 
           1065      1.4569e+10 
           1075     1.84709e+10 
           1085     1.62872e+10 
           1095     1.90658e+10 
           1105     1.65582e+10 
           1115     1.51764e+10 
           1125     1.26114e+10 
           1135     1.75245e+10 
           1145      1.4618e+10 
           1155     1.60291e+10 
           1165     1.60579e+10 
           1175      9.52339e+9 
           1185     1.59336e+10 
           1195     1.27735e+10 
           1205      7.16033e+9 
           1215      4.45754e+9 
           1225     1.00763e+10 
           1235     1.53349e+10 
           1245     1.54335e+10 
           1255     1.50481e+10 
           1265     1.49882e+10 
           1275     1.56518e+10 
           1285     1.59998e+10 
           1295      9.61421e+9 
           1305       9.7258e+9 
           1315     1.52082e+10 
           1325     1.37531e+10 
           1335     1.28277e+10 
           1345     1.39101e+10 
           1355     1.36421e+10 
           1365      1.1736e+10 
           1375     1.15915e+10 
           1385     1.15857e+10 
           1395      8.77811e+9 
           1405      9.48358e+9 
           1415     1.00016e+10 
           1425      1.0202e+10 
           1435     1.04306e+10 
           1442     1.09064e+10 
           1447     1.07192e+10 
           1455     1.03954e+10 
           1465      9.38951e+9 
           1475      9.61155e+9 
           1485       9.3732e+9 
           1495      9.30941e+9 
           1505      8.16055e+9 
           1512      7.29138e+9 
           1517      7.63252e+9 
           1525      8.00655e+9 
           1535      6.77696e+9 
           1545      6.70325e+9 
           1555      6.52321e+9 
           1565      6.94201e+9 
           1575      7.40937e+9 
           1585      7.49642e+9 
           1595      7.43204e+9 
           1605      7.63513e+9 
           1615      7.54997e+9 
           1625       7.2927e+9 
           1635      7.82018e+9 
           1645      7.79012e+9 
           1655      7.48748e+9 
           1665      7.95009e+9 
           1672      7.56751e+9 
           1677      8.01233e+9 
           1685      7.98513e+9 
           1695      7.47512e+9 
           1705      7.15559e+9 
           1715       6.7158e+9 
           1725      6.58056e+9 
           1735      6.99738e+9 
           1745      6.73035e+9 
           1755      6.88137e+9 
           1765      6.55208e+9 
           1775      6.28308e+9 
           1785      6.41885e+9 
           1795      6.77909e+9 
           1805      6.84803e+9 
           1815      5.96871e+9 
           1825      6.30389e+9 
           1835      5.97021e+9 
           1845      5.40211e+9 
           1855      5.33548e+9 
           1865      5.43287e+9 
           1875      5.93776e+9 
           1885      5.19765e+9 
           1895      4.83734e+9 
           1905      5.32847e+9 
           1915      4.88198e+9 
           1925      4.68296e+9 
           1935      4.98845e+9 
           1945      5.08497e+9 
           1955       4.5841e+9 
           1967      5.07137e+9 
           1976      5.28984e+9 
           1984      4.83046e+9 
           1995      4.74809e+9 
           2005      4.98479e+9 
           2015      4.78448e+9 
           2025      5.07304e+9 
           2035      4.57218e+9 
           2045      4.70341e+9 
           2055      4.53553e+9 
           2065      4.55462e+9 
           2074      4.77004e+9 
           2078      4.28127e+9 
           2085      4.55891e+9 
           2095      4.25576e+9 
           2105      4.42049e+9 
           2115      4.43412e+9 
           2125      4.48384e+9 
           2135      4.34713e+9 
           2145      4.15252e+9 
           2155      4.34502e+9 
           2165       4.3102e+9 
           2175      4.25544e+9 
           2185      4.08386e+9 
           2195      4.17332e+9 
           2205      4.11897e+9 
           2215      4.02543e+9 
           2225      3.88561e+9 
           2235      3.90687e+9 
           2245      3.91744e+9 
           2255      3.73957e+9 
           2265      3.84622e+9 
           2275      3.79406e+9 
           2285        3.811e+9 
           2295      3.52523e+9 
           2305      3.63879e+9 
           2315      3.50128e+9 
           2325      3.45394e+9 
           2335      3.30143e+9 
           2345      3.30793e+9 
           2355      3.31556e+9 
           2365      3.24649e+9 
           2375       3.2126e+9 
           2385      3.16697e+9 
           2395      3.20081e+9 
           2405      3.07492e+9 
           2415      3.09885e+9 
           2425      3.10743e+9 
           2435      2.97928e+9 
           2445      3.02151e+9 
           2455      3.02332e+9 
           2465      2.95489e+9 
           2475      2.90233e+9 
           2485      2.90318e+9 
           2495      2.68896e+9 
           2505      2.83564e+9 
           2513      2.66597e+9 
           2518      2.80281e+9 
           2525      2.71419e+9 
           2535      2.68086e+9 
           2545      2.58347e+9 
           2555      2.65314e+9 
           2565      2.61652e+9 
           2575      2.64333e+9 
           2585      2.62884e+9 
           2595       2.6042e+9 
           2605      2.56454e+9 
           2615      2.54044e+9 
           2625      2.51806e+9 
           2635      2.50647e+9 
           2645      2.49844e+9 
           2655      2.49574e+9 
           2665      2.37589e+9 
           2675      2.40938e+9 
           2685      2.39147e+9 
           2695      2.30617e+9 
           2705      2.27113e+9 
           2715      2.26026e+9 
           2725      2.24583e+9 
           2735      2.25578e+9 
           2745      2.15463e+9 
           2755      2.15877e+9 
           2765      2.14505e+9 
           2775      2.17977e+9 
           2785      2.14364e+9 
           2795      2.04346e+9 
           2805      2.08005e+9 
           2815      2.09392e+9 
           2825      2.05589e+9 
           2835      1.95269e+9 
           2845      1.98525e+9 
           2855      1.96868e+9 
           2865      1.98333e+9 
           2875      1.95488e+9 
           2885      1.93126e+9 
           2895       1.9085e+9 
           2910      1.87735e+9 
           2930       1.8454e+9 
           2950      1.78713e+9 
           2970      1.77028e+9 
           2990      1.72455e+9 
           3010      1.68009e+9 
           3030       1.6748e+9 
           3050      1.64007e+9 
           3070       1.6121e+9 
           3090      1.55792e+9 
           3110      1.54266e+9 
           3130      1.51093e+9 
           3150      1.48463e+9 
           3170       1.4429e+9 
           3190      1.40806e+9 
           3210      1.39762e+9 
           3230      1.36907e+9 
           3250      1.34738e+9 
           3270       1.3202e+9 
           3290      1.29418e+9 
           3310      1.27246e+9 
           3330      1.24544e+9 
           3350      1.22185e+9 
           3370       1.1988e+9 
           3390       1.1801e+9 
           3410      1.15872e+9 
           3430      1.13161e+9 
           3450       1.1071e+9 
           3470      1.08887e+9 
           3490      1.06807e+9 
           3510      1.04976e+9 
           3530      1.03451e+9 
           3550      1.01652e+9 
           3570      1.00543e+9 
           3590      9.71456e+8 
           3610      9.58525e+8 
           3630      9.44161e+8 
           3640      9.45861e+8 
           3650      9.32202e+8 
           3670      9.22153e+8 
           3690      9.07315e+8 
           3710      8.73418e+8 
           3730       8.4144e+8 
           3750      8.37685e+8 
           3770      8.15807e+8 
           3790      8.56815e+8 
           3810      8.97464e+8 
           3830      7.72957e+8 
           3850      9.25475e+8 
           3870      9.44157e+8 
           3890      7.22657e+8 
           3910      9.46697e+8 
           3930      9.27402e+8 
           3950      9.11974e+8 
           3970      6.72672e+8 
           3990      8.70424e+8 
           4010        8.873e+8 
           4030       8.1723e+8 
           4050      8.64715e+8 
           4070      8.19463e+8 
           4090       7.3796e+8 
           4110      6.40048e+8 
           4130      7.76875e+8 
           4150       7.7938e+8 
           4170      7.79959e+8 
           4190      7.74033e+8 
           4210      7.68057e+8 
           4230        7.502e+8 
           4250      7.29244e+8 
           4270      7.02428e+8 
           4290      7.01748e+8 
           4310      6.75741e+8 
           4330       5.9163e+8 
           4350      5.37187e+8 
           4370      6.36973e+8 
           4390      6.28075e+8 
           4410      6.37093e+8 
           4430      6.30471e+8 
           4450      6.24074e+8 
           4470      5.77739e+8 
           4490      5.99774e+8 
           4510      6.01042e+8 
           4530      5.88733e+8 
           4550      5.81949e+8 
           4570       5.7252e+8 
           4590      5.63357e+8 
           4610      5.48978e+8 
           4630      5.38727e+8 
           4650      5.27726e+8 
           4670      5.26722e+8 
           4690      5.22736e+8 
           4710      4.97741e+8 
           4730      4.99906e+8 
           4750      4.93067e+8 
           4770      4.94355e+8 
           4790      4.83668e+8 
           4810      4.70535e+8 
           4830      4.59396e+8 
           4850      4.10515e+8 
           4870      3.61466e+8 
           4890      4.38786e+8 
           4910      4.39063e+8 
           4930      4.19387e+8 
           4950      4.28674e+8 
           4970      4.25933e+8 
           4990      4.18365e+8 
           5010       3.9627e+8 
           5030      4.04277e+8 
           5050      3.91686e+8 
           5070      3.95271e+8 
           5090      3.88681e+8 
           5110      3.81273e+8 
           5130      3.70232e+8 
           5150      3.66254e+8 
           5170      3.67189e+8 
           5190      3.62406e+8 
           5210      3.53703e+8 
           5230      3.52284e+8 
           5250      3.47842e+8 
           5270      3.41924e+8 
           5290      3.38926e+8 
           5310      3.33759e+8 
           5330       3.2858e+8 
           5350      3.22732e+8 
           5370      3.21038e+8 
           5390      3.16547e+8 
           5410      3.12202e+8 
           5430      3.07096e+8 
           5450       3.0321e+8 
           5470      2.98806e+8 
           5490      2.95745e+8 
           5510      2.92361e+8 
           5530      2.87935e+8 
           5550      2.85019e+8 
           5570      2.80972e+8 
           5590      2.77856e+8 
           5610        2.737e+8 
           5630      2.70963e+8 
           5650      2.64044e+8 
           5670      2.59888e+8 
           5690      2.57366e+8 
           5710      2.56017e+8 
           5730      2.53338e+8 
           5750      2.49607e+8 
           5770      2.47552e+8 
           5790      2.44237e+8 
           5810      2.41086e+8 
           5830      2.37661e+8 
           5850      2.35015e+8 
           5870      2.22548e+8 
           5890      2.25535e+8 
           5910      2.25521e+8 
           5930      2.22749e+8 
           5950       2.1919e+8 
           5970      2.18506e+8 
           5990      2.14718e+8 
           6010      2.13167e+8 
           6030       2.1017e+8 
           6050      2.07846e+8 
           6070      2.05609e+8 
           6090      2.02971e+8 
           6110      2.00686e+8 
           6130      1.98526e+8 
           6150       1.9406e+8 
           6170       1.9313e+8 
           6190      1.91402e+8 
           6210      1.89243e+8 
           6230      1.87031e+8 
           6250       1.8381e+8 
           6270      1.82294e+8 
           6290      1.80385e+8 
           6310      1.78041e+8 
           6330      1.76392e+8 
           6350      1.72984e+8 
           6370      1.71723e+8 
           6390      1.70087e+8 
           6410      1.68147e+8 
           6430      1.66629e+8 
           6450      1.64474e+8 
           6470       1.6174e+8 
           6490      1.60199e+8 
           6510      1.58221e+8 
           6530       1.5515e+8 
           6550       1.4465e+8 
           6570      1.25268e+8 
           6590      1.46907e+8 
           6610       1.4921e+8 
           6630      1.48303e+8 
           6650      1.46926e+8 
           6670      1.43235e+8 
           6690      1.41858e+8 
           6710      1.42336e+8 
           6730      1.40518e+8 
           6750      1.39372e+8 
           6770      1.37884e+8 
           6790      1.34638e+8 
           6810      1.34515e+8 
           6830      1.33155e+8 
           6850      1.31969e+8 
           6870      1.30563e+8 
           6890      1.29084e+8 
           6910      1.27659e+8 
           6930      1.26264e+8 
           6950      1.25125e+8 
           6970      1.23827e+8 
           6990      1.22464e+8 
           7010       1.2113e+8 
           7030      1.19862e+8 
           7050      1.18448e+8 
           7070      1.14786e+8 
           7090      1.15856e+8 
           7110      1.14147e+8 
           7130      1.13018e+8 
           7150      1.12188e+8 
           7170      1.11299e+8 
           7190      1.10346e+8 
           7210      1.09234e+8 
           7230      1.05906e+8 
           7250      1.06814e+8 
           7270       1.0592e+8 
           7290      1.03837e+8 
           7310      1.03763e+8 
           7330      1.02707e+8 
           7350       1.0173e+8 
           7370      1.00714e+8 
           7390      9.97008e+7 
           7410      9.87105e+7 
           7430      9.75383e+7 
           7450      9.66895e+7 
           7470      9.53421e+7 
           7490      9.47194e+7 
           7510      9.37881e+7 
           7530      9.28188e+7 
           7550      9.20567e+7 
           7570      9.11699e+7 
           7590      9.02389e+7 
           7610      8.93423e+7 
           7630      8.85057e+7 
           7650      8.76702e+7 
           7670      8.68229e+7 
           7690      8.59769e+7 
           7710      8.51512e+7 
           7730      8.43013e+7 
           7750      8.35344e+7 
           7770      8.19068e+7 
           7790      8.19524e+7 
           7810      8.11255e+7 
           7830      8.04105e+7 
           7850      7.93961e+7 
           7870      7.86768e+7 
           7890      7.76551e+7 
           7910      7.73472e+7 
           7930       7.6676e+7 
           7950      7.56529e+7 
           7970       7.5155e+7 
           7990      7.40711e+7 
           8010      7.37487e+7 
           8030      7.30429e+7 
           8050       7.2349e+7 
           8070      7.16958e+7 
           8090      7.09907e+7 
           8110      7.01827e+7 
           8130      6.97467e+7 
           8150      6.91155e+7 
           8170      6.85461e+7 
           8190      6.77175e+7 
           8210      6.70191e+7 
           8230      6.62544e+7 
           8250       6.6083e+7 
           8270      6.50091e+7 
           8290      6.48767e+7 
           8310      6.43357e+7 
           8330      6.37774e+7 
           8350      6.28995e+7 
           8370      6.24863e+7 
           8390      6.21245e+7 
           8410      6.15577e+7 
           8430      6.09744e+7 
           8450      5.96731e+7 
           8470      5.99378e+7 
           8490      5.91853e+7 
           8510      5.87722e+7 
           8530      5.81914e+7 
           8550      5.74866e+7 
           8570      5.74751e+7 
           8590      5.56965e+7 
