# Kurucz ODFNEW /NOVER (2003)
# teff = 25000 K (value for the effective temperature for the model. Temperatures are given in K)
# logg = 5 log(cm/s2) (value for Log(G) for the model.)
# meta = 0.5  (value for the Metallicity for the model.)
# lh = 1.25  (l/Hp where l is the  mixing length of the convective element and Hp is the pressure scale height)
# vtur = 2 km/s (Microturbulence velocity)
# alpha = 0.4  (Alpha)
#
# column 1: WAVELENGTH (ANGSTROM), Wavelength in Angstrom
# column 2: FLUX (ERG/CM2/S/A), Flux in erg/cm2/s/A
          147.2     3.11237e-13 
            151     1.22291e-12 
          155.2     5.14254e-12 
          158.8     1.66094e-11 
            162     4.51719e-11 
            166     1.49661e-10 
          170.3     5.06509e-10 
          173.4      1.19136e-9 
          176.8       2.9206e-9 
          180.2      6.92944e-9 
          181.7      1.00272e-8 
          186.1      2.88346e-8 
            191      8.87428e-8 
          193.9      1.68008e-7 
          198.4      4.36809e-7 
          201.8      8.75502e-7 
            205      1.65035e-6 
          210.5      4.70616e-6 
          216.2      1.32034e-5 
          219.8      2.46794e-5 
            223      4.23464e-5 
          226.8      7.89152e-5 
            230      0.00112898 
            234      0.00251194 
            240      0.00591576 
          246.5       0.0142217 
          252.4         0.03074 
          256.8       0.0516997 
            260        0.080668 
            264        0.126652 
          268.5        0.211958 
          273.5        0.363885 
          278.5        0.618749 
            284         1.16789 
            290         2.07524 
            296         3.62802 
            301         5.66377 
            308         11.0814 
            318         25.7713 
            328         53.6394 
            338         114.476 
            348         225.635 
            357         1073.59 
            366         2176.38 
            375         3333.44 
            385         5604.24 
            395         10450.9 
            405         15916.9 
            414         23967.1 
            422         33003.3 
            430         46462.6 
            441         69634.9 
            451         97237.9 
            460          128070 
            470          178951 
            480          241784 
            490          328622 
            500          433555 
            506      1.66179e+6 
            512      1.82542e+7 
            520      2.04248e+7 
            530      2.44921e+7 
            540       2.5331e+7 
            550      3.72595e+7 
            560      4.32963e+7 
            570        5.176e+7 
            580      5.00354e+7 
            590      6.59228e+7 
            600      7.11652e+7 
            610      8.26021e+7 
            620      8.60862e+7 
            630      8.72135e+7 
            640      7.49007e+7 
            650      5.55411e+7 
            658      8.34695e+7 
            665      1.08029e+8 
            675      1.21777e+8 
            685       1.2622e+8 
            695       1.7189e+8 
            705      1.75546e+8 
            716       2.0008e+8 
            726      2.06013e+8 
            735      2.17589e+8 
            745       2.4747e+8 
            755      2.63362e+8 
            765      2.84119e+8 
            775      3.02851e+8 
            785      3.23141e+8 
            795      3.29697e+8 
            805      3.42421e+8 
            815      3.54788e+8 
            825      3.84863e+8 
            835      3.29691e+8 
            845      3.93953e+8 
            855      4.02468e+8 
            865      4.29141e+8 
            875      4.51642e+8 
            885      4.90329e+8 
            895      5.12261e+8 
            905      4.96357e+8 
            915       6.0265e+8 
            925      2.44193e+9 
            935      5.45471e+9 
            945     1.27654e+10 
            955     1.97798e+10 
            965     2.55062e+10 
            975      3.96732e+9 
            985     2.34229e+10 
            995     2.19023e+10 
           1005     2.74994e+10 
           1015     2.72802e+10 
           1025      9.51877e+9 
           1035     2.01169e+10 
           1045      3.6889e+10 
           1055     3.38981e+10 
           1065     2.28291e+10 
           1075     2.91907e+10 
           1085     2.69145e+10 
           1095     3.10344e+10 
           1105     2.57189e+10 
           1115     2.23366e+10 
           1125     1.69108e+10 
           1135      2.6749e+10 
           1145     2.18602e+10 
           1155     2.39543e+10 
           1165     2.42743e+10 
           1175     1.35266e+10 
           1185     2.34568e+10 
           1195     1.88195e+10 
           1205      9.10154e+9 
           1215       7.8971e+9 
           1225      1.5803e+10 
           1235     2.26281e+10 
           1245      2.2477e+10 
           1255     2.18301e+10 
           1265     2.22774e+10 
           1275     2.28702e+10 
           1285     2.31688e+10 
           1295     1.21455e+10 
           1305     1.27073e+10 
           1315     2.22021e+10 
           1325     2.00853e+10 
           1335     1.96181e+10 
           1345     1.94916e+10 
           1355     1.97998e+10 
           1365     1.65254e+10 
           1375     1.60161e+10 
           1385     1.54231e+10 
           1395      9.64326e+9 
           1405      1.1196e+10 
           1415     1.35617e+10 
           1425     1.38751e+10 
           1435     1.44122e+10 
           1442     1.52399e+10 
           1447     1.50177e+10 
           1455     1.44332e+10 
           1465     1.29847e+10 
           1475     1.33326e+10 
           1485      1.2938e+10 
           1495     1.27881e+10 
           1505     1.08793e+10 
           1512      9.97578e+9 
           1517     1.04127e+10 
           1525     1.09308e+10 
           1535      9.05024e+9 
           1545      8.73965e+9 
           1555      8.56793e+9 
           1565      9.25294e+9 
           1575      9.92083e+9 
           1585      9.95019e+9 
           1595      9.93273e+9 
           1605     1.02896e+10 
           1615     1.00866e+10 
           1625      9.76811e+9 
           1635     1.05119e+10 
           1645     1.05636e+10 
           1655     1.02281e+10 
           1665      1.0648e+10 
           1672     1.01021e+10 
           1677     1.10309e+10 
           1685      1.0805e+10 
           1695     1.00969e+10 
           1705      9.68667e+9 
           1715       9.1201e+9 
           1725      8.85097e+9 
           1735      9.41378e+9 
           1745      9.17653e+9 
           1755      9.21597e+9 
           1765      8.98148e+9 
           1775      8.34368e+9 
           1785      8.49248e+9 
           1795      9.03173e+9 
           1805      9.12573e+9 
           1815      7.95206e+9 
           1825      8.38626e+9 
           1835      7.94637e+9 
           1845      7.17142e+9 
           1855      7.23882e+9 
           1865      7.31672e+9 
           1875      7.81325e+9 
           1885      6.86372e+9 
           1895      6.41915e+9 
           1905      7.05161e+9 
           1915      6.47438e+9 
           1925      6.14082e+9 
           1935      6.58543e+9 
           1945       6.6816e+9 
           1955      6.00486e+9 
           1967      6.65615e+9 
           1976      6.97763e+9 
           1984      6.35163e+9 
           1995      6.28434e+9 
           2005      6.57023e+9 
           2015      6.33566e+9 
           2025      6.61978e+9 
           2035      6.01725e+9 
           2045       6.1887e+9 
           2055      5.91853e+9 
           2065      5.93538e+9 
           2074      6.08805e+9 
           2078      5.55739e+9 
           2085      5.92761e+9 
           2095      5.53941e+9 
           2105      5.78091e+9 
           2115      5.82482e+9 
           2125      5.85898e+9 
           2135      5.70587e+9 
           2145       5.4354e+9 
           2155      5.69634e+9 
           2165      5.65895e+9 
           2175      5.57151e+9 
           2185      5.35516e+9 
           2195      5.44261e+9 
           2205      5.41931e+9 
           2215      5.30584e+9 
           2225      5.11519e+9 
           2235      5.09606e+9 
           2245      5.14375e+9 
           2255      4.90827e+9 
           2265      5.04362e+9 
           2275      4.95279e+9 
           2285      4.94367e+9 
           2295       4.4688e+9 
           2305      4.73849e+9 
           2315      4.57982e+9 
           2325      4.53013e+9 
           2335      4.33649e+9 
           2345      4.38522e+9 
           2355      4.35845e+9 
           2365      4.30079e+9 
           2375      4.23032e+9 
           2385      4.20406e+9 
           2395      4.18939e+9 
           2405      4.06292e+9 
           2415      4.05369e+9 
           2425      4.05915e+9 
           2435      3.90122e+9 
           2445       3.9298e+9 
           2455      3.93567e+9 
           2465      3.86078e+9 
           2475      3.79557e+9 
           2485      3.72152e+9 
           2495      3.18473e+9 
           2505      3.59858e+9 
           2513      3.44005e+9 
           2518      3.58855e+9 
           2525      3.52306e+9 
           2535      3.49028e+9 
           2545      3.30203e+9 
           2555      3.40781e+9 
           2565      3.34527e+9 
           2575      3.39706e+9 
           2585      3.36564e+9 
           2595      3.33741e+9 
           2605      3.29451e+9 
           2615      3.25327e+9 
           2625      3.22815e+9 
           2635      3.20272e+9 
           2645        3.173e+9 
           2655      3.16101e+9 
           2665      2.98849e+9 
           2675      3.04216e+9 
           2685      3.02764e+9 
           2695      2.90573e+9 
           2705      2.83681e+9 
           2715       2.8458e+9 
           2725      2.84012e+9 
           2735      2.83339e+9 
           2745      2.73134e+9 
           2755      2.73215e+9 
           2765      2.70735e+9 
           2775      2.75338e+9 
           2785      2.69896e+9 
           2795      2.55256e+9 
           2805      2.60904e+9 
           2815       2.6348e+9 
           2825      2.59144e+9 
           2835      2.46515e+9 
           2845      2.51273e+9 
           2855      2.47279e+9 
           2865      2.48424e+9 
           2875      2.45031e+9 
           2885      2.41837e+9 
           2895      2.38196e+9 
           2910      2.32299e+9 
           2930      2.30578e+9 
           2950      2.23315e+9 
           2970       2.2071e+9 
           2990      2.14721e+9 
           3010      2.06363e+9 
           3030      2.06245e+9 
           3050      2.03003e+9 
           3070      2.00818e+9 
           3090      1.91279e+9 
           3110      1.91272e+9 
           3130       1.8619e+9 
           3150      1.83643e+9 
           3170      1.78166e+9 
           3190      1.74347e+9 
           3210       1.7281e+9 
           3230      1.68488e+9 
           3250      1.66328e+9 
           3270       1.6257e+9 
           3290      1.59308e+9 
           3310      1.56477e+9 
           3330      1.52891e+9 
           3350      1.50309e+9 
           3370      1.46978e+9 
           3390      1.45108e+9 
           3410      1.42351e+9 
           3430      1.39309e+9 
           3450      1.36085e+9 
           3470      1.33557e+9 
           3490      1.30781e+9 
           3510      1.28659e+9 
           3530        1.269e+9 
           3550      1.24499e+9 
           3570      1.22963e+9 
           3590      1.18545e+9 
           3610      1.17137e+9 
           3630      1.15241e+9 
           3640      1.15493e+9 
           3650      1.13642e+9 
           3670      1.12457e+9 
           3690      1.10666e+9 
           3710      1.06227e+9 
           3730      1.02801e+9 
           3750      1.01817e+9 
           3770      9.85128e+8 
           3790      1.02428e+9 
           3810      1.06496e+9 
           3830      9.25175e+8 
           3850      1.08303e+9 
           3870       1.0943e+9 
           3890      8.64839e+8 
           3910      1.10576e+9 
           3930      1.07422e+9 
           3950      1.05583e+9 
           3970      8.04281e+8 
           3990      1.01361e+9 
           4010      1.03099e+9 
           4030      9.54135e+8 
           4050      9.95723e+8 
           4070      9.30469e+8 
           4090      8.51127e+8 
           4110      7.50644e+8 
           4130      8.94751e+8 
           4150      8.95992e+8 
           4170      9.01045e+8 
           4190      8.91991e+8 
           4210      8.89275e+8 
           4230      8.65537e+8 
           4250      8.31401e+8 
           4270      8.03197e+8 
           4290      7.96953e+8 
           4310      7.65258e+8 
           4330      6.85286e+8 
           4350      6.25882e+8 
           4370      7.25785e+8 
           4390      7.24524e+8 
           4410      7.27382e+8 
           4430      7.25455e+8 
           4450       7.1347e+8 
           4470       6.6775e+8 
           4490      6.86855e+8 
           4510      6.91964e+8 
           4530      6.78579e+8 
           4550      6.70588e+8 
           4570      6.58725e+8 
           4590      6.47257e+8 
           4610      6.28003e+8 
           4630      6.18319e+8 
           4650      5.99317e+8 
           4670      6.02331e+8 
           4690      5.99106e+8 
           4710      5.66246e+8 
           4730      5.76387e+8 
           4750      5.67653e+8 
           4770      5.71132e+8 
           4790      5.58343e+8 
           4810      5.40976e+8 
           4830      5.27301e+8 
           4850      4.78373e+8 
           4870      4.24146e+8 
           4890      5.06516e+8 
           4910      5.05351e+8 
           4930      4.83852e+8 
           4950      4.91144e+8 
           4970      4.91088e+8 
           4990      4.82015e+8 
           5010       4.5521e+8 
           5030      4.65222e+8 
           5050      4.50421e+8 
           5070       4.5558e+8 
           5090      4.45958e+8 
           5110      4.37655e+8 
           5130      4.25889e+8 
           5150      4.21991e+8 
           5170      4.21706e+8 
           5190      4.16239e+8 
           5210      4.06082e+8 
           5230       4.0531e+8 
           5250      4.00082e+8 
           5270      3.92303e+8 
           5290      3.89517e+8 
           5310      3.83449e+8 
           5330      3.77221e+8 
           5350      3.70484e+8 
           5370      3.68644e+8 
           5390      3.63216e+8 
           5410      3.58129e+8 
           5430      3.52288e+8 
           5450      3.47247e+8 
           5470      3.41854e+8 
           5490      3.39093e+8 
           5510      3.35581e+8 
           5530      3.29844e+8 
           5550      3.26774e+8 
           5570      3.22027e+8 
           5590      3.18726e+8 
           5610      3.13489e+8 
           5630      3.10624e+8 
           5650      3.02127e+8 
           5670      2.96976e+8 
           5690       2.9388e+8 
           5710      2.92414e+8 
           5730      2.90078e+8 
           5750      2.85032e+8 
           5770      2.83501e+8 
           5790      2.79613e+8 
           5810      2.75761e+8 
           5830      2.71666e+8 
           5850      2.68766e+8 
           5870      2.55163e+8 
           5890       2.5795e+8 
           5910      2.57178e+8 
           5930      2.54246e+8 
           5950      2.49954e+8 
           5970      2.49868e+8 
           5990      2.44894e+8 
           6010      2.43601e+8 
           6030      2.39884e+8 
           6050      2.37282e+8 
           6070      2.34842e+8 
           6090      2.31788e+8 
           6110      2.29184e+8 
           6130      2.26798e+8 
           6150      2.21003e+8 
           6170      2.20047e+8 
           6190       2.1849e+8 
           6210      2.16098e+8 
           6230      2.13713e+8 
           6250      2.09715e+8 
           6270       2.0789e+8 
           6290      2.05866e+8 
           6310      2.02907e+8 
           6330      2.01269e+8 
           6350      1.97023e+8 
           6370      1.95964e+8 
           6390      1.93955e+8 
           6410      1.91757e+8 
           6430      1.90137e+8 
           6450      1.87547e+8 
           6470      1.84095e+8 
           6490      1.82577e+8 
           6510      1.80391e+8 
           6530      1.76593e+8 
           6550      1.66059e+8 
           6570      1.44504e+8 
           6590      1.68065e+8 
           6610      1.70068e+8 
           6630      1.69017e+8 
           6650      1.67133e+8 
           6670      1.63169e+8 
           6690       1.6169e+8 
           6710      1.62049e+8 
           6730      1.59715e+8 
           6750      1.58753e+8 
           6770      1.57036e+8 
           6790      1.53105e+8 
           6810      1.53093e+8 
           6830      1.51172e+8 
           6850      1.50186e+8 
           6870      1.48515e+8 
           6890      1.46654e+8 
           6910      1.44796e+8 
           6930      1.43648e+8 
           6950      1.42362e+8 
           6970      1.40879e+8 
           6990      1.39249e+8 
           7010      1.37651e+8 
           7030      1.36213e+8 
           7050      1.34744e+8 
           7070      1.30531e+8 
           7090      1.31624e+8 
           7110      1.29514e+8 
           7130      1.28247e+8 
           7150      1.27339e+8 
           7170      1.26417e+8 
           7190      1.25387e+8 
           7210       1.2412e+8 
           7230      1.20263e+8 
           7250      1.21098e+8 
           7270      1.20304e+8 
           7290      1.17944e+8 
           7310      1.17821e+8 
           7330      1.16583e+8 
           7350      1.15489e+8 
           7370       1.1435e+8 
           7390      1.13187e+8 
           7410      1.12055e+8 
           7430      1.10586e+8 
           7450      1.09674e+8 
           7470      1.07562e+8 
           7490      1.07317e+8 
           7510      1.06413e+8 
           7530      1.05184e+8 
           7550      1.04416e+8 
           7570      1.03418e+8 
           7590      1.02291e+8 
           7610       1.0111e+8 
           7630      1.00335e+8 
           7650      9.93668e+7 
           7670       9.8433e+7 
           7690       9.7463e+7 
           7710      9.65017e+7 
           7730      9.54608e+7 
           7750      9.46802e+7 
           7770      9.25648e+7 
           7790      9.28661e+7 
           7810      9.19279e+7 
           7830      9.11024e+7 
           7850      8.98196e+7 
           7870      8.89501e+7 
           7890      8.76403e+7 
           7910      8.75108e+7 
           7930      8.67405e+7 
           7950      8.54343e+7 
           7970      8.50179e+7 
           7990      8.36487e+7 
           8010      8.34663e+7 
           8030      8.26655e+7 
           8050      8.18541e+7 
           8070      8.11423e+7 
           8090      8.03502e+7 
           8110      7.89463e+7 
           8130      7.88832e+7 
           8150      7.82243e+7 
           8170      7.75652e+7 
           8190      7.62433e+7 
           8210      7.56263e+7 
           8230      7.45306e+7 
           8250      7.46568e+7 
           8270      7.30017e+7 
           8290      7.32309e+7 
           8310      7.26606e+7 
           8330      7.21004e+7 
           8350        7.108e+7 
           8370       7.0531e+7 
           8390      7.01737e+7 
           8410      6.94888e+7 
           8430      6.88838e+7 
           8450      6.73235e+7 
           8470      6.77149e+7 
           8490      6.68317e+7 
           8510      6.63671e+7 
           8530      6.57404e+7 
           8550      6.49694e+7 
           8570      6.48615e+7 
