# Kurucz ODFNEW /NOVER (2003)
# teff = 31000 K (value for the effective temperature for the model. Temperatures are given in K)
# logg = 3.5 log(cm/s2) (value for Log(G) for the model.)
# meta = -1  (value for the Metallicity for the model.)
# lh = 1.25  (l/Hp where l is the  mixing length of the convective element and Hp is the pressure scale height)
# vtur = 2 km/s (Microturbulence velocity)
# alpha = 0.4  (Alpha)
#
# column 1: WAVELENGTH (ANGSTROM), Wavelength in Angstrom
# column 2: FLUX (ERG/CM2/S/A), Flux in erg/cm2/s/A
          147.2      3.13254e-7 
            151      9.25706e-7 
          155.2      2.88721e-6 
          158.8      7.30992e-6 
            162      1.61464e-5 
            166      4.17019e-5 
          170.3     0.000110074 
          173.4     0.000215281 
          176.8     0.000438144 
          180.2     0.000866574 
          181.7      0.00116505 
          186.1      0.00267896 
            191      0.00647713 
          193.9       0.0106945 
          198.4       0.0226626 
          201.8       0.0390261 
            205       0.0640247 
          210.5        0.144969 
          216.2        0.323121 
          219.8        0.525785 
            223        0.799307 
          226.8         1.30285 
            230          1365.7 
            234         3342.79 
            240         5533.21 
          246.5         9815.93 
          252.4         16826.5 
          256.8         20345.1 
            260         39177.6 
            264         61123.4 
          268.5         89165.4 
          273.5          124528 
          278.5          159838 
            284          310016 
            290          441952 
            296          582878 
            301          785343 
            308      1.73254e+6 
            318      4.15049e+6 
            328      6.05028e+6 
            338      9.92738e+6 
            348       1.4776e+7 
            357      2.74416e+7 
            366      4.70673e+7 
            375      5.71155e+7 
            385      7.94175e+7 
            395      1.19223e+8 
            405      1.46849e+8 
            414      1.86721e+8 
            422      2.08699e+8 
            430       2.3706e+8 
            441      2.91476e+8 
            451      3.41648e+8 
            460      3.77281e+8 
            470      4.39609e+8 
            480      5.07555e+8 
            490      5.56857e+8 
            500      6.67655e+8 
            506      1.98373e+9 
            512      8.77815e+9 
            520      8.23427e+9 
            530      7.47813e+9 
            540      7.06936e+9 
            550      7.66473e+9 
            560      9.34303e+9 
            570      9.79728e+9 
            580      9.09604e+9 
            590      9.65168e+9 
            600      8.20914e+9 
            610      9.40598e+9 
            620     1.07609e+10 
            630     1.06156e+10 
            640     1.07243e+10 
            650     1.05948e+10 
            658       9.3729e+9 
            665     1.04723e+10 
            675      1.1317e+10 
            685       9.9669e+9 
            695     1.14573e+10 
            705      9.75203e+9 
            716     1.19966e+10 
            726      1.1857e+10 
            735     1.20615e+10 
            745     1.15437e+10 
            755      1.1534e+10 
            765      1.1772e+10 
            775     1.20096e+10 
            785     1.21793e+10 
            795     1.22545e+10 
            805     1.19938e+10 
            815     1.20592e+10 
            825     1.24588e+10 
            835     1.08827e+10 
            845     1.22839e+10 
            855     1.22662e+10 
            865     1.25084e+10 
            875     1.25193e+10 
            885     1.25901e+10 
            895     1.26574e+10 
            905     1.24331e+10 
            915     1.55434e+10 
            925     4.39223e+10 
            935     5.77015e+10 
            945     6.61051e+10 
            955     6.94204e+10 
            965       7.322e+10 
            975     4.93231e+10 
            985     6.59007e+10 
            995      6.2429e+10 
           1005     6.26512e+10 
           1015     6.35656e+10 
           1025     5.58411e+10 
           1035     6.15301e+10 
           1045     6.44703e+10 
           1055     6.30238e+10 
           1065      5.8604e+10 
           1075     5.88619e+10 
           1085     5.62618e+10 
           1095     5.81672e+10 
           1105     5.60948e+10 
           1115      5.4975e+10 
           1125     4.93436e+10 
           1135     5.34699e+10 
           1145      5.1629e+10 
           1155     5.02758e+10 
           1165      4.9805e+10 
           1175     4.03627e+10 
           1185     4.64102e+10 
           1195     4.55655e+10 
           1205     4.39847e+10 
           1215     3.79352e+10 
           1225      4.3228e+10 
           1235     4.39165e+10 
           1245     4.25163e+10 
           1255     4.24035e+10 
           1265     4.22278e+10 
           1275     4.18113e+10 
           1285     4.13045e+10 
           1295      3.9182e+10 
           1305     3.89753e+10 
           1315     3.92758e+10 
           1325     3.82475e+10 
           1335     3.72898e+10 
           1345     3.71226e+10 
           1355      3.6349e+10 
           1365     3.54261e+10 
           1375     3.47991e+10 
           1385     3.41923e+10 
           1395      2.9925e+10 
           1405     3.00082e+10 
           1415      3.2295e+10 
           1425     3.06226e+10 
           1435     3.10663e+10 
           1442     3.09139e+10 
           1447     3.05909e+10 
           1455      2.9791e+10 
           1465     2.94243e+10 
           1475     2.89972e+10 
           1485     2.87686e+10 
           1495      2.7994e+10 
           1505     2.76249e+10 
           1512     2.74554e+10 
           1517     2.71535e+10 
           1525     2.65729e+10 
           1535     2.48496e+10 
           1545     2.30375e+10 
           1555     2.28263e+10 
           1565     2.34631e+10 
           1575     2.38616e+10 
           1585     2.36844e+10 
           1595     2.33839e+10 
           1605     2.21999e+10 
           1615     2.16427e+10 
           1625     2.15099e+10 
           1635     2.14336e+10 
           1645     2.07492e+10 
           1655     2.12543e+10 
           1665      2.0747e+10 
           1672     2.00252e+10 
           1677     2.11598e+10 
           1685     2.06435e+10 
           1695      2.0259e+10 
           1705     1.98394e+10 
           1715     1.93013e+10 
           1725     1.88832e+10 
           1735      1.9183e+10 
           1745     1.88549e+10 
           1755      1.8462e+10 
           1765      1.8274e+10 
           1775     1.80328e+10 
           1785      1.7836e+10 
           1795     1.74765e+10 
           1805     1.73354e+10 
           1815     1.70111e+10 
           1825     1.67291e+10 
           1835     1.66423e+10 
           1845     1.61857e+10 
           1855     1.59285e+10 
           1865     1.57365e+10 
           1875     1.54855e+10 
           1885     1.51583e+10 
           1895     1.49579e+10 
           1905     1.49383e+10 
           1915     1.46008e+10 
           1925     1.41476e+10 
           1935     1.42543e+10 
           1945     1.41519e+10 
           1955     1.36418e+10 
           1967     1.36531e+10 
           1976     1.35666e+10 
           1984     1.33225e+10 
           1995     1.29971e+10 
           2005     1.30111e+10 
           2015     1.28573e+10 
           2025     1.26782e+10 
           2035     1.24584e+10 
           2045     1.22675e+10 
           2055     1.03669e+10 
           2065     1.01077e+10 
           2074     1.04187e+10 
           2078     1.05252e+10 
           2085     1.11869e+10 
           2095     1.13465e+10 
           2105     1.12372e+10 
           2115     1.12045e+10 
           2125     1.09975e+10 
           2135      1.0903e+10 
           2145       1.075e+10 
           2155     1.06894e+10 
           2165     1.03762e+10 
           2175     1.04037e+10 
           2185     1.01587e+10 
           2195      1.0143e+10 
           2205     1.00009e+10 
           2215      9.75029e+9 
           2225      9.72448e+9 
           2235      9.59391e+9 
           2245      9.46304e+9 
           2255      9.23779e+9 
           2265      9.21147e+9 
           2275      9.09282e+9 
           2285      8.93404e+9 
           2295       8.5681e+9 
           2305      8.62794e+9 
           2315      8.59433e+9 
           2325      8.49477e+9 
           2335      8.38278e+9 
           2345      8.27376e+9 
           2355      8.16289e+9 
           2365      8.05494e+9 
           2375      7.94317e+9 
           2385      7.71775e+9 
           2395      7.69678e+9 
           2405      7.63877e+9 
           2415      7.53042e+9 
           2425      7.44538e+9 
           2435      7.34051e+9 
           2445      7.25097e+9 
           2455      7.14889e+9 
           2465      7.06869e+9 
           2475      6.97847e+9 
           2485      6.86324e+9 
           2495      5.87411e+9 
           2505      6.65563e+9 
           2513      6.44151e+9 
           2518      6.50984e+9 
           2525      6.54706e+9 
           2535      6.47323e+9 
           2545      6.37477e+9 
           2555      6.30246e+9 
           2565      6.23051e+9 
           2575      6.15664e+9 
           2585      6.08148e+9 
           2595      5.99274e+9 
           2605      5.94071e+9 
           2615      5.86121e+9 
           2625      5.79422e+9 
           2635      5.72319e+9 
           2645      5.65146e+9 
           2655      5.58331e+9 
           2665      5.50807e+9 
           2675      5.42801e+9 
           2685      5.38504e+9 
           2695      5.30781e+9 
           2705      5.25937e+9 
           2715      5.19412e+9 
           2725      5.11852e+9 
           2735      5.01277e+9 
           2745      5.01671e+9 
           2755      4.95559e+9 
           2765      4.88088e+9 
           2775      4.84268e+9 
           2785      4.78126e+9 
           2795      4.68991e+9 
           2805      4.66472e+9 
           2815      4.61989e+9 
           2825      4.55118e+9 
           2835        4.506e+9 
           2845      4.46479e+9 
           2855      4.41078e+9 
           2865       4.3588e+9 
           2875      4.30934e+9 
           2885      4.26205e+9 
           2895      4.21337e+9 
           2910      4.13748e+9 
           2930      4.05016e+9 
           2950      3.94738e+9 
           2970      3.86834e+9 
           2990      3.77707e+9 
           3010      3.69424e+9 
           3030      3.60644e+9 
           3050       3.5352e+9 
           3070      3.46567e+9 
           3090      3.37956e+9 
           3110      3.31645e+9 
           3130      3.24478e+9 
           3150      3.17512e+9 
           3170       3.1098e+9 
           3190       3.0375e+9 
           3210      2.96485e+9 
           3230      2.92171e+9 
           3250      2.86368e+9 
           3270      2.79627e+9 
           3290      2.74452e+9 
           3310      2.68959e+9 
           3330      2.63322e+9 
           3350      2.57616e+9 
           3370      2.52909e+9 
           3390      2.48209e+9 
           3410      2.43249e+9 
           3430      2.38208e+9 
           3450      2.32922e+9 
           3470      2.28855e+9 
           3490      2.24489e+9 
           3510        2.204e+9 
           3530      2.16193e+9 
           3550      2.11967e+9 
           3570       2.0836e+9 
           3590      2.03791e+9 
           3610      2.00123e+9 
           3630      1.96085e+9 
           3640       1.9371e+9 
           3650      1.85241e+9 
           3670       1.8221e+9 
           3690       1.7876e+9 
           3710      1.75091e+9 
           3730      1.71781e+9 
           3750      1.74982e+9 
           3770      1.73019e+9 
           3790      1.73535e+9 
           3810      1.75263e+9 
           3830      1.63899e+9 
           3850      1.71769e+9 
           3870      1.68633e+9 
           3890      1.55996e+9 
           3910      1.64192e+9 
           3930      1.60203e+9 
           3950      1.57955e+9 
           3970      1.44435e+9 
           3990      1.52944e+9 
           4010      1.49906e+9 
           4030      1.45592e+9 
           4050      1.45379e+9 
           4070      1.41998e+9 
           4090      1.37732e+9 
           4110      1.29185e+9 
           4130      1.34883e+9 
           4150      1.32737e+9 
           4170      1.31079e+9 
           4190      1.28722e+9 
           4210       1.2623e+9 
           4230      1.24743e+9 
           4250       1.2246e+9 
           4270      1.20319e+9 
           4290       1.1842e+9 
           4310      1.16314e+9 
           4330      1.12555e+9 
           4350      1.06336e+9 
           4370      1.10903e+9 
           4390       1.0843e+9 
           4410       1.0719e+9 
           4430      1.05704e+9 
           4450      1.04075e+9 
           4470      1.01107e+9 
           4490      1.00795e+9 
           4510      9.91975e+8 
           4530      9.77122e+8 
           4550      9.56613e+8 
           4570      9.46798e+8 
           4590       9.3084e+8 
           4610      9.16984e+8 
           4630      9.01329e+8 
           4650      8.75629e+8 
           4670      8.74122e+8 
           4690      8.49367e+8 
           4710      8.42662e+8 
           4730      8.37588e+8 
           4750      8.24772e+8 
           4770      8.12705e+8 
           4790      8.00563e+8 
           4810      7.88416e+8 
           4830      7.76232e+8 
           4850      7.55589e+8 
           4870      7.07254e+8 
           4890      7.42538e+8 
           4910      7.31688e+8 
           4930      7.14805e+8 
           4950       7.0984e+8 
           4970      7.00645e+8 
           4990      6.90532e+8 
           5010      6.76219e+8 
           5030       6.7051e+8 
           5050      6.59581e+8 
           5070      6.51808e+8 
           5090      6.42508e+8 
           5110      6.33435e+8 
           5130      6.24497e+8 
           5150      6.15693e+8 
           5170      6.06964e+8 
           5190      5.98603e+8 
           5210       5.9031e+8 
           5230      5.82154e+8 
           5250      5.73955e+8 
           5270      5.65958e+8 
           5290      5.58415e+8 
           5310      5.50769e+8 
           5330      5.43275e+8 
           5350      5.35891e+8 
           5370      5.28641e+8 
           5390      5.21431e+8 
           5410      5.11572e+8 
           5430       5.0758e+8 
           5450      5.00792e+8 
           5470       4.9409e+8 
           5490      4.87547e+8 
           5510      4.81023e+8 
           5530      4.74754e+8 
           5550      4.68513e+8 
           5570      4.62337e+8 
           5590        4.559e+8 
           5610      4.50369e+8 
           5630      4.44525e+8 
           5650      4.38763e+8 
           5670      4.33049e+8 
           5690      4.25134e+8 
           5710      4.13877e+8 
           5730      4.08709e+8 
           5750      4.03467e+8 
           5770      3.98604e+8 
           5790      3.93753e+8 
           5810      3.89161e+8 
           5830      3.84855e+8 
           5850      3.80841e+8 
           5870      3.71231e+8 
           5890        3.727e+8 
           5910      3.68952e+8 
           5930      3.65235e+8 
           5950      3.61709e+8 
           5970      3.58286e+8 
           5990      3.53839e+8 
           6010      3.49548e+8 
           6030      3.45265e+8 
           6050      3.41071e+8 
           6070      3.36926e+8 
           6090      3.32867e+8 
           6110      3.28785e+8 
           6130      3.24858e+8 
           6150      3.20956e+8 
           6170      3.16899e+8 
           6190       3.1335e+8 
           6210      3.09626e+8 
           6230        3.057e+8 
           6250      3.02319e+8 
           6270      2.98755e+8 
           6290      2.95249e+8 
           6310      2.91459e+8 
           6330       2.8837e+8 
           6350      2.84987e+8 
           6370      2.81687e+8 
           6390      2.78422e+8 
           6410      2.74845e+8 
           6430      2.72026e+8 
           6450      2.68893e+8 
           6470      2.65775e+8 
           6490      2.62744e+8 
           6510      2.59754e+8 
           6530      2.56231e+8 
           6550      2.52016e+8 
           6570      2.34417e+8 
           6590      2.47934e+8 
           6610      2.45393e+8 
           6630      2.42663e+8 
           6650      2.39962e+8 
           6670      2.35925e+8 
           6690      2.32926e+8 
           6710      2.31899e+8 
           6730        2.294e+8 
           6750      2.26935e+8 
           6770       2.2447e+8 
           6790      2.21989e+8 
           6810      2.19582e+8 
           6830      2.17176e+8 
           6850      2.14817e+8 
           6870      2.12475e+8 
           6890      2.09648e+8 
           6910      2.07837e+8 
           6930      2.05682e+8 
           6950       2.0347e+8 
           6970      2.01288e+8 
           6990      1.99136e+8 
           7010      1.96989e+8 
           7030      1.94864e+8 
           7050      1.92812e+8 
           7070      1.88949e+8 
           7090      1.88807e+8 
           7110      1.86807e+8 
           7130      1.84849e+8 
           7150      1.82924e+8 
           7170      1.80674e+8 
           7190      1.79029e+8 
           7210      1.77269e+8 
           7230       1.7531e+8 
           7250      1.73577e+8 
           7270      1.71832e+8 
           7290      1.69246e+8 
           7310      1.68307e+8 
           7330      1.66597e+8 
           7350      1.64897e+8 
           7370      1.63219e+8 
           7390      1.61565e+8 
           7410      1.59925e+8 
           7430      1.58315e+8 
           7450      1.56719e+8 
           7470      1.55111e+8 
           7490      1.53546e+8 
           7510      1.52034e+8 
           7530      1.50543e+8 
           7550      1.49046e+8 
           7570      1.47563e+8 
           7590      1.45733e+8 
           7610       1.4463e+8 
           7630      1.43226e+8 
           7650      1.41815e+8 
           7670      1.40436e+8 
           7690      1.39018e+8 
           7710      1.37696e+8 
           7730      1.36297e+8 
           7750      1.35036e+8 
           7770       1.3373e+8 
           7790      1.32436e+8 
           7810      1.31123e+8 
           7830      1.29894e+8 
           7850      1.28695e+8 
           7870      1.27434e+8 
           7890      1.26196e+8 
           7910      1.25046e+8 
           7930      1.23859e+8 
           7950      1.22683e+8 
           7970      1.21469e+8 
           7990      1.20366e+8 
           8010      1.19219e+8 
           8030      1.18071e+8 
           8050      1.16968e+8 
           8070      1.15891e+8 
           8090       1.1472e+8 
           8110      1.13594e+8 
           8130      1.12699e+8 
           8150      1.11534e+8 
           8170      1.10611e+8 
           8190      1.09425e+8 
           8210      1.07468e+8 
           8230      1.06395e+8 
           8250      1.05659e+8 
           8270       1.0446e+8 
           8290       1.0372e+8 
           8310      1.02802e+8 
           8330      1.01836e+8 
           8350      1.00717e+8 
           8370      9.99512e+7 
           8390      9.91273e+7 
           8410       9.8241e+7 
           8430      9.73354e+7 
           8450      9.62473e+7 
           8470      9.55097e+7 
           8490      9.48617e+7 
           8510      9.36048e+7 
           8530      9.33683e+7 
           8550       9.1453e+7 
           8570      9.23295e+7 
