# Kurucz ODFNEW /NOVER (2003)
# teff = 25000 K (value for the effective temperature for the model. Temperatures are given in K)
# logg = 4 log(cm/s2) (value for Log(G) for the model.)
# meta = -2  (value for the Metallicity for the model.)
# lh = 1.25  (l/Hp where l is the  mixing length of the convective element and Hp is the pressure scale height)
# vtur = 2 km/s (Microturbulence velocity)
# alpha = 0  (Alpha)
#
# column 1: WAVELENGTH (ANGSTROM), Wavelength in Angstrom
# column 2: FLUX (ERG/CM2/S/A), Flux in erg/cm2/s/A
          147.2     7.39381e-14 
            151     3.58604e-13 
          155.2     1.87293e-12 
          158.8     7.18966e-12 
            162     2.25788e-11 
            166       8.864e-11 
          170.3     3.57997e-10 
          173.4     9.37214e-10 
          176.8      2.58206e-9 
          180.2      6.83883e-9 
          181.7      1.03844e-8 
          186.1      3.39863e-8 
            191       1.1916e-7 
          193.9      2.42467e-7 
          198.4      6.98196e-7 
          201.8      1.50347e-6 
            205      3.02146e-6 
          210.5      9.51298e-6 
          216.2      2.93211e-5 
          219.8       5.7743e-5 
            223      0.00010343 
          226.8     0.000201994 
            230       0.0018699 
            234      0.00427326 
            240         0.01033 
          246.5       0.0255889 
          252.4       0.0564576 
          256.8       0.0938992 
            260        0.145576 
            264        0.234029 
          268.5        0.392118 
          273.5        0.681064 
          278.5         1.16056 
            284         2.03848 
            290         3.66857 
            296         6.43032 
            301         10.0431 
            308         17.7297 
            318         41.7694 
            328          89.322 
            338         182.653 
            348         356.901 
            357          630.38 
            366         1082.55 
            375          1797.4 
            385         3077.38 
            395         5101.69 
            405         8234.65 
            414         12411.7 
            422         17543.3 
            430         24421.2 
            441         37866.5 
            451         55199.7 
            460         76154.2 
            470          107338 
            480          148674 
            490          203035 
            500          273280 
            506      1.71314e+6 
            512      5.16712e+6 
            520      6.11308e+6 
            530      7.88812e+6 
            540      8.41298e+6 
            550      1.11643e+7 
            560      1.28071e+7 
            570      1.50587e+7 
            580      1.51106e+7 
            590      1.90237e+7 
            600      2.22553e+7 
            610        2.547e+7 
            620      2.84615e+7 
            630      3.21535e+7 
            640       3.5128e+7 
            650      3.94723e+7 
            658      4.34249e+7 
            665      4.65407e+7 
            675      5.02405e+7 
            685      5.47449e+7 
            695      6.20448e+7 
            705      6.69574e+7 
            716      7.39194e+7 
            726      7.99309e+7 
            735      8.64304e+7 
            745      9.40288e+7 
            755      1.01514e+8 
            765      1.08958e+8 
            775      1.17505e+8 
            785      1.26128e+8 
            795      1.34211e+8 
            805      1.43256e+8 
            815      1.51894e+8 
            825      1.62138e+8 
            835      1.68544e+8 
            845      1.80871e+8 
            855      1.90471e+8 
            865      2.01948e+8 
            875      2.13793e+8 
            885      2.25295e+8 
            895      2.36495e+8 
            905      2.45469e+8 
            915      3.80264e+8 
            925      3.02528e+9 
            935      8.44751e+9 
            945     2.12051e+10 
            955     2.68454e+10 
            965       3.412e+10 
            975     1.45108e+10 
            985       3.564e+10 
            995     3.38481e+10 
           1005     3.51763e+10 
           1015     3.25317e+10 
           1025     1.34183e+10 
           1035     2.94772e+10 
           1045     3.43192e+10 
           1055     3.33082e+10 
           1065     3.06452e+10 
           1075     3.15176e+10 
           1085     2.91677e+10 
           1095     3.07111e+10 
           1105     2.94516e+10 
           1115     2.89823e+10 
           1125     2.71823e+10 
           1135     2.78927e+10 
           1145     2.65053e+10 
           1155     2.67868e+10 
           1165     2.63292e+10 
           1175     2.27867e+10 
           1185     2.49562e+10 
           1195     2.36206e+10 
           1205     2.09626e+10 
           1215      9.06565e+9 
           1225     2.07931e+10 
           1235     2.24016e+10 
           1245     2.19406e+10 
           1255     2.16909e+10 
           1265     2.11532e+10 
           1275     2.10199e+10 
           1285      2.0579e+10 
           1295     1.90802e+10 
           1305     1.91386e+10 
           1315     1.93283e+10 
           1325      1.8668e+10 
           1335     1.79666e+10 
           1345     1.80513e+10 
           1355     1.78618e+10 
           1365     1.73568e+10 
           1375     1.70333e+10 
           1385      1.6733e+10 
           1395     1.58126e+10 
           1405     1.57064e+10 
           1415     1.56831e+10 
           1425     1.53829e+10 
           1435     1.51727e+10 
           1442     1.50446e+10 
           1447     1.48741e+10 
           1455     1.46305e+10 
           1465     1.43095e+10 
           1475     1.40503e+10 
           1485     1.37835e+10 
           1495     1.35173e+10 
           1505     1.31235e+10 
           1512       1.291e+10 
           1517     1.28483e+10 
           1525      1.2643e+10 
           1535     1.21063e+10 
           1545     1.19615e+10 
           1555     1.16325e+10 
           1565     1.16789e+10 
           1575     1.15681e+10 
           1585     1.13802e+10 
           1595     1.12011e+10 
           1605     1.08307e+10 
           1615     1.06317e+10 
           1625     1.05573e+10 
           1635     1.04277e+10 
           1645     1.00761e+10 
           1655     1.00928e+10 
           1665      9.95126e+9 
           1672      9.77567e+9 
           1677      9.81364e+9 
           1685        9.655e+9 
           1695      9.44687e+9 
           1705       9.2493e+9 
           1715       9.0289e+9 
           1725      8.90718e+9 
           1735      8.80818e+9 
           1745      8.64664e+9 
           1755      8.55108e+9 
           1765      8.28237e+9 
           1775      8.19732e+9 
           1785      8.12027e+9 
           1795      8.01555e+9 
           1805      7.91796e+9 
           1815      7.73157e+9 
           1825       7.6309e+9 
           1835      7.50858e+9 
           1845      7.23129e+9 
           1855      7.05468e+9 
           1865      7.03002e+9 
           1875      7.01814e+9 
           1885      6.72398e+9 
           1895      6.51766e+9 
           1905      6.60751e+9 
           1915      6.39147e+9 
           1925      6.27014e+9 
           1935      6.28197e+9 
           1945      6.26185e+9 
           1955       5.9886e+9 
           1967      6.04165e+9 
           1976      6.04299e+9 
           1984       5.8686e+9 
           1995       5.6935e+9 
           2005      5.73187e+9 
           2015      5.69804e+9 
           2025      5.64879e+9 
           2035      5.50381e+9 
           2045      5.42417e+9 
           2055      5.25322e+9 
           2065      5.18338e+9 
           2074      5.22896e+9 
           2078      5.10564e+9 
           2085      5.10495e+9 
           2095        4.999e+9 
           2105      5.00161e+9 
           2115      4.95594e+9 
           2125      4.91207e+9 
           2135      4.83542e+9 
           2145      4.74737e+9 
           2155      4.70244e+9 
           2165      4.64262e+9 
           2175      4.57391e+9 
           2185      4.51549e+9 
           2195      4.46099e+9 
           2205      4.39931e+9 
           2215      4.34002e+9 
           2225      4.27857e+9 
           2235      4.21835e+9 
           2245      4.16964e+9 
           2255      4.10844e+9 
           2265      4.06013e+9 
           2275      4.00668e+9 
           2285      3.95617e+9 
           2295      3.86055e+9 
           2305      3.85052e+9 
           2315        3.798e+9 
           2325      3.74985e+9 
           2335      3.69673e+9 
           2345      3.65342e+9 
           2355      3.60941e+9 
           2365      3.56265e+9 
           2375      3.51615e+9 
           2385      3.46984e+9 
           2395       3.4268e+9 
           2405      3.38449e+9 
           2415      3.34011e+9 
           2425      3.30212e+9 
           2435      3.25872e+9 
           2445      3.21926e+9 
           2455      3.18109e+9 
           2465      3.14101e+9 
           2475      3.10221e+9 
           2485      3.06375e+9 
           2495      2.97757e+9 
           2505      2.98825e+9 
           2513      2.94229e+9 
           2518      2.94113e+9 
           2525      2.91699e+9 
           2535      2.88165e+9 
           2545      2.83881e+9 
           2555      2.81196e+9 
           2565      2.77937e+9 
           2575      2.74782e+9 
           2585      2.71527e+9 
           2595      2.68319e+9 
           2605      2.67046e+9 
           2615       2.6395e+9 
           2625      2.60778e+9 
           2635      2.57256e+9 
           2645      2.54286e+9 
           2655      2.51001e+9 
           2665      2.47598e+9 
           2675      2.44592e+9 
           2685      2.43354e+9 
           2695      2.38605e+9 
           2705      2.37714e+9 
           2715      2.35036e+9 
           2725      2.30503e+9 
           2735      2.29677e+9 
           2745      2.26912e+9 
           2755      2.24468e+9 
           2765      2.20147e+9 
           2775       2.1962e+9 
           2785      2.17123e+9 
           2795      2.13277e+9 
           2805      2.11898e+9 
           2815      2.10015e+9 
           2825      2.05504e+9 
           2835      2.03823e+9 
           2845      2.03156e+9 
           2855      2.00912e+9 
           2865      1.98751e+9 
           2875      1.96591e+9 
           2885      1.94479e+9 
           2895      1.92365e+9 
           2910      1.89252e+9 
           2930      1.85212e+9 
           2950       1.7999e+9 
           2970      1.77497e+9 
           2990      1.73753e+9 
           3010      1.70109e+9 
           3030       1.6666e+9 
           3050      1.63242e+9 
           3070      1.59907e+9 
           3090      1.56534e+9 
           3110      1.53479e+9 
           3130      1.50547e+9 
           3150      1.47533e+9 
           3170      1.44545e+9 
           3190       1.4048e+9 
           3210      1.38855e+9 
           3230      1.36116e+9 
           3250       1.3344e+9 
           3270      1.31016e+9 
           3290      1.28294e+9 
           3310       1.2604e+9 
           3330      1.23633e+9 
           3350       1.2105e+9 
           3370      1.19001e+9 
           3390      1.16771e+9 
           3410      1.14592e+9 
           3430      1.11886e+9 
           3450      1.09396e+9 
           3470      1.07729e+9 
           3490      1.05756e+9 
           3510      1.04202e+9 
           3530      1.02529e+9 
           3550      1.00725e+9 
           3570       9.9455e+8 
           3590      9.70638e+8 
           3610      9.55519e+8 
           3630      9.36642e+8 
           3640      9.34829e+8 
           3650      9.17102e+8 
           3670      9.05064e+8 
           3690       8.8471e+8 
           3710       8.5508e+8 
           3730      8.23244e+8 
           3750      8.68815e+8 
           3770       8.7033e+8 
           3790      9.13597e+8 
           3810      9.51601e+8 
           3830      8.31743e+8 
           3850      9.74019e+8 
           3870      9.77611e+8 
           3890      7.88507e+8 
           3910      9.59757e+8 
           3930      9.44696e+8 
           3950      9.28272e+8 
           3970      7.32047e+8 
           3990      8.91154e+8 
           4010      8.83224e+8 
           4030      8.34372e+8 
           4050      8.62625e+8 
           4070      8.43865e+8 
           4090      7.82168e+8 
           4110      6.84229e+8 
           4130      7.92137e+8 
           4150      7.84214e+8 
           4170       7.7697e+8 
           4190      7.66094e+8 
           4210      7.53561e+8 
           4230      7.40978e+8 
           4250      7.28535e+8 
           4270      7.15073e+8 
           4290      7.04266e+8 
           4310      6.89369e+8 
           4330      6.28602e+8 
           4350      5.73441e+8 
           4370      6.55063e+8 
           4390       6.3173e+8 
           4410      6.38779e+8 
           4430      6.26171e+8 
           4450      6.18995e+8 
           4470      5.83697e+8 
           4490      5.99139e+8 
           4510      5.90336e+8 
           4530      5.81078e+8 
           4550      5.71904e+8 
           4570      5.62977e+8 
           4590      5.54363e+8 
           4610      5.45858e+8 
           4630      5.37479e+8 
           4650       5.2858e+8 
           4670      5.21177e+8 
           4690      5.13077e+8 
           4710      4.99202e+8 
           4730      4.97885e+8 
           4750      4.90245e+8 
           4770      4.83377e+8 
           4790      4.76164e+8 
           4810      4.68679e+8 
           4830       4.5946e+8 
           4850      4.26226e+8 
           4870      3.81131e+8 
           4890      4.38266e+8 
           4910      4.34437e+8 
           4930      4.19201e+8 
           4950      4.23232e+8 
           4970      4.17224e+8 
           4990      4.11239e+8 
           5010      4.00337e+8 
           5030      3.99602e+8 
           5050      3.91539e+8 
           5070      3.88412e+8 
           5090      3.82952e+8 
           5110      3.77579e+8 
           5130      3.72279e+8 
           5150      3.67078e+8 
           5170       3.6203e+8 
           5190      3.57036e+8 
           5210      3.52093e+8 
           5230      3.47298e+8 
           5250      3.42538e+8 
           5270      3.37868e+8 
           5290      3.33285e+8 
           5310      3.28775e+8 
           5330       3.2435e+8 
           5350      3.19968e+8 
           5370      3.15708e+8 
           5390      3.11489e+8 
           5410       3.0735e+8 
           5430      3.03263e+8 
           5450      2.99265e+8 
           5470      2.95331e+8 
           5490      2.91458e+8 
           5510      2.87646e+8 
           5530      2.83894e+8 
           5550        2.802e+8 
           5570      2.76577e+8 
           5590       2.7301e+8 
           5610      2.69487e+8 
           5630      2.66042e+8 
           5650      2.62628e+8 
           5670      2.59255e+8 
           5690      2.55923e+8 
           5710      2.52758e+8 
           5730      2.49563e+8 
           5750      2.46405e+8 
           5770      2.43342e+8 
           5790      2.40304e+8 
           5810      2.37313e+8 
           5830      2.34369e+8 
           5850       2.3147e+8 
           5870      2.21794e+8 
           5890      2.25524e+8 
           5910       2.2303e+8 
           5930      2.20296e+8 
           5950      2.17604e+8 
           5970      2.14976e+8 
           5990      2.12366e+8 
           6010      2.09808e+8 
           6030      2.07279e+8 
           6050      2.04799e+8 
           6070      2.02348e+8 
           6090      1.99934e+8 
           6110      1.97557e+8 
           6130      1.95218e+8 
           6150      1.92904e+8 
           6170      1.90636e+8 
           6190      1.88404e+8 
           6210      1.86196e+8 
           6230      1.84022e+8 
           6250      1.81881e+8 
           6270      1.79765e+8 
           6290       1.7769e+8 
           6310      1.75638e+8 
           6330      1.73618e+8 
           6350      1.71611e+8 
           6370      1.69653e+8 
           6390      1.67725e+8 
           6410      1.65818e+8 
           6430      1.63941e+8 
           6450      1.62084e+8 
           6470      1.60246e+8 
           6490      1.58446e+8 
           6510      1.56665e+8 
           6530      1.54293e+8 
           6550      1.47899e+8 
           6570       1.3164e+8 
           6590      1.48391e+8 
           6610      1.47943e+8 
           6630      1.46529e+8 
           6650      1.45018e+8 
           6670      1.41982e+8 
           6690      1.40461e+8 
           6710      1.40311e+8 
           6730      1.38788e+8 
           6750       1.3728e+8 
           6770      1.35796e+8 
           6790      1.34319e+8 
           6810       1.3289e+8 
           6830      1.31467e+8 
           6850      1.30058e+8 
           6870      1.28671e+8 
           6890      1.27306e+8 
           6910      1.25955e+8 
           6930      1.24617e+8 
           6950      1.23308e+8 
           6970      1.22012e+8 
           6990      1.20721e+8 
           7010      1.19466e+8 
           7030      1.18216e+8 
           7050      1.16985e+8 
           7070      1.13859e+8 
           7090      1.14574e+8 
           7110      1.13394e+8 
           7130      1.12225e+8 
           7150      1.11068e+8 
           7170      1.09907e+8 
           7190      1.08808e+8 
           7210      1.07698e+8 
           7230      1.06476e+8 
           7250      1.05516e+8 
           7270      1.04452e+8 
           7290      1.02526e+8 
           7310      1.02339e+8 
           7330      1.01333e+8 
           7350      1.00315e+8 
           7370      9.93133e+7 
           7390      9.83211e+7 
           7410      9.73451e+7 
           7430      9.63782e+7 
           7450      9.54406e+7 
           7470      9.44981e+7 
           7490      9.35711e+7 
           7510      9.26125e+7 
           7530      9.17425e+7 
           7550      9.08473e+7 
           7570      8.99603e+7 
           7590      8.90879e+7 
           7610      8.82234e+7 
           7630      8.73668e+7 
           7650      8.65243e+7 
           7670      8.56959e+7 
           7690      8.48685e+7 
           7710      8.40548e+7 
           7730      8.32547e+7 
           7750      8.24555e+7 
           7770      8.16697e+7 
           7790      8.09032e+7 
           7810      8.00756e+7 
           7830      7.93782e+7 
           7850      7.87175e+7 
           7870      7.79773e+7 
           7890      7.71891e+7 
           7910      7.65283e+7 
           7930      7.58013e+7 
           7950      7.49435e+7 
           7970      7.41883e+7 
           7990      7.35223e+7 
           8010      7.28209e+7 
           8030       7.2149e+7 
           8050      7.15003e+7 
           8070      7.09207e+7 
           8090        7.011e+7 
           8110       6.9587e+7 
           8130      6.90171e+7 
           8150      6.82818e+7 
           8170      6.78068e+7 
           8190      6.70829e+7 
           8210      6.62646e+7 
           8230      6.58762e+7 
           8250      6.53081e+7 
           8270      6.43646e+7 
           8290      6.40709e+7 
           8310      6.35283e+7 
           8330      6.29358e+7 
           8350      6.20457e+7 
           8370      6.17012e+7 
           8390      6.12522e+7 
           8410      6.06949e+7 
           8430      6.00838e+7 
           8450      5.91508e+7 
           8470      5.89243e+7 
           8490      5.83961e+7 
           8510      5.76902e+7 
           8530      5.74562e+7 
           8550      5.60128e+7 
           8570       5.7193e+7 
           8590      5.46958e+7 
