# Kurucz ODFNEW /NOVER (2003)
# teff = 29000 K (value for the effective temperature for the model. Temperatures are given in K)
# logg = 3.5 log(cm/s2) (value for Log(G) for the model.)
# meta = 0  (value for the Metallicity for the model.)
# lh = 1.25  (l/Hp where l is the  mixing length of the convective element and Hp is the pressure scale height)
# vtur = 2 km/s (Microturbulence velocity)
# alpha = 0  (Alpha)
#
# column 1: WAVELENGTH (ANGSTROM), Wavelength in Angstrom
# column 2: FLUX (ERG/CM2/S/A), Flux in erg/cm2/s/A
          147.2      1.57634e-9 
            151      5.14709e-9 
          155.2      1.78331e-8 
          158.8      4.92188e-8 
            162       1.1716e-7 
            166      3.31176e-7 
          170.3      9.58409e-7 
          173.4      2.00308e-6 
          176.8      4.36662e-6 
          180.2      9.24652e-6 
          181.7      1.27802e-5 
          186.1      3.20065e-5 
            191      8.49033e-5 
          193.9     0.000147877 
          198.4     0.000339475 
          201.8     0.000620907 
            205      0.00107681 
          210.5      0.00267484 
          216.2      0.00653939 
          219.8       0.0112679 
            223        0.017996 
          226.8       0.0311164 
            230         13.1385 
            234         28.8822 
            240         52.1777 
          246.5         100.553 
          252.4         180.276 
          256.8         257.013 
            260         465.857 
            264         756.205 
          268.5         1170.34 
          273.5         1729.88 
          278.5         2403.26 
            284         5615.72 
            290         8654.92 
            296         12424.2 
            301         17516.1 
            308         45864.1 
            318          105668 
            328          167908 
            338          312489 
            348          515241 
            357      1.40897e+6 
            366      2.89727e+6 
            375      3.70528e+6 
            385      5.68582e+6 
            395      1.03434e+7 
            405      1.34056e+7 
            414       1.8363e+7 
            422      2.15988e+7 
            430      2.67439e+7 
            441      3.48775e+7 
            451      4.09307e+7 
            460      4.63203e+7 
            470       5.8237e+7 
            480      7.11502e+7 
            490      8.32147e+7 
            500      1.02168e+8 
            506      2.65542e+8 
            512      2.03207e+9 
            520      1.95623e+9 
            530       1.7781e+9 
            540      1.68753e+9 
            550      2.13036e+9 
            560      2.74426e+9 
            570       2.9489e+9 
            580      2.66118e+9 
            590      2.93645e+9 
            600      2.37245e+9 
            610      3.04623e+9 
            620      3.62244e+9 
            630      3.52525e+9 
            640      3.34605e+9 
            650       2.8734e+9 
            658      2.80482e+9 
            665      3.49712e+9 
            675      3.94387e+9 
            685      3.14551e+9 
            695      4.38114e+9 
            705      3.47809e+9 
            716      4.78143e+9 
            726      4.64804e+9 
            735      4.69523e+9 
            745      4.62698e+9 
            755      4.68076e+9 
            765      4.85041e+9 
            775      5.11499e+9 
            785      5.35861e+9 
            795      5.39447e+9 
            805      5.19088e+9 
            815      5.15184e+9 
            825      5.55664e+9 
            835      4.39994e+9 
            845      5.34314e+9 
            855      5.32299e+9 
            865      5.53646e+9 
            875       5.6542e+9 
            885      5.85807e+9 
            895      5.95458e+9 
            905      5.79842e+9 
            915      8.16028e+9 
            925     3.04052e+10 
            935     4.48037e+10 
            945     5.17915e+10 
            955     5.33892e+10 
            965     5.62652e+10 
            975     2.05313e+10 
            985     4.29683e+10 
            995     4.23981e+10 
           1005     4.58703e+10 
           1015      4.8039e+10 
           1025     4.18781e+10 
           1035     4.53035e+10 
           1045     5.35965e+10 
           1055     5.06458e+10 
           1065     4.39132e+10 
           1075     4.62034e+10 
           1085     4.31156e+10 
           1095     4.56245e+10 
           1105     4.37657e+10 
           1115     4.28994e+10 
           1125     3.45378e+10 
           1135     4.15997e+10 
           1145     3.98216e+10 
           1155     3.87425e+10 
           1165     3.77305e+10 
           1175     2.33805e+10 
           1185     3.43482e+10 
           1195     3.38048e+10 
           1205     3.15025e+10 
           1215      2.7689e+10 
           1225     3.19459e+10 
           1235     3.39994e+10 
           1245     3.23496e+10 
           1255     3.25178e+10 
           1265       3.331e+10 
           1275     3.41105e+10 
           1285     3.39854e+10 
           1295     3.09331e+10 
           1305     3.12484e+10 
           1315      3.3215e+10 
           1325     3.19194e+10 
           1335     3.08765e+10 
           1345     3.10272e+10 
           1355     3.03616e+10 
           1365     2.93361e+10 
           1375     2.84765e+10 
           1385      2.7511e+10 
           1395     2.03172e+10 
           1405      2.1634e+10 
           1415     2.59353e+10 
           1425     2.37211e+10 
           1435     2.50638e+10 
           1442     2.50221e+10 
           1447     2.48243e+10 
           1455     2.37371e+10 
           1465     2.29367e+10 
           1475     2.32466e+10 
           1485     2.31225e+10 
           1495     2.24451e+10 
           1505     2.16106e+10 
           1512     2.07386e+10 
           1517     2.10801e+10 
           1525     2.04805e+10 
           1535      1.7813e+10 
           1545     1.56198e+10 
           1555     1.55123e+10 
           1565     1.73981e+10 
           1575     1.83959e+10 
           1585     1.84734e+10 
           1595     1.82528e+10 
           1605     1.73665e+10 
           1615     1.66524e+10 
           1625     1.69617e+10 
           1635     1.73241e+10 
           1645     1.72729e+10 
           1655     1.72216e+10 
           1665     1.70479e+10 
           1672     1.58274e+10 
           1677     1.82717e+10 
           1685     1.73197e+10 
           1695     1.66203e+10 
           1705     1.64557e+10 
           1715     1.56316e+10 
           1725     1.52002e+10 
           1735     1.56838e+10 
           1745     1.54575e+10 
           1755     1.53076e+10 
           1765     1.51697e+10 
           1775     1.45759e+10 
           1785     1.47678e+10 
           1795     1.45417e+10 
           1805     1.45765e+10 
           1815     1.39303e+10 
           1825     1.39115e+10 
           1835     1.38207e+10 
           1845     1.28866e+10 
           1855     1.31466e+10 
           1865     1.31966e+10 
           1875     1.30433e+10 
           1885     1.21844e+10 
           1895     1.17235e+10 
           1905     1.22029e+10 
           1915     1.18189e+10 
           1925     1.11302e+10 
           1935     1.17952e+10 
           1945      1.1981e+10 
           1955     1.08445e+10 
           1967     1.14263e+10 
           1976     1.17865e+10 
           1984     1.12035e+10 
           1995     1.09355e+10 
           2005     1.11416e+10 
           2015     1.11342e+10 
           2025     1.12028e+10 
           2035     1.05826e+10 
           2045     1.05145e+10 
           2055       9.1064e+9 
           2065      8.92035e+9 
           2074      9.44478e+9 
           2078       9.1729e+9 
           2085      9.76222e+9 
           2095      9.62633e+9 
           2105      9.79355e+9 
           2115      9.86286e+9 
           2125      9.79027e+9 
           2135      9.67398e+9 
           2145      9.40304e+9 
           2155      9.49606e+9 
           2165      9.24217e+9 
           2175      9.24418e+9 
           2185      9.06428e+9 
           2195       9.1148e+9 
           2205      8.98583e+9 
           2215      8.79123e+9 
           2225      8.69945e+9 
           2235       8.5456e+9 
           2245      8.47637e+9 
           2255      8.29467e+9 
           2265      8.26859e+9 
           2275      8.18514e+9 
           2285       8.0314e+9 
           2295      7.17478e+9 
           2305      7.73664e+9 
           2315      7.65026e+9 
           2325      7.59644e+9 
           2335      7.46311e+9 
           2345      7.42426e+9 
           2355      7.30156e+9 
           2365      7.20155e+9 
           2375      7.06356e+9 
           2385      6.88127e+9 
           2395      6.84231e+9 
           2405      6.80637e+9 
           2415      6.71266e+9 
           2425      6.66317e+9 
           2435      6.53803e+9 
           2445      6.47899e+9 
           2455      6.40756e+9 
           2465        6.316e+9 
           2475      6.21955e+9 
           2485       6.0355e+9 
           2495      4.52019e+9 
           2505      5.76517e+9 
           2513      5.67746e+9 
           2518      5.77365e+9 
           2525      5.84396e+9 
           2535       5.7983e+9 
           2545      5.66017e+9 
           2555      5.61624e+9 
           2565      5.56606e+9 
           2575        5.502e+9 
           2585      5.43849e+9 
           2595      5.36286e+9 
           2605      5.32593e+9 
           2615       5.2303e+9 
           2625      5.18719e+9 
           2635      5.13243e+9 
           2645       5.0533e+9 
           2655      5.00024e+9 
           2665      4.88534e+9 
           2675      4.80982e+9 
           2685      4.81748e+9 
           2695      4.69595e+9 
           2705      4.65028e+9 
           2715       4.6005e+9 
           2725      4.56471e+9 
           2735      4.48431e+9 
           2745      4.47234e+9 
           2755      4.42469e+9 
           2765      4.35274e+9 
           2775      4.34417e+9 
           2785      4.27194e+9 
           2795      4.14353e+9 
           2805      4.15794e+9 
           2815      4.14143e+9 
           2825       4.0829e+9 
           2835      3.99523e+9 
           2845      3.99823e+9 
           2855      3.93834e+9 
           2865      3.89143e+9 
           2875      3.85064e+9 
           2885      3.80987e+9 
           2895      3.76544e+9 
           2910      3.68348e+9 
           2930      3.62573e+9 
           2950      3.52336e+9 
           2970      3.45608e+9 
           2990      3.36427e+9 
           3010      3.26924e+9 
           3030      3.20496e+9 
           3050      3.15481e+9 
           3070      3.10045e+9 
           3090      2.99842e+9 
           3110      2.96882e+9 
           3130      2.89527e+9 
           3150      2.84063e+9 
           3170      2.77547e+9 
           3190       2.7176e+9 
           3210       2.6581e+9 
           3230      2.60322e+9 
           3250      2.56279e+9 
           3270      2.49596e+9 
           3290      2.45095e+9 
           3310      2.40147e+9 
           3330       2.3453e+9 
           3350      2.29539e+9 
           3370      2.25137e+9 
           3390      2.21935e+9 
           3410      2.17476e+9 
           3430      2.13196e+9 
           3450      2.08161e+9 
           3470      2.04495e+9 
           3490      2.00361e+9 
           3510       1.9691e+9 
           3530      1.93678e+9 
           3550      1.89753e+9 
           3570      1.86374e+9 
           3590      1.81912e+9 
           3610      1.78503e+9 
           3630      1.75272e+9 
           3640      1.73844e+9 
           3650      1.67486e+9 
           3670       1.6503e+9 
           3690      1.61448e+9 
           3710      1.56835e+9 
           3730      1.53346e+9 
           3750      1.57941e+9 
           3770      1.55893e+9 
           3790      1.57948e+9 
           3810      1.60436e+9 
           3830      1.47814e+9 
           3850      1.58169e+9 
           3870      1.53548e+9 
           3890      1.40757e+9 
           3910      1.51531e+9 
           3930      1.46792e+9 
           3950      1.44617e+9 
           3970      1.29969e+9 
           3990      1.40766e+9 
           4010      1.38173e+9 
           4030      1.33954e+9 
           4050      1.33804e+9 
           4070      1.29128e+9 
           4090      1.24434e+9 
           4110      1.16256e+9 
           4130      1.23135e+9 
           4150      1.21601e+9 
           4170      1.20542e+9 
           4190      1.18503e+9 
           4210      1.16621e+9 
           4230      1.14944e+9 
           4250      1.12188e+9 
           4270      1.09666e+9 
           4290      1.08138e+9 
           4310      1.05618e+9 
           4330      1.01695e+9 
           4350      9.53744e+8 
           4370      1.00828e+9 
           4390      9.92428e+8 
           4410      9.79011e+8 
           4430      9.70863e+8 
           4450        9.535e+8 
           4470      9.26396e+8 
           4490      9.25188e+8 
           4510      9.08276e+8 
           4530      8.97153e+8 
           4550      8.80039e+8 
           4570      8.69611e+8 
           4590      8.54146e+8 
           4610      8.39394e+8 
           4630      8.23898e+8 
           4650      7.88497e+8 
           4670      7.98807e+8 
           4690      7.84867e+8 
           4710      7.69605e+8 
           4730      7.70234e+8 
           4750      7.57232e+8 
           4770      7.50382e+8 
           4790      7.38727e+8 
           4810      7.26198e+8 
           4830      7.13785e+8 
           4850      6.92775e+8 
           4870      6.40174e+8 
           4890      6.83505e+8 
           4910      6.73478e+8 
           4930      6.56524e+8 
           4950      6.51737e+8 
           4970      6.46334e+8 
           4990      6.36731e+8 
           5010      6.17654e+8 
           5030      6.16966e+8 
           5050      6.06667e+8 
           5070      6.00937e+8 
           5090      5.91906e+8 
           5110      5.83227e+8 
           5130      5.73879e+8 
           5150      5.66007e+8 
           5170      5.58408e+8 
           5190      5.51246e+8 
           5210      5.43774e+8 
           5230      5.36111e+8 
           5250      5.27797e+8 
           5270      5.20258e+8 
           5290      5.14164e+8 
           5310      5.06972e+8 
           5330      5.00204e+8 
           5350      4.93365e+8 
           5370      4.86705e+8 
           5390      4.79702e+8 
           5410       4.7167e+8 
           5430      4.67307e+8 
           5450      4.60903e+8 
           5470      4.54655e+8 
           5490      4.48599e+8 
           5510       4.4273e+8 
           5530      4.36663e+8 
           5550      4.31296e+8 
           5570      4.25375e+8 
           5590      4.19395e+8 
           5610       4.1453e+8 
           5630      4.09178e+8 
           5650       4.0356e+8 
           5670      3.97472e+8 
           5690      3.88946e+8 
           5710      3.83141e+8 
           5730      3.78543e+8 
           5750      3.72975e+8 
           5770      3.69341e+8 
           5790       3.6458e+8 
           5810      3.59899e+8 
           5830      3.55206e+8 
           5850      3.51867e+8 
           5870      3.41481e+8 
           5890      3.42815e+8 
           5910      3.39657e+8 
           5930      3.35656e+8 
           5950      3.32062e+8 
           5970      3.29271e+8 
           5990      3.24576e+8 
           6010      3.21022e+8 
           6030      3.16752e+8 
           6050      3.13045e+8 
           6070      3.09452e+8 
           6090      3.05787e+8 
           6110      3.01962e+8 
           6130      2.98431e+8 
           6150      2.94292e+8 
           6170      2.90833e+8 
           6190      2.87757e+8 
           6210      2.84461e+8 
           6230      2.80949e+8 
           6250      2.77514e+8 
           6270      2.74357e+8 
           6290      2.71225e+8 
           6310      2.67758e+8 
           6330      2.64902e+8 
           6350      2.61629e+8 
           6370      2.58782e+8 
           6390      2.55726e+8 
           6410      2.52601e+8 
           6430      2.49893e+8 
           6450      2.46915e+8 
           6470      2.43645e+8 
           6490      2.40965e+8 
           6510      2.38402e+8 
           6530       2.3531e+8 
           6550      2.30696e+8 
           6570      2.11227e+8 
           6590      2.26655e+8 
           6610      2.25147e+8 
           6630       2.2278e+8 
           6650      2.20164e+8 
           6670      2.16203e+8 
           6690      2.13734e+8 
           6710      2.12805e+8 
           6730      2.10112e+8 
           6750      2.08182e+8 
           6770      2.06066e+8 
           6790      2.03187e+8 
           6810        2.015e+8 
           6830      1.99255e+8 
           6850      1.97162e+8 
           6870       1.9497e+8 
           6890      1.92475e+8 
           6910      1.90439e+8 
           6930      1.88793e+8 
           6950      1.86756e+8 
           6970      1.84763e+8 
           6990      1.82767e+8 
           7010      1.80752e+8 
           7030      1.78657e+8 
           7050      1.76887e+8 
           7070      1.72888e+8 
           7090      1.73256e+8 
           7110      1.70971e+8 
           7130      1.69294e+8 
           7150      1.67862e+8 
           7170       1.6593e+8 
           7190      1.64331e+8 
           7210      1.62659e+8 
           7230      1.59671e+8 
           7250      1.59042e+8 
           7270      1.57655e+8 
           7290      1.55061e+8 
           7310      1.54383e+8 
           7330      1.52805e+8 
           7350      1.51264e+8 
           7370      1.49736e+8 
           7390      1.48216e+8 
           7410      1.46704e+8 
           7430      1.45226e+8 
           7450      1.43741e+8 
           7470      1.41987e+8 
           7490      1.40686e+8 
           7510       1.3943e+8 
           7530      1.38012e+8 
           7550      1.36707e+8 
           7570      1.35328e+8 
           7590      1.33766e+8 
           7610      1.32498e+8 
           7630      1.31312e+8 
           7650      1.30028e+8 
           7670      1.28787e+8 
           7690      1.27424e+8 
           7710      1.26199e+8 
           7730      1.24892e+8 
           7750      1.23809e+8 
           7770      1.22604e+8 
           7790      1.21442e+8 
           7810      1.20221e+8 
           7830       1.1911e+8 
           7850      1.18009e+8 
           7870      1.16741e+8 
           7890      1.15563e+8 
           7910      1.14594e+8 
           7930      1.13465e+8 
           7950       1.1246e+8 
           7970      1.11321e+8 
           7990      1.10322e+8 
           8010      1.09214e+8 
           8030      1.08168e+8 
           8050      1.07213e+8 
           8070      1.06213e+8 
           8090       1.0513e+8 
           8110      1.03776e+8 
           8130      1.03301e+8 
           8150      1.02216e+8 
           8170      1.01405e+8 
           8190      1.00158e+8 
           8210      9.87765e+7 
           8230      9.77741e+7 
           8250      9.72066e+7 
           8270       9.5762e+7 
           8290      9.53553e+7 
           8310      9.45586e+7 
           8330      9.36219e+7 
           8350      9.24661e+7 
           8370      9.18204e+7 
           8390       9.1137e+7 
           8410       9.0262e+7 
           8430      8.94313e+7 
           8450      8.83067e+7 
           8470      8.76486e+7 
           8490      8.71212e+7 
           8510      8.56301e+7 
           8530      8.57779e+7 
           8550       8.3563e+7 
           8570      8.49688e+7 
           8590      8.21535e+7 
