# Kurucz ODFNEW /NOVER (2003)
# teff = 26000 K (value for the effective temperature for the model. Temperatures are given in K)
# logg = 4.5 log(cm/s2) (value for Log(G) for the model.)
# meta = -4  (value for the Metallicity for the model.)
# lh = 1.25  (l/Hp where l is the  mixing length of the convective element and Hp is the pressure scale height)
# vtur = 2 km/s (Microturbulence velocity)
# alpha = 0.4  (Alpha)
#
# column 1: WAVELENGTH (ANGSTROM), Wavelength in Angstrom
# column 2: FLUX (ERG/CM2/S/A), Flux in erg/cm2/s/A
          147.2     5.97263e-13 
            151     2.79577e-12 
          155.2     1.40675e-11 
          158.8     5.23934e-11 
            162     1.60287e-10 
            166     6.09143e-10 
          170.3      2.37972e-9 
          173.4      6.08517e-9 
          176.8      1.63813e-8 
          180.2      4.24145e-8 
          181.7      6.37766e-8 
          186.1      2.02804e-7 
            191      6.88762e-7 
          193.9      1.37737e-6 
          198.4      3.87108e-6 
          201.8       8.1835e-6 
            205      1.61637e-5 
          210.5       4.9483e-5 
          216.2     0.000148073 
          219.8     0.000286851 
            223     0.000506614 
          226.8     0.000973642 
            230      0.00366489 
            234      0.00777594 
            240       0.0185997 
          246.5       0.0455878 
          252.4       0.0994192 
          256.8        0.167867 
            260        0.254092 
            264        0.407118 
          268.5        0.679126 
          273.5         1.17432 
          278.5         1.99176 
            284         3.47985 
            290         6.23373 
            296         10.8806 
            301         16.9863 
            308         30.3762 
            318         69.5573 
            328         148.039 
            338         300.192 
            348         582.869 
            357         1022.72 
            366         1742.58 
            375         2885.78 
            385         4905.04 
            395         8091.38 
            405         12990.1 
            414         19466.9 
            422         27437.5 
            430         38125.3 
            441         58651.6 
            451         84984.1 
            460          116824 
            470          163711 
            480          225727 
            490          306687 
            500          410741 
            506      2.31671e+6 
            512       7.4652e+6 
            520      8.77749e+6 
            530      1.16325e+7 
            540        1.215e+7 
            550      1.56333e+7 
            560      1.78946e+7 
            570      2.04424e+7 
            580      2.06294e+7 
            590      2.54447e+7 
            600       2.9634e+7 
            610      3.32891e+7 
            620      3.72123e+7 
            630      4.14725e+7 
            640      4.60068e+7 
            650       5.0965e+7 
            658      5.51402e+7 
            665      5.89648e+7 
            675      6.46408e+7 
            685      7.05792e+7 
            695      7.72926e+7 
            705      8.40284e+7 
            716       9.1894e+7 
            726      9.94151e+7 
            735      1.06619e+8 
            745      1.14846e+8 
            755      1.23416e+8 
            765      1.32307e+8 
            775      1.41559e+8 
            785       1.5112e+8 
            795       1.6098e+8 
            805      1.71179e+8 
            815      1.81659e+8 
            825      1.92454e+8 
            835       2.0218e+8 
            845       2.1486e+8 
            855      2.26427e+8 
            865       2.3831e+8 
            875      2.50402e+8 
            885      2.62721e+8 
            895      2.75239e+8 
            905      2.87575e+8 
            915      4.14988e+8 
            925      2.53017e+9 
            935      7.01295e+9 
            945     2.10102e+10 
            955     2.97658e+10 
            965     3.98877e+10 
            975     1.82823e+10 
            985     4.62532e+10 
            995     4.45405e+10 
           1005     4.59972e+10 
           1015     4.10436e+10 
           1025     1.28672e+10 
           1035     3.68808e+10 
           1045       4.146e+10 
           1055     4.08876e+10 
           1065     3.95919e+10 
           1075     3.88033e+10 
           1085     3.63377e+10 
           1095     3.71317e+10 
           1105     3.58024e+10 
           1115     3.50934e+10 
           1125     3.39514e+10 
           1135     3.35576e+10 
           1145     3.26665e+10 
           1155     3.18915e+10 
           1165     3.11104e+10 
           1175      2.8935e+10 
           1185     2.95138e+10 
           1195     2.83228e+10 
           1205     2.48494e+10 
           1215      8.47538e+9 
           1225     2.30174e+10 
           1235     2.57497e+10 
           1245     2.54835e+10 
           1255     2.50671e+10 
           1265     2.45499e+10 
           1275     2.40157e+10 
           1285     2.34882e+10 
           1295     2.26147e+10 
           1305     2.22871e+10 
           1315      2.1993e+10 
           1325     2.14906e+10 
           1335     2.07097e+10 
           1345     2.05476e+10 
           1355     2.01014e+10 
           1365     1.96575e+10 
           1375     1.92503e+10 
           1385     1.88614e+10 
           1395     1.82988e+10 
           1405     1.79713e+10 
           1415     1.77321e+10 
           1425     1.73673e+10 
           1435     1.70123e+10 
           1442     1.67681e+10 
           1447     1.65925e+10 
           1455      1.6317e+10 
           1465     1.59812e+10 
           1475     1.56553e+10 
           1485     1.53408e+10 
           1495     1.50412e+10 
           1505     1.47533e+10 
           1512     1.45602e+10 
           1517     1.44211e+10 
           1525     1.42017e+10 
           1535     1.39298e+10 
           1545     1.36252e+10 
           1555      1.3366e+10 
           1565     1.31456e+10 
           1575      1.2892e+10 
           1585     1.26473e+10 
           1595     1.24097e+10 
           1605     1.21778e+10 
           1615     1.19556e+10 
           1625     1.17429e+10 
           1635     1.15095e+10 
           1645     1.11085e+10 
           1655     1.11336e+10 
           1665      1.0938e+10 
           1672     1.08005e+10 
           1677     1.07047e+10 
           1685     1.05524e+10 
           1695     1.03623e+10 
           1705     1.01768e+10 
           1715      9.99467e+9 
           1725      9.81874e+9 
           1735      9.64831e+9 
           1745      9.48299e+9 
           1755      9.32496e+9 
           1765       9.1688e+9 
           1775      9.01807e+9 
           1785      8.86931e+9 
           1795      8.72422e+9 
           1805      8.58261e+9 
           1815      8.44141e+9 
           1825      8.30278e+9 
           1835      8.16498e+9 
           1845      8.02724e+9 
           1855      7.88071e+9 
           1865      7.75765e+9 
           1875      7.64384e+9 
           1885      7.51959e+9 
           1895      7.39217e+9 
           1905      7.28394e+9 
           1915      7.16297e+9 
           1925      7.05417e+9 
           1935      6.94976e+9 
           1945      6.84691e+9 
           1955       6.7386e+9 
           1967      6.61954e+9 
           1976      6.52995e+9 
           1984      6.44858e+9 
           1995      6.33763e+9 
           2005      6.24636e+9 
           2015      6.15288e+9 
           2025      6.06093e+9 
           2035      5.97003e+9 
           2045      5.88143e+9 
           2055      5.74565e+9 
           2065      5.65859e+9 
           2074      5.59172e+9 
           2078      5.55608e+9 
           2085      5.51685e+9 
           2095      5.45976e+9 
           2105      5.39304e+9 
           2115      5.31673e+9 
           2125      5.24145e+9 
           2135       5.1675e+9 
           2145      5.09495e+9 
           2155      5.02336e+9 
           2165      4.95214e+9 
           2175      4.88234e+9 
           2185      4.81353e+9 
           2195      4.74678e+9 
           2205      4.68089e+9 
           2215      4.61591e+9 
           2225      4.55382e+9 
           2235      4.49166e+9 
           2245      4.43059e+9 
           2255      4.36967e+9 
           2265      4.31222e+9 
           2275      4.25467e+9 
           2285       4.1981e+9 
           2295      4.13707e+9 
           2305      4.08685e+9 
           2315      4.03461e+9 
           2325        3.982e+9 
           2335      3.92979e+9 
           2345      3.87819e+9 
           2355      3.82746e+9 
           2365      3.77758e+9 
           2375      3.72901e+9 
           2385      3.67946e+9 
           2395      3.63336e+9 
           2405       3.5868e+9 
           2415      3.54107e+9 
           2425       3.4961e+9 
           2435      3.45194e+9 
           2445      3.40864e+9 
           2455      3.36605e+9 
           2465      3.32422e+9 
           2475      3.28302e+9 
           2485      3.24268e+9 
           2495      3.18491e+9 
           2505      3.16319e+9 
           2513      3.12901e+9 
           2518      3.11249e+9 
           2525      3.08581e+9 
           2535      3.04826e+9 
           2545      3.01103e+9 
           2555      2.97475e+9 
           2565      2.93889e+9 
           2575      2.90355e+9 
           2585      2.86879e+9 
           2595      2.83464e+9 
           2605      2.82096e+9 
           2615      2.78742e+9 
           2625      2.75409e+9 
           2635      2.71819e+9 
           2645      2.68491e+9 
           2655       2.6496e+9 
           2665      2.61368e+9 
           2675      2.57959e+9 
           2685      2.56637e+9 
           2695      2.51728e+9 
           2705      2.50735e+9 
           2715      2.47844e+9 
           2725      2.42908e+9 
           2735      2.42127e+9 
           2745      2.39436e+9 
           2755      2.36718e+9 
           2765      2.31915e+9 
           2775      2.31406e+9 
           2785      2.28809e+9 
           2795      2.26186e+9 
           2805      2.23691e+9 
           2815      2.21206e+9 
           2825      2.16192e+9 
           2835      2.15133e+9 
           2845      2.13922e+9 
           2855      2.11575e+9 
           2865      2.09247e+9 
           2875      2.06951e+9 
           2885       2.0469e+9 
           2895      2.02461e+9 
           2910      1.99173e+9 
           2930      1.94892e+9 
           2950      1.89215e+9 
           2970      1.86697e+9 
           2990      1.82762e+9 
           3010       1.7894e+9 
           3030      1.75215e+9 
           3050      1.71585e+9 
           3070      1.68045e+9 
           3090      1.64598e+9 
           3110      1.61246e+9 
           3130      1.58161e+9 
           3150      1.54978e+9 
           3170      1.51844e+9 
           3190      1.47425e+9 
           3210      1.45798e+9 
           3230      1.42897e+9 
           3250      1.40056e+9 
           3270      1.37488e+9 
           3290      1.34611e+9 
           3310      1.32219e+9 
           3330      1.29684e+9 
           3350      1.26958e+9 
           3370      1.24796e+9 
           3390      1.22439e+9 
           3410      1.20139e+9 
           3430      1.17343e+9 
           3450       1.1472e+9 
           3470      1.12951e+9 
           3490      1.10862e+9 
           3510      1.09076e+9 
           3530      1.07312e+9 
           3550      1.05395e+9 
           3570      1.04134e+9 
           3590      1.01527e+9 
           3610      1.00044e+9 
           3630       9.7947e+8 
           3640      9.78303e+8 
           3650      9.67577e+8 
           3670      9.54851e+8 
           3690      9.36643e+8 
           3710       9.0421e+8 
           3730       8.6608e+8 
           3750      8.84353e+8 
           3770      8.76373e+8 
           3790      9.24114e+8 
           3810      9.66446e+8 
           3830      8.37342e+8 
           3850      9.96614e+8 
           3870      1.01212e+9 
           3890      7.89229e+8 
           3910      9.95093e+8 
           3930      9.87601e+8 
           3950      9.63645e+8 
           3970      7.33505e+8 
           3990      9.22295e+8 
           4010      9.21646e+8 
           4030      8.62254e+8 
           4050      9.01831e+8 
           4070      8.82209e+8 
           4090      7.99599e+8 
           4110      6.92347e+8 
           4130      8.24958e+8 
           4150      8.19038e+8 
           4170      8.13388e+8 
           4190      8.02058e+8 
           4210      7.88611e+8 
           4230      7.75381e+8 
           4250      7.62427e+8 
           4270      7.49682e+8 
           4290      7.35646e+8 
           4310      7.18471e+8 
           4330      6.40498e+8 
           4350      5.81863e+8 
           4370      6.81537e+8 
           4390      6.55246e+8 
           4410      6.67448e+8 
           4430      6.53967e+8 
           4450      6.46561e+8 
           4470      6.03079e+8 
           4490      6.25637e+8 
           4510      6.16581e+8 
           4530       6.0689e+8 
           4550      5.97362e+8 
           4570      5.88015e+8 
           4590      5.78842e+8 
           4610      5.69842e+8 
           4630      5.61028e+8 
           4650       5.5238e+8 
           4670      5.43927e+8 
           4690      5.35273e+8 
           4710      5.20276e+8 
           4730      5.19506e+8 
           4750      5.11684e+8 
           4770      5.04025e+8 
           4790      4.96491e+8 
           4810      4.87681e+8 
           4830      4.77159e+8 
           4850      4.34186e+8 
           4870      3.85801e+8 
           4890      4.53989e+8 
           4910      4.51658e+8 
           4930      4.34112e+8 
           4950      4.40928e+8 
           4970      4.34565e+8 
           4990      4.28305e+8 
           5010      4.16442e+8 
           5030      4.16115e+8 
           5050      4.07567e+8 
           5070      4.04387e+8 
           5090      3.98685e+8 
           5110      3.93074e+8 
           5130      3.87553e+8 
           5150       3.8212e+8 
           5170      3.76787e+8 
           5190      3.71539e+8 
           5210      3.66388e+8 
           5230      3.61333e+8 
           5250      3.56371e+8 
           5270      3.51487e+8 
           5290       3.4668e+8 
           5310      3.41963e+8 
           5330      3.37319e+8 
           5350      3.32762e+8 
           5370      3.28289e+8 
           5390      3.23873e+8 
           5410      3.19539e+8 
           5430      3.15286e+8 
           5450      3.11099e+8 
           5470      3.06977e+8 
           5490       3.0292e+8 
           5510      2.98938e+8 
           5530      2.95018e+8 
           5550      2.91159e+8 
           5570      2.87372e+8 
           5590      2.83643e+8 
           5610      2.79985e+8 
           5630      2.76371e+8 
           5650      2.72824e+8 
           5670      2.69333e+8 
           5690      2.65895e+8 
           5710       2.6251e+8 
           5730      2.59178e+8 
           5750      2.55897e+8 
           5770      2.52678e+8 
           5790      2.49497e+8 
           5810      2.46376e+8 
           5830      2.43292e+8 
           5850      2.40266e+8 
           5870       2.2913e+8 
           5890      2.33908e+8 
           5910      2.31464e+8 
           5930       2.2862e+8 
           5950       2.2582e+8 
           5970      2.23072e+8 
           5990      2.20357e+8 
           6010      2.17683e+8 
           6030       2.1506e+8 
           6050      2.12467e+8 
           6070      2.09914e+8 
           6090        2.074e+8 
           6110      2.04914e+8 
           6130      2.02476e+8 
           6150      2.00066e+8 
           6170      1.97702e+8 
           6190      1.95365e+8 
           6210      1.93063e+8 
           6230      1.90806e+8 
           6250      1.88574e+8 
           6270      1.86367e+8 
           6290      1.84203e+8 
           6310      1.82072e+8 
           6330      1.79964e+8 
           6350      1.77889e+8 
           6370      1.75845e+8 
           6390      1.73833e+8 
           6410      1.71851e+8 
           6430      1.69891e+8 
           6450      1.67961e+8 
           6470       1.6606e+8 
           6490      1.64179e+8 
           6510      1.62052e+8 
           6530      1.59453e+8 
           6550      1.51192e+8 
           6570      1.33621e+8 
           6590      1.53084e+8 
           6610      1.52952e+8 
           6630      1.51757e+8 
           6650      1.50189e+8 
           6670      1.46758e+8 
           6690      1.45183e+8 
           6710      1.45298e+8 
           6730      1.43712e+8 
           6750      1.42142e+8 
           6770      1.40605e+8 
           6790      1.39083e+8 
           6810      1.37577e+8 
           6830      1.36102e+8 
           6850      1.34634e+8 
           6870      1.33197e+8 
           6890      1.31774e+8 
           6910      1.30365e+8 
           6930      1.28979e+8 
           6950      1.27613e+8 
           6970      1.26269e+8 
           6990      1.24939e+8 
           7010      1.23621e+8 
           7030      1.22332e+8 
           7050      1.21048e+8 
           7070      1.17673e+8 
           7090      1.18539e+8 
           7110      1.17314e+8 
           7130      1.16094e+8 
           7150        1.149e+8 
           7170      1.13695e+8 
           7190      1.12546e+8 
           7210      1.11394e+8 
           7230      1.10259e+8 
           7250      1.09136e+8 
           7270       1.0803e+8 
           7290      1.05971e+8 
           7310      1.05836e+8 
           7330      1.04782e+8 
           7350      1.03732e+8 
           7370      1.02691e+8 
           7390       1.0166e+8 
           7410      1.00645e+8 
           7430       9.9647e+7 
           7450      9.86715e+7 
           7470      9.76915e+7 
           7490      9.67273e+7 
           7510      9.57385e+7 
           7530       9.4832e+7 
           7550      9.39006e+7 
           7570      9.29844e+7 
           7590      9.20765e+7 
           7610      9.11768e+7 
           7630      9.02917e+7 
           7650      8.94211e+7 
           7670       8.8552e+7 
           7690      8.77033e+7 
           7710       8.6856e+7 
           7730      8.60225e+7 
           7750      8.51965e+7 
           7770      8.43841e+7 
           7790      8.35851e+7 
           7810      8.27375e+7 
           7830       8.2002e+7 
           7850      8.13218e+7 
           7870      8.05502e+7 
           7890      7.97369e+7 
           7910      7.90451e+7 
           7930      7.83054e+7 
           7950      7.75245e+7 
           7970      7.66437e+7 
           7990      7.59536e+7 
           8010      7.52283e+7 
           8030       7.4521e+7 
           8050      7.38373e+7 
           8070      7.31709e+7 
           8090      7.24124e+7 
           8110      7.18552e+7 
           8130        7.124e+7 
           8150      7.05107e+7 
           8170      6.99684e+7 
           8190      6.92452e+7 
           8210      6.85393e+7 
           8230      6.81176e+7 
           8250      6.75221e+7 
           8270      6.65735e+7 
           8290      6.62636e+7 
           8310       6.5705e+7 
           8330      6.50804e+7 
           8350      6.41584e+7 
           8370      6.38199e+7 
           8390      6.33554e+7 
           8410      6.27935e+7 
           8430      6.21831e+7 
           8450      6.11821e+7 
           8470      6.10563e+7 
           8490       6.0377e+7 
           8510      5.98698e+7 
           8530       5.9315e+7 
           8550      5.83627e+7 
           8570       5.8819e+7 
