# Kurucz ODFNEW /NOVER (2003)
# teff = 28000 K (value for the effective temperature for the model. Temperatures are given in K)
# logg = 3.5 log(cm/s2) (value for Log(G) for the model.)
# meta = -0.5  (value for the Metallicity for the model.)
# lh = 1.25  (l/Hp where l is the  mixing length of the convective element and Hp is the pressure scale height)
# vtur = 2 km/s (Microturbulence velocity)
# alpha = 0.4  (Alpha)
#
# column 1: WAVELENGTH (ANGSTROM), Wavelength in Angstrom
# column 2: FLUX (ERG/CM2/S/A), Flux in erg/cm2/s/A
          147.2     6.74582e-11 
            151     2.45656e-10 
          155.2     9.56845e-10 
          158.8      2.90927e-9 
            162      7.52167e-9 
            166       2.3482e-8 
          170.3      7.53314e-8 
          173.4      1.68872e-7 
          176.8      3.96203e-7 
          180.2      9.00776e-7 
          181.7      1.28167e-6 
          186.1      3.49555e-6 
            191      1.01295e-5 
          193.9      1.85363e-5 
          198.4      4.57157e-5 
          201.8      8.80285e-5 
            205     0.000159844 
          210.5     0.000427162 
          216.2      0.00112086 
          219.8       0.0020088 
            223      0.00331919 
          226.8       0.0059594 
            230         1.73516 
            234         3.91205 
            240         7.61765 
          246.5            15.6 
          252.4          29.232 
          256.8          41.662 
            260         67.5215 
            264         96.1715 
          268.5         151.539 
          273.5         235.902 
          278.5         349.183 
            284         709.777 
            290         1126.29 
            296         1719.91 
            301         2360.06 
            308         4667.02 
            318         10438.6 
            328         18023.7 
            338           33543 
            348           57251 
            357          196072 
            366          394318 
            375          541392 
            385          857512 
            395      1.58735e+6 
            405      2.15973e+6 
            414      3.09084e+6 
            422      3.72448e+6 
            430      4.75058e+6 
            441      6.40193e+6 
            451      8.19595e+6 
            460      9.79675e+6 
            470      1.25728e+7 
            480      1.55875e+7 
            490      1.92648e+7 
            500      2.40821e+7 
            506      9.05848e+7 
            512      5.77703e+8 
            520      5.60887e+8 
            530      5.49899e+8 
            540      5.26581e+8 
            550      6.83381e+8 
            560       8.1153e+8 
            570      8.73516e+8 
            580      7.92005e+8 
            590      9.28793e+8 
            600      8.51157e+8 
            610      1.02358e+9 
            620      1.15175e+9 
            630      1.17319e+9 
            640      1.12651e+9 
            650      1.09809e+9 
            658      1.13307e+9 
            665      1.28525e+9 
            675      1.34453e+9 
            685      1.24101e+9 
            695      1.55652e+9 
            705      1.36753e+9 
            716      1.70164e+9 
            726      1.67824e+9 
            735       1.7376e+9 
            745      1.82227e+9 
            755      1.85382e+9 
            765      1.95888e+9 
            775       2.0496e+9 
            785      2.15189e+9 
            795      2.17576e+9 
            805      2.17814e+9 
            815      2.19042e+9 
            825      2.33961e+9 
            835      1.97198e+9 
            845      2.34609e+9 
            855      2.37641e+9 
            865      2.47117e+9 
            875      2.54722e+9 
            885      2.65636e+9 
            895      2.72601e+9 
            905      2.70243e+9 
            915      4.05377e+9 
            925     2.21989e+10 
            935     3.47066e+10 
            945     4.46114e+10 
            955     4.71436e+10 
            965      5.0917e+10 
            975      2.0827e+10 
            985     4.27353e+10 
            995     4.05906e+10 
           1005     4.29013e+10 
           1015     4.41226e+10 
           1025     3.53223e+10 
           1035     4.07915e+10 
           1045     4.83217e+10 
           1055     4.59105e+10 
           1065     3.96185e+10 
           1075     4.22393e+10 
           1085      3.9621e+10 
           1095     4.23725e+10 
           1105     4.00109e+10 
           1115     3.90722e+10 
           1125     3.15046e+10 
           1135     3.85934e+10 
           1145     3.59768e+10 
           1155     3.58253e+10 
           1165      3.5682e+10 
           1175     2.46253e+10 
           1185     3.30122e+10 
           1195     3.18183e+10 
           1205     2.79662e+10 
           1215     2.41231e+10 
           1225     3.03342e+10 
           1235     3.18802e+10 
           1245     3.06726e+10 
           1255     3.06497e+10 
           1265      3.0831e+10 
           1275     3.11627e+10 
           1285     3.07708e+10 
           1295     2.67166e+10 
           1305      2.7667e+10 
           1315     2.96486e+10 
           1325      2.8441e+10 
           1335     2.76297e+10 
           1345     2.74161e+10 
           1355     2.73002e+10 
           1365     2.60343e+10 
           1375     2.54557e+10 
           1385     2.47202e+10 
           1395     1.75547e+10 
           1405     1.91072e+10 
           1415     2.32391e+10 
           1425     2.17749e+10 
           1435     2.25812e+10 
           1442     2.27846e+10 
           1447     2.24871e+10 
           1455     2.16888e+10 
           1465     2.10234e+10 
           1475     2.10475e+10 
           1485     2.08453e+10 
           1495     2.02656e+10 
           1505     1.93935e+10 
           1512     1.86952e+10 
           1517     1.88849e+10 
           1525     1.85836e+10 
           1535     1.64891e+10 
           1545      1.5476e+10 
           1555     1.50731e+10 
           1565     1.61091e+10 
           1575      1.6783e+10 
           1585     1.66604e+10 
           1595     1.65721e+10 
           1605     1.57769e+10 
           1615     1.52585e+10 
           1625     1.53552e+10 
           1635     1.56119e+10 
           1645     1.53725e+10 
           1655     1.54349e+10 
           1665     1.51631e+10 
           1672     1.44812e+10 
           1677     1.59113e+10 
           1685     1.53081e+10 
           1695     1.47557e+10 
           1705     1.44548e+10 
           1715     1.39088e+10 
           1725     1.35366e+10 
           1735     1.38466e+10 
           1745     1.36413e+10 
           1755     1.35059e+10 
           1765     1.32952e+10 
           1775     1.28493e+10 
           1785     1.28855e+10 
           1795     1.27949e+10 
           1805     1.28108e+10 
           1815     1.22149e+10 
           1825     1.22284e+10 
           1835     1.20821e+10 
           1845      1.1221e+10 
           1855     1.13248e+10 
           1865     1.14019e+10 
           1875     1.13202e+10 
           1885     1.05634e+10 
           1895      1.0065e+10 
           1905     1.05201e+10 
           1915     1.01311e+10 
           1925      9.66837e+9 
           1935     1.01069e+10 
           1945     1.02412e+10 
           1955      9.38683e+9 
           1967      9.79338e+9 
           1976     1.01106e+10 
           1984      9.55946e+9 
           1995      9.33611e+9 
           2005      9.45847e+9 
           2015      9.46503e+9 
           2025      9.50867e+9 
           2035       8.9978e+9 
           2045       8.9438e+9 
           2055      8.01324e+9 
           2065      7.88996e+9 
           2074      8.25945e+9 
           2078      7.98881e+9 
           2085      8.32722e+9 
           2095      8.20011e+9 
           2105      8.33527e+9 
           2115      8.34827e+9 
           2125      8.30384e+9 
           2135      8.19218e+9 
           2145      7.95958e+9 
           2155      8.02841e+9 
           2165        7.864e+9 
           2175       7.8077e+9 
           2185      7.67217e+9 
           2195      7.67373e+9 
           2205      7.56919e+9 
           2215      7.42774e+9 
           2225      7.33167e+9 
           2235      7.20792e+9 
           2245      7.16358e+9 
           2255      7.00839e+9 
           2265      6.97609e+9 
           2275      6.89372e+9 
           2285      6.77247e+9 
           2295      6.27562e+9 
           2305      6.55576e+9 
           2315       6.4714e+9 
           2325       6.4077e+9 
           2335      6.29386e+9 
           2345      6.27126e+9 
           2355      6.18585e+9 
           2365      6.10798e+9 
           2375      6.00296e+9 
           2385      5.87921e+9 
           2395       5.8226e+9 
           2405      5.78144e+9 
           2415      5.68076e+9 
           2425      5.63554e+9 
           2435      5.52626e+9 
           2445      5.47881e+9 
           2455      5.42039e+9 
           2465      5.35356e+9 
           2475      5.26322e+9 
           2485      5.14542e+9 
           2495      3.99035e+9 
           2505      4.92754e+9 
           2513      4.85547e+9 
           2518      4.90567e+9 
           2525      4.95001e+9 
           2535      4.90851e+9 
           2545      4.76735e+9 
           2555      4.75013e+9 
           2565      4.69856e+9 
           2575      4.66316e+9 
           2585       4.6094e+9 
           2595      4.54932e+9 
           2605      4.51541e+9 
           2615      4.44788e+9 
           2625       4.4011e+9 
           2635      4.34459e+9 
           2645      4.28897e+9 
           2655      4.23567e+9 
           2665      4.15095e+9 
           2675      4.10344e+9 
           2685      4.09002e+9 
           2695      3.99359e+9 
           2705       3.9619e+9 
           2715      3.92311e+9 
           2725      3.86702e+9 
           2735      3.81674e+9 
           2745      3.79613e+9 
           2755      3.75358e+9 
           2765      3.69071e+9 
           2775      3.68211e+9 
           2785      3.62439e+9 
           2795      3.51444e+9 
           2805      3.52797e+9 
           2815      3.51308e+9 
           2825      3.45667e+9 
           2835        3.393e+9 
           2845      3.39502e+9 
           2855      3.34022e+9 
           2865      3.30607e+9 
           2875      3.26766e+9 
           2885      3.23649e+9 
           2895      3.19632e+9 
           2910      3.12831e+9 
           2930      3.07509e+9 
           2950      2.98838e+9 
           2970      2.93687e+9 
           2990      2.86623e+9 
           3010      2.78323e+9 
           3030      2.73106e+9 
           3050      2.68633e+9 
           3070      2.63985e+9 
           3090       2.5459e+9 
           3110      2.52447e+9 
           3130      2.46082e+9 
           3150      2.41475e+9 
           3170      2.36342e+9 
           3190      2.30822e+9 
           3210      2.26675e+9 
           3230      2.21562e+9 
           3250      2.18006e+9 
           3270      2.12905e+9 
           3290      2.08717e+9 
           3310       2.0473e+9 
           3330      2.00067e+9 
           3350      1.96175e+9 
           3370      1.92251e+9 
           3390      1.89245e+9 
           3410      1.85567e+9 
           3430      1.81715e+9 
           3450       1.7751e+9 
           3470      1.74284e+9 
           3490      1.70804e+9 
           3510      1.68148e+9 
           3530       1.6545e+9 
           3550      1.62129e+9 
           3570      1.59422e+9 
           3590      1.55528e+9 
           3610      1.53029e+9 
           3630      1.49932e+9 
           3640      1.49204e+9 
           3650       1.4524e+9 
           3670      1.43312e+9 
           3690      1.39908e+9 
           3710       1.3561e+9 
           3730      1.31971e+9 
           3750      1.37334e+9 
           3770      1.35613e+9 
           3790      1.38117e+9 
           3810       1.4093e+9 
           3830      1.28442e+9 
           3850      1.39796e+9 
           3870      1.36264e+9 
           3890      1.22513e+9 
           3910      1.34365e+9 
           3930      1.30413e+9 
           3950      1.28543e+9 
           3970      1.13218e+9 
           3990      1.24928e+9 
           4010      1.22884e+9 
           4030      1.18728e+9 
           4050      1.19203e+9 
           4070      1.14755e+9 
           4090       1.1014e+9 
           4110      1.01849e+9 
           4130      1.09444e+9 
           4150      1.08269e+9 
           4170      1.07393e+9 
           4190      1.05458e+9 
           4210      1.04038e+9 
           4230      1.02317e+9 
           4250      9.98424e+8 
           4270      9.75518e+8 
           4290      9.60917e+8 
           4310      9.39973e+8 
           4330      9.00426e+8 
           4350      8.37137e+8 
           4370      8.98221e+8 
           4390      8.82588e+8 
           4410      8.72897e+8 
           4430      8.64572e+8 
           4450      8.49037e+8 
           4470      8.21188e+8 
           4490      8.23419e+8 
           4510      8.12465e+8 
           4530      8.01268e+8 
           4550      7.86141e+8 
           4570       7.7417e+8 
           4590      7.60733e+8 
           4610      7.48066e+8 
           4630      7.36767e+8 
           4650      7.09483e+8 
           4670      7.12592e+8 
           4690      7.02125e+8 
           4710      6.83218e+8 
           4730      6.86259e+8 
           4750      6.74298e+8 
           4770      6.67877e+8 
           4790      6.57632e+8 
           4810      6.46345e+8 
           4830      6.34608e+8 
           4850      6.12777e+8 
           4870      5.63421e+8 
           4890      6.08118e+8 
           4910      5.99799e+8 
           4930      5.83317e+8 
           4950       5.7992e+8 
           4970      5.75582e+8 
           4990      5.67059e+8 
           5010      5.51013e+8 
           5030      5.49871e+8 
           5050      5.40221e+8 
           5070      5.35293e+8 
           5090       5.2714e+8 
           5110      5.19631e+8 
           5130      5.11923e+8 
           5150      5.04815e+8 
           5170      4.97534e+8 
           5190      4.91246e+8 
           5210        4.844e+8 
           5230      4.77852e+8 
           5250      4.71101e+8 
           5270      4.64372e+8 
           5290      4.58417e+8 
           5310      4.52058e+8 
           5330      4.45966e+8 
           5350      4.39874e+8 
           5370      4.34017e+8 
           5390      4.27677e+8 
           5410      4.21496e+8 
           5430      4.16684e+8 
           5450      4.10956e+8 
           5470      4.05501e+8 
           5490      4.00164e+8 
           5510      3.94994e+8 
           5530      3.89653e+8 
           5550      3.84698e+8 
           5570      3.79596e+8 
           5590      3.74462e+8 
           5610      3.69785e+8 
           5630      3.65047e+8 
           5650      3.60107e+8 
           5670      3.55005e+8 
           5690      3.49011e+8 
           5710      3.44803e+8 
           5730      3.40667e+8 
           5750      3.35476e+8 
           5770       3.3226e+8 
           5790      3.27991e+8 
           5810      3.23906e+8 
           5830      3.19648e+8 
           5850      3.16024e+8 
           5870      3.05871e+8 
           5890      3.07827e+8 
           5910      3.04711e+8 
           5930      3.00967e+8 
           5950      2.97265e+8 
           5970      2.94125e+8 
           5990       2.9018e+8 
           6010      2.86843e+8 
           6030      2.83182e+8 
           6050      2.79841e+8 
           6070      2.76569e+8 
           6090      2.73232e+8 
           6110      2.69932e+8 
           6130       2.6671e+8 
           6150      2.63215e+8 
           6170      2.60136e+8 
           6190      2.57219e+8 
           6210      2.54226e+8 
           6230      2.51209e+8 
           6250      2.48138e+8 
           6270      2.45282e+8 
           6290       2.4244e+8 
           6310      2.39486e+8 
           6330      2.36809e+8 
           6350      2.33928e+8 
           6370      2.31338e+8 
           6390      2.28637e+8 
           6410      2.25984e+8 
           6430      2.23441e+8 
           6450      2.20862e+8 
           6470      2.18041e+8 
           6490      2.15599e+8 
           6510       2.1329e+8 
           6530      2.10572e+8 
           6550       2.0581e+8 
           6570       1.8775e+8 
           6590      2.02816e+8 
           6610      2.01505e+8 
           6630      1.99331e+8 
           6650      1.96967e+8 
           6670      1.93535e+8 
           6690       1.9142e+8 
           6710      1.90582e+8 
           6730      1.88195e+8 
           6750      1.86511e+8 
           6770      1.84498e+8 
           6790      1.82146e+8 
           6810      1.80436e+8 
           6830      1.78379e+8 
           6850       1.7656e+8 
           6870      1.74632e+8 
           6890      1.72532e+8 
           6910      1.70549e+8 
           6930      1.69087e+8 
           6950      1.67289e+8 
           6970      1.65508e+8 
           6990       1.6373e+8 
           7010      1.61969e+8 
           7030      1.60218e+8 
           7050      1.58552e+8 
           7070       1.5486e+8 
           7090      1.55254e+8 
           7110      1.53428e+8 
           7130      1.51901e+8 
           7150      1.50441e+8 
           7170      1.48826e+8 
           7190      1.47329e+8 
           7210       1.4581e+8 
           7230      1.43433e+8 
           7250      1.42557e+8 
           7270      1.41346e+8 
           7290      1.38955e+8 
           7310       1.3845e+8 
           7330      1.37043e+8 
           7350       1.3565e+8 
           7370       1.3429e+8 
           7390       1.3293e+8 
           7410      1.31589e+8 
           7430       1.3026e+8 
           7450      1.28951e+8 
           7470      1.27303e+8 
           7490      1.26335e+8 
           7510      1.25095e+8 
           7530       1.2384e+8 
           7550      1.22663e+8 
           7570       1.2145e+8 
           7590      1.20196e+8 
           7610      1.18928e+8 
           7630      1.17885e+8 
           7650      1.16715e+8 
           7670      1.15602e+8 
           7690      1.14434e+8 
           7710      1.13347e+8 
           7730      1.12187e+8 
           7750      1.11164e+8 
           7770      1.10049e+8 
           7790      1.09038e+8 
           7810      1.07937e+8 
           7830      1.06956e+8 
           7850      1.05996e+8 
           7870      1.04856e+8 
           7890      1.03798e+8 
           7910      1.02985e+8 
           7930      1.01969e+8 
           7950      1.01016e+8 
           7970      9.99813e+7 
           7990      9.90684e+7 
           8010      9.80869e+7 
           8030      9.71841e+7 
           8050      9.63239e+7 
           8070      9.54421e+7 
           8090      9.44355e+7 
           8110      9.32199e+7 
           8130      9.28303e+7 
           8150      9.18364e+7 
           8170       9.1139e+7 
           8190       9.0026e+7 
           8210      8.90011e+7 
           8230      8.82798e+7 
           8250       8.7642e+7 
           8270      8.62491e+7 
           8290      8.59486e+7 
           8310      8.52299e+7 
           8330      8.44356e+7 
           8350      8.33616e+7 
           8370      8.27432e+7 
           8390      8.21245e+7 
           8410      8.13348e+7 
           8430      8.05624e+7 
           8450       7.9485e+7 
           8470      7.89158e+7 
           8490      7.84608e+7 
           8510      7.71925e+7 
           8530      7.72659e+7 
           8550      7.50856e+7 
           8570      7.66642e+7 
