# Kurucz ODFNEW /NOVER (2003)
# teff = 21000 K (value for the effective temperature for the model. Temperatures are given in K)
# logg = 4 log(cm/s2) (value for Log(G) for the model.)
# meta = -2  (value for the Metallicity for the model.)
# lh = 1.25  (l/Hp where l is the  mixing length of the convective element and Hp is the pressure scale height)
# vtur = 2 km/s (Microturbulence velocity)
# alpha = 0.4  (Alpha)
#
# column 1: WAVELENGTH (ANGSTROM), Wavelength in Angstrom
# column 2: FLUX (ERG/CM2/S/A), Flux in erg/cm2/s/A
          147.2     2.79733e-19 
            151     1.77072e-18 
          155.2      1.2314e-17 
          158.8     6.00363e-17 
            162     2.31989e-16 
            166     1.17079e-15 
          170.3      6.1422e-15 
          173.4     1.93028e-14 
          176.8     6.47731e-14 
          180.2     2.07762e-13 
          181.7     3.42692e-13 
          186.1     1.42041e-12 
            191     6.40691e-12 
          193.9     1.50723e-11 
          198.4     5.40824e-11 
          201.8     1.36683e-10 
            205     3.17941e-10 
          210.5       1.2765e-9 
          216.2      4.99475e-9 
          219.8      1.13887e-8 
            223      2.31572e-8 
          226.8      5.23682e-8 
            230      1.79755e-7 
            234      4.29548e-7 
            240      1.31489e-6 
          246.5      4.13922e-6 
          252.4      1.11678e-5 
          256.8      2.24337e-5 
            260      3.72817e-5 
            264      6.83287e-5 
          268.5     0.000131969 
          273.5     0.000267057 
          278.5     0.000527095 
            284      0.00108153 
            290      0.00229281 
            296      0.00470439 
            301      0.00837736 
            308       0.0180577 
            318       0.0516418 
            328        0.137177 
            338        0.342883 
            348        0.810579 
            357         1.68233 
            366         3.36271 
            375         6.48095 
            385         12.9309 
            395          24.836 
            405         46.0826 
            414         78.1941 
            422         122.517 
            430          188.44 
            441         331.612 
            451         539.772 
            460         820.223 
            470         1279.11 
            480         1953.96 
            490         2928.48 
            500         4309.94 
            506         32463.3 
            512         95915.5 
            520          123527 
            530          181619 
            540          204049 
            550          299976 
            560          373498 
            570          468262 
            580          483667 
            590          657832 
            600          847966 
            610      1.02894e+6 
            620      1.22084e+6 
            630      1.45642e+6 
            640      1.69197e+6 
            650      2.00206e+6 
            658      2.27858e+6 
            665      2.51957e+6 
            675      2.87675e+6 
            685      3.30335e+6 
            695      3.85063e+6 
            705      4.36711e+6 
            716      5.01651e+6 
            726       5.6527e+6 
            735      6.33311e+6 
            745      7.13039e+6 
            755      7.98301e+6 
            765      8.87066e+6 
            775      9.89077e+6 
            785      1.09542e+7 
            795      1.20614e+7 
            805      1.32856e+7 
            815      1.45508e+7 
            825      1.59537e+7 
            835       1.7184e+7 
            845      1.88954e+7 
            855      2.04416e+7 
            865      2.22516e+7 
            875      2.40541e+7 
            885       2.6022e+7 
            895      2.80036e+7 
            905      2.96991e+7 
            915       5.1117e+7 
            925      3.07526e+8 
            935      1.17566e+9 
            945       4.9699e+9 
            955      8.40968e+9 
            965     1.13404e+10 
            975      3.80762e+9 
            985     1.41711e+10 
            995      1.4068e+10 
           1005      1.4444e+10 
           1015     1.24089e+10 
           1025      2.78316e+9 
           1035     1.05831e+10 
           1045     1.44303e+10 
           1055     1.42047e+10 
           1065     1.30338e+10 
           1075     1.36367e+10 
           1085     1.27593e+10 
           1095     1.33992e+10 
           1105     1.25608e+10 
           1115      1.2508e+10 
           1125     1.18464e+10 
           1135     1.22249e+10 
           1145     1.14982e+10 
           1155     1.17857e+10 
           1165     1.16528e+10 
           1175     1.03273e+10 
           1185     1.11831e+10 
           1195     1.00626e+10 
           1205      7.73112e+9 
           1215      1.95744e+9 
           1225      7.67179e+9 
           1235      9.76265e+9 
           1245      9.87793e+9 
           1255      9.63671e+9 
           1265      9.48801e+9 
           1275      9.55018e+9 
           1285      9.36288e+9 
           1295      8.44135e+9 
           1305      8.36314e+9 
           1315      8.84861e+9 
           1325      8.56449e+9 
           1335      8.20625e+9 
           1345      8.29564e+9 
           1355      8.25264e+9 
           1365      7.99549e+9 
           1375      7.88539e+9 
           1385      7.80119e+9 
           1395      7.39898e+9 
           1405      7.38354e+9 
           1415      7.36007e+9 
           1425      7.25918e+9 
           1435      7.16568e+9 
           1442      7.12164e+9 
           1447       7.0511e+9 
           1455      6.94174e+9 
           1465       6.8064e+9 
           1475      6.69624e+9 
           1485      6.56348e+9 
           1495      6.45557e+9 
           1505      6.26711e+9 
           1512      6.19257e+9 
           1517      6.18325e+9 
           1525      6.08032e+9 
           1535      5.86833e+9 
           1545      5.86742e+9 
           1555      5.70541e+9 
           1565      5.70149e+9 
           1575      5.65119e+9 
           1585      5.55836e+9 
           1595      5.49081e+9 
           1605      5.33471e+9 
           1615      5.25224e+9 
           1625      5.21675e+9 
           1635      5.16159e+9 
           1645      5.05155e+9 
           1655      4.98698e+9 
           1665      4.94397e+9 
           1672      4.81763e+9 
           1677      4.86369e+9 
           1685      4.80209e+9 
           1695      4.70731e+9 
           1705      4.61584e+9 
           1715      4.51464e+9 
           1725      4.45903e+9 
           1735      4.41491e+9 
           1745      4.34169e+9 
           1755      4.30716e+9 
           1765      4.14868e+9 
           1775      4.14356e+9 
           1785      4.09667e+9 
           1795      4.06472e+9 
           1805      4.01021e+9 
           1815       3.9292e+9 
           1825       3.8909e+9 
           1835      3.83171e+9 
           1845      3.71071e+9 
           1855      3.61925e+9 
           1865      3.60004e+9 
           1875      3.60642e+9 
           1885       3.4793e+9 
           1895      3.37963e+9 
           1905       3.4276e+9 
           1915      3.32533e+9 
           1925       3.2742e+9 
           1935      3.27224e+9 
           1945      3.26148e+9 
           1955      3.14501e+9 
           1967      3.16547e+9 
           1976      3.15956e+9 
           1984      3.08188e+9 
           1995      3.00028e+9 
           2005      3.01607e+9 
           2015      2.99576e+9 
           2025      2.97304e+9 
           2035      2.90997e+9 
           2045      2.87266e+9 
           2055      2.79035e+9 
           2065      2.78088e+9 
           2074      2.79157e+9 
           2078      2.73573e+9 
           2085      2.73368e+9 
           2095      2.67391e+9 
           2105      2.66923e+9 
           2115      2.64413e+9 
           2125      2.62364e+9 
           2135      2.58689e+9 
           2145       2.5458e+9 
           2155      2.52385e+9 
           2165      2.49263e+9 
           2175      2.46004e+9 
           2185      2.43253e+9 
           2195      2.40635e+9 
           2205       2.3752e+9 
           2215      2.34597e+9 
           2225      2.31435e+9 
           2235      2.28856e+9 
           2245      2.26403e+9 
           2255      2.23392e+9 
           2265        2.211e+9 
           2275      2.18404e+9 
           2285      2.16042e+9 
           2295      2.12068e+9 
           2305      2.10855e+9 
           2315      2.08131e+9 
           2325      2.05864e+9 
           2335      2.02777e+9 
           2345      1.99969e+9 
           2355      1.98723e+9 
           2365      1.95955e+9 
           2375      1.93961e+9 
           2385      1.91132e+9 
           2395      1.89264e+9 
           2405      1.87218e+9 
           2415      1.84882e+9 
           2425      1.83553e+9 
           2435      1.81216e+9 
           2445      1.79251e+9 
           2455      1.77494e+9 
           2465      1.75319e+9 
           2475      1.73481e+9 
           2485      1.71557e+9 
           2495      1.67981e+9 
           2505      1.67759e+9 
           2513       1.6544e+9 
           2518       1.6523e+9 
           2525      1.63919e+9 
           2535      1.61977e+9 
           2545      1.59805e+9 
           2555       1.5888e+9 
           2565      1.56876e+9 
           2575      1.55621e+9 
           2585      1.53923e+9 
           2595      1.52246e+9 
           2605      1.51585e+9 
           2615      1.50141e+9 
           2625      1.48617e+9 
           2635      1.46672e+9 
           2645      1.45511e+9 
           2655      1.43776e+9 
           2665      1.41919e+9 
           2675      1.40465e+9 
           2685      1.39891e+9 
           2695      1.37376e+9 
           2705       1.3698e+9 
           2715      1.35529e+9 
           2725      1.33039e+9 
           2735      1.32788e+9 
           2745      1.30807e+9 
           2755      1.29601e+9 
           2765      1.27611e+9 
           2775      1.27495e+9 
           2785      1.26159e+9 
           2795      1.22798e+9 
           2805      1.22753e+9 
           2815      1.22453e+9 
           2825      1.19987e+9 
           2835      1.19081e+9 
           2845      1.18781e+9 
           2855      1.17631e+9 
           2865      1.16504e+9 
           2875      1.15335e+9 
           2885       1.1422e+9 
           2895      1.13104e+9 
           2910      1.11443e+9 
           2930      1.09202e+9 
           2950      1.06463e+9 
           2970      1.05153e+9 
           2990      1.03119e+9 
           3010      1.01204e+9 
           3030      9.93188e+8 
           3050      9.74657e+8 
           3070      9.56523e+8 
           3090       9.3842e+8 
           3110      9.21521e+8 
           3130      9.05744e+8 
           3150      8.89192e+8 
           3170      8.72758e+8 
           3190      8.50298e+8 
           3210      8.41491e+8 
           3230      8.26372e+8 
           3250      8.11596e+8 
           3270       7.9814e+8 
           3290      7.83105e+8 
           3310      7.70473e+8 
           3330      7.57101e+8 
           3350       7.4275e+8 
           3370      7.31207e+8 
           3390      7.18704e+8 
           3410      7.06443e+8 
           3430      6.91952e+8 
           3450       6.7816e+8 
           3470      6.68551e+8 
           3490      6.57322e+8 
           3510       6.4863e+8 
           3530       6.3864e+8 
           3550      6.28296e+8 
           3570      6.20685e+8 
           3590      6.07445e+8 
           3610      5.98652e+8 
           3630      5.87842e+8 
           3640      5.86379e+8 
           3650      5.81163e+8 
           3670      5.74259e+8 
           3690       5.6058e+8 
           3710      5.43522e+8 
           3730      5.26093e+8 
           3750       5.7212e+8 
           3770      5.80167e+8 
           3790      6.20141e+8 
           3810      6.53017e+8 
           3830      5.61746e+8 
           3850      6.77795e+8 
           3870      6.86881e+8 
           3890      5.31207e+8 
           3910      6.77113e+8 
           3930      6.68726e+8 
           3950      6.56322e+8 
           3970      4.94931e+8 
           3990      6.29669e+8 
           4010      6.27808e+8 
           4030      5.90324e+8 
           4050      6.14458e+8 
           4070      6.01474e+8 
           4090      5.47997e+8 
           4110      4.70864e+8 
           4130      5.63827e+8 
           4150      5.60331e+8 
           4170      5.56009e+8 
           4190      5.48825e+8 
           4210      5.40137e+8 
           4230       5.3142e+8 
           4250      5.22822e+8 
           4270      5.13452e+8 
           4290      5.05483e+8 
           4310      4.94516e+8 
           4330      4.41734e+8 
           4350      3.99675e+8 
           4370      4.70317e+8 
           4390      4.53414e+8 
           4410      4.60333e+8 
           4430      4.51271e+8 
           4450      4.46634e+8 
           4470       4.1938e+8 
           4490       4.3219e+8 
           4510      4.26606e+8 
           4530      4.20112e+8 
           4550      4.13715e+8 
           4570      4.07487e+8 
           4590      4.01476e+8 
           4610      3.95536e+8 
           4630      3.89666e+8 
           4650       3.8362e+8 
           4670      3.78234e+8 
           4690      3.72754e+8 
           4710      3.62361e+8 
           4730      3.61762e+8 
           4750      3.56351e+8 
           4770       3.5158e+8 
           4790      3.46483e+8 
           4810      3.40742e+8 
           4830      3.33856e+8 
           4850      3.04378e+8 
           4870      2.69003e+8 
           4890      3.18482e+8 
           4910      3.16659e+8 
           4930      3.05384e+8 
           4950      3.09117e+8 
           4970       3.0485e+8 
           4990      3.00611e+8 
           5010      2.92632e+8 
           5030      2.92335e+8 
           5050      2.86212e+8 
           5070      2.84413e+8 
           5090      2.80525e+8 
           5110      2.76703e+8 
           5130      2.72961e+8 
           5150      2.69268e+8 
           5170      2.65666e+8 
           5190      2.62098e+8 
           5210       2.5848e+8 
           5230      2.55157e+8 
           5250      2.51782e+8 
           5270       2.4845e+8 
           5290      2.45175e+8 
           5310      2.41955e+8 
           5330      2.38777e+8 
           5350      2.35639e+8 
           5370       2.3262e+8 
           5390        2.296e+8 
           5410      2.26644e+8 
           5430      2.23675e+8 
           5450      2.20831e+8 
           5470       2.1801e+8 
           5490       2.1525e+8 
           5510      2.12511e+8 
           5530      2.09819e+8 
           5550      2.07184e+8 
           5570       2.0457e+8 
           5590      2.02012e+8 
           5610      1.99461e+8 
           5630         1.97e+8 
           5650      1.94475e+8 
           5670      1.92098e+8 
           5690      1.89749e+8 
           5710       1.8744e+8 
           5730      1.85135e+8 
           5750       1.8287e+8 
           5770      1.80654e+8 
           5790      1.78453e+8 
           5810      1.76289e+8 
           5830      1.74161e+8 
           5850       1.7207e+8 
           5870      1.64864e+8 
           5890      1.67742e+8 
           5910      1.65962e+8 
           5930      1.63998e+8 
           5950      1.62035e+8 
           5970      1.60138e+8 
           5990      1.58241e+8 
           6010      1.56397e+8 
           6030      1.54563e+8 
           6050      1.52761e+8 
           6070      1.50978e+8 
           6090      1.49227e+8 
           6110      1.47505e+8 
           6130      1.45802e+8 
           6150      1.44118e+8 
           6170      1.42473e+8 
           6190      1.40845e+8 
           6210      1.39246e+8 
           6230      1.37664e+8 
           6250        1.361e+8 
           6270      1.34562e+8 
           6290      1.33051e+8 
           6310      1.31547e+8 
           6330      1.30087e+8 
           6350      1.28568e+8 
           6370      1.27167e+8 
           6390      1.25782e+8 
           6410      1.24384e+8 
           6430      1.23019e+8 
           6450      1.21669e+8 
           6470      1.20324e+8 
           6490      1.19011e+8 
           6510       1.1757e+8 
           6530      1.15755e+8 
           6550      1.09904e+8 
           6570      9.68511e+7 
           6590      1.11228e+8 
           6610      1.11168e+8 
           6630      1.10276e+8 
           6650       1.0917e+8 
           6670       1.0695e+8 
           6690       1.0584e+8 
           6710      1.05721e+8 
           6730      1.04602e+8 
           6750      1.03496e+8 
           6770      1.02408e+8 
           6790      1.01324e+8 
           6810      1.00267e+8 
           6830      9.92199e+7 
           6850      9.81837e+7 
           6870      9.71659e+7 
           6890      9.61582e+7 
           6910      9.51684e+7 
           6930      9.41806e+7 
           6950      9.32182e+7 
           6970      9.22574e+7 
           6990      9.13062e+7 
           7010      9.03796e+7 
           7030      8.94621e+7 
           7050      8.85535e+7 
           7070       8.6282e+7 
           7090      8.67702e+7 
           7110      8.58952e+7 
           7130      8.50361e+7 
           7150      8.41852e+7 
           7170      8.33278e+7 
           7190      8.25078e+7 
           7210      8.16883e+7 
           7230      8.08118e+7 
           7250      8.00799e+7 
           7270      7.92906e+7 
           7290      7.79062e+7 
           7310      7.77273e+7 
           7330      7.69741e+7 
           7350       7.6228e+7 
           7370       7.5482e+7 
           7390      7.47497e+7 
           7410      7.40243e+7 
           7430      7.33056e+7 
           7450      7.26139e+7 
           7470      7.19082e+7 
           7490      7.12226e+7 
           7510      7.05164e+7 
           7530      6.98633e+7 
           7550      6.91962e+7 
           7570      6.85418e+7 
           7590      6.78933e+7 
           7610      6.72507e+7 
           7630      6.66139e+7 
           7650      6.59828e+7 
           7670      6.53637e+7 
           7690      6.47503e+7 
           7710      6.41486e+7 
           7730      6.35523e+7 
           7750       6.2955e+7 
           7770       6.2343e+7 
           7790      6.17961e+7 
           7810      6.11897e+7 
           7830      6.06606e+7 
           7850      6.01581e+7 
           7870      5.96052e+7 
           7890      5.90268e+7 
           7910      5.85276e+7 
           7930      5.79937e+7 
           7950      5.74537e+7 
           7970      5.68532e+7 
           7990      5.63258e+7 
           8010      5.57988e+7 
           8030       5.5315e+7 
           8050      5.48312e+7 
           8070      5.43573e+7 
           8090      5.37832e+7 
           8110      5.33659e+7 
           8130      5.29378e+7 
           8150       5.2393e+7 
           8170      5.20081e+7 
           8190      5.14899e+7 
           8210      5.09705e+7 
           8230      5.06641e+7 
           8250      5.02406e+7 
           8270       4.9571e+7 
           8290      4.93277e+7 
           8310      4.89181e+7 
           8330      4.84783e+7 
           8350      4.78362e+7 
           8370      4.75557e+7 
           8390      4.72089e+7 
           8410      4.67763e+7 
           8430      4.63039e+7 
           8450      4.56391e+7 
           8470      4.53566e+7 
           8490      4.50559e+7 
           8510       4.4371e+7 
           8530      4.44024e+7 
           8550      4.29503e+7 
           8570      4.42776e+7 
           8590      4.21438e+7 
