# Kurucz ODFNEW /NOVER (2003)
# teff = 28000 K (value for the effective temperature for the model. Temperatures are given in K)
# logg = 3.5 log(cm/s2) (value for Log(G) for the model.)
# meta = -2.5  (value for the Metallicity for the model.)
# lh = 1.25  (l/Hp where l is the  mixing length of the convective element and Hp is the pressure scale height)
# vtur = 2 km/s (Microturbulence velocity)
# alpha = 0.4  (Alpha)
#
# column 1: WAVELENGTH (ANGSTROM), Wavelength in Angstrom
# column 2: FLUX (ERG/CM2/S/A), Flux in erg/cm2/s/A
          147.2     3.06821e-10 
            151      1.13947e-9 
          155.2       4.5163e-9 
          158.8      1.39204e-8 
            162      3.63308e-8 
            166      1.14512e-7 
          170.3      3.70792e-7 
          173.4      8.36127e-7 
          176.8      1.97414e-6 
          180.2      4.51154e-6 
          181.7      6.43289e-6 
          186.1      1.76501e-5 
            191      5.14467e-5 
          193.9      9.42865e-5 
          198.4     0.000233689 
          201.8     0.000452308 
            205     0.000824986 
          210.5      0.00220893 
          216.2      0.00584037 
          219.8       0.0105107 
            223       0.0173997 
          226.8       0.0310454 
            230          4.8972 
            234         13.9447 
            240          27.568 
          246.5         56.9382 
          252.4          106.19 
          256.8         131.432 
            260         218.291 
            264         303.833 
          268.5         459.335 
          273.5         700.857 
          278.5         1044.48 
            284         1632.73 
            290         2536.72 
            296          3844.6 
            301         5002.21 
            308         7211.41 
            318         16062.2 
            328         28294.3 
            338         49269.2 
            348         81680.1 
            357          125848 
            366          191574 
            375          276442 
            385          418501 
            395          609455 
            405          869653 
            414      1.18721e+6 
            422      1.52556e+6 
            430       1.9464e+6 
            441      2.69354e+6 
            451      3.57447e+6 
            460      4.50331e+6 
            470       5.8249e+6 
            480      7.38988e+6 
            490      9.26933e+6 
            500      1.15718e+7 
            506      1.01953e+8 
            512      3.00859e+8 
            520      3.06761e+8 
            530      3.33719e+8 
            540      3.17662e+8 
            550      3.71362e+8 
            560      3.96491e+8 
            570      4.23273e+8 
            580      4.04469e+8 
            590       4.6319e+8 
            600      4.86263e+8 
            610      5.18076e+8 
            620      5.46218e+8 
            630      5.80148e+8 
            640      5.96789e+8 
            650      6.38006e+8 
            658      6.60323e+8 
            665      6.83893e+8 
            675      7.08289e+8 
            685      7.25872e+8 
            695      7.92963e+8 
            705      8.03598e+8 
            716      8.64855e+8 
            726      8.97087e+8 
            735      9.40734e+8 
            745      9.80471e+8 
            755      1.01679e+9 
            765      1.05682e+9 
            775      1.10336e+9 
            785      1.15099e+9 
            795      1.18468e+9 
            805       1.2281e+9 
            815      1.26445e+9 
            825      1.31408e+9 
            835      1.30024e+9 
            845        1.392e+9 
            855      1.43173e+9 
            865      1.47661e+9 
            875      1.52099e+9 
            885      1.56464e+9 
            895      1.60629e+9 
            905        1.637e+9 
            915      2.80347e+9 
            925     2.00445e+10 
            935     3.15738e+10 
            945     4.46283e+10 
            955      4.7503e+10 
            965     5.26849e+10 
            975     3.59453e+10 
            985     5.01633e+10 
            995     4.76988e+10 
           1005     4.86715e+10 
           1015     4.72601e+10 
           1025     3.51305e+10 
           1035      4.5504e+10 
           1045     4.67555e+10 
           1055     4.58225e+10 
           1065     4.34946e+10 
           1075     4.33445e+10 
           1085     4.12595e+10 
           1095     4.25139e+10 
           1105     4.10568e+10 
           1115     4.03176e+10 
           1125     3.83538e+10 
           1135     3.92953e+10 
           1145     3.81148e+10 
           1155     3.76807e+10 
           1165      3.7192e+10 
           1175     3.31345e+10 
           1185     3.55555e+10 
           1195     3.45356e+10 
           1205     3.29114e+10 
           1215     2.42198e+10 
           1225      3.2812e+10 
           1235     3.26409e+10 
           1245     3.17323e+10 
           1255     3.15419e+10 
           1265      3.0984e+10 
           1275     3.04535e+10 
           1285     2.99038e+10 
           1295      2.8489e+10 
           1305     2.83306e+10 
           1315     2.82957e+10 
           1325     2.76663e+10 
           1335     2.68412e+10 
           1345     2.67351e+10 
           1355     2.63215e+10 
           1365     2.57734e+10 
           1375     2.53322e+10 
           1385     2.49166e+10 
           1395     2.35811e+10 
           1405     2.33344e+10 
           1415       2.351e+10 
           1425     2.30717e+10 
           1435     2.27605e+10 
           1442     2.25201e+10 
           1447      2.2309e+10 
           1455     2.19735e+10 
           1465     2.15956e+10 
           1475     2.12172e+10 
           1485     2.08692e+10 
           1495     2.04797e+10 
           1505     2.00604e+10 
           1512     1.98784e+10 
           1517     1.97017e+10 
           1525     1.93984e+10 
           1535     1.88507e+10 
           1545     1.83233e+10 
           1555     1.80214e+10 
           1565      1.7958e+10 
           1575     1.77641e+10 
           1585     1.74942e+10 
           1595     1.72103e+10 
           1605     1.67523e+10 
           1615     1.64646e+10 
           1625     1.61941e+10 
           1635     1.58853e+10 
           1645     1.51943e+10 
           1655     1.55312e+10 
           1665     1.52501e+10 
           1672     1.50674e+10 
           1677     1.50701e+10 
           1685     1.48477e+10 
           1695     1.45957e+10 
           1705     1.43343e+10 
           1715     1.40203e+10 
           1725     1.37911e+10 
           1735     1.36927e+10 
           1745     1.34582e+10 
           1755     1.32392e+10 
           1765     1.30135e+10 
           1775     1.28242e+10 
           1785      1.2636e+10 
           1795     1.24453e+10 
           1805     1.22685e+10 
           1815     1.20593e+10 
           1825     1.18698e+10 
           1835     1.16983e+10 
           1845     1.14556e+10 
           1855     1.11945e+10 
           1865      1.1064e+10 
           1875     1.09677e+10 
           1885     1.07371e+10 
           1895     1.04961e+10 
           1905     1.04578e+10 
           1915     1.02026e+10 
           1925     1.00397e+10 
           1935      9.95154e+9 
           1945      9.85176e+9 
           1955       9.6094e+9 
           1967      9.52921e+9 
           1976      9.43084e+9 
           1984      9.27559e+9 
           1995      9.06331e+9 
           2005      9.02158e+9 
           2015      8.90563e+9 
           2025      8.78436e+9 
           2035      8.63893e+9 
           2045      8.51303e+9 
           2055      7.79173e+9 
           2065      7.61821e+9 
           2074      7.68904e+9 
           2078      7.65187e+9 
           2085      7.84695e+9 
           2095      7.87866e+9 
           2105      7.80984e+9 
           2115      7.72202e+9 
           2125      7.61797e+9 
           2135      7.50959e+9 
           2145      7.40043e+9 
           2155      7.32404e+9 
           2165      7.19055e+9 
           2175      7.12434e+9 
           2185      6.99363e+9 
           2195      6.93044e+9 
           2205      6.83456e+9 
           2215      6.70841e+9 
           2225      6.64687e+9 
           2235       6.5551e+9 
           2245      6.46701e+9 
           2255      6.34829e+9 
           2265      6.29235e+9 
           2275      6.20739e+9 
           2285      6.12236e+9 
           2295      5.97142e+9 
           2305      5.93227e+9 
           2315      5.87959e+9 
           2325      5.80152e+9 
           2335      5.72367e+9 
           2345      5.64934e+9 
           2355      5.57484e+9 
           2365      5.50152e+9 
           2375      5.42904e+9 
           2385      5.33308e+9 
           2395      5.28634e+9 
           2405      5.21967e+9 
           2415      5.15147e+9 
           2425       5.0855e+9 
           2435      5.01903e+9 
           2445      4.95525e+9 
           2455      4.89196e+9 
           2465      4.82997e+9 
           2475      4.76814e+9 
           2485      4.70794e+9 
           2495      4.50536e+9 
           2505      4.58876e+9 
           2513       4.4914e+9 
           2518      4.50846e+9 
           2525       4.4754e+9 
           2535      4.41988e+9 
           2545      4.35857e+9 
           2555      4.30906e+9 
           2565      4.25714e+9 
           2575      4.20499e+9 
           2585      4.15352e+9 
           2595      4.10255e+9 
           2605      4.06956e+9 
           2615      4.01977e+9 
           2625       3.9693e+9 
           2635      3.91606e+9 
           2645      3.86916e+9 
           2655      3.81955e+9 
           2665      3.77068e+9 
           2675      3.72337e+9 
           2685      3.69287e+9 
           2695      3.63169e+9 
           2705      3.60536e+9 
           2715       3.5627e+9 
           2725      3.50169e+9 
           2735      3.46485e+9 
           2745       3.4384e+9 
           2755      3.39815e+9 
           2765      3.33784e+9 
           2775      3.31965e+9 
           2785      3.28089e+9 
           2795      3.23619e+9 
           2805      3.20415e+9 
           2815      3.16888e+9 
           2825      3.11042e+9 
           2835      3.08931e+9 
           2845      3.06144e+9 
           2855      3.02635e+9 
           2865      2.99204e+9 
           2875      2.95828e+9 
           2885      2.92508e+9 
           2895       2.8921e+9 
           2910      2.84354e+9 
           2930      2.78055e+9 
           2950      2.70531e+9 
           2970      2.65952e+9 
           2990      2.60143e+9 
           3010      2.54489e+9 
           3030      2.49007e+9 
           3050      2.43674e+9 
           3070      2.38491e+9 
           3090      2.33256e+9 
           3110      2.28489e+9 
           3130      2.23829e+9 
           3150      2.19139e+9 
           3170      2.14527e+9 
           3190      2.08732e+9 
           3210      2.05393e+9 
           3230      2.01521e+9 
           3250      1.97401e+9 
           3270      1.93563e+9 
           3290      1.89456e+9 
           3310      1.85877e+9 
           3330      1.82159e+9 
           3350      1.78286e+9 
           3370      1.75028e+9 
           3390      1.71602e+9 
           3410      1.68254e+9 
           3430      1.64398e+9 
           3450      1.60741e+9 
           3470      1.58042e+9 
           3490      1.54999e+9 
           3510      1.52583e+9 
           3530      1.49765e+9 
           3550      1.46967e+9 
           3570      1.44763e+9 
           3590      1.41384e+9 
           3610      1.38954e+9 
           3630      1.36143e+9 
           3640      1.35553e+9 
           3650       1.3355e+9 
           3670      1.31522e+9 
           3690      1.28177e+9 
           3710      1.24691e+9 
           3730      1.21159e+9 
           3750      1.27106e+9 
           3770       1.2632e+9 
           3790      1.28516e+9 
           3810       1.3174e+9 
           3830      1.19186e+9 
           3850       1.3118e+9 
           3870      1.29438e+9 
           3890      1.13631e+9 
           3910      1.26167e+9 
           3930      1.23489e+9 
           3950      1.21809e+9 
           3970      1.05251e+9 
           3990      1.17379e+9 
           4010      1.15302e+9 
           4030       1.1095e+9 
           4050      1.11968e+9 
           4070      1.09865e+9 
           4090      1.05485e+9 
           4110      9.55378e+8 
           4130       1.0365e+9 
           4150      1.02032e+9 
           4170      1.00807e+9 
           4190      9.92353e+8 
           4210       9.7487e+8 
           4230      9.59799e+8 
           4250      9.43591e+8 
           4270      9.27686e+8 
           4290      9.12587e+8 
           4310      8.96796e+8 
           4330      8.52604e+8 
           4350      7.90768e+8 
           4370      8.53302e+8 
           4390      8.29105e+8 
           4410      8.26716e+8 
           4430      8.11878e+8 
           4450      8.00944e+8 
           4470      7.69715e+8 
           4490      7.75655e+8 
           4510      7.63494e+8 
           4530      7.51498e+8 
           4550      7.38573e+8 
           4570      7.27992e+8 
           4590      7.16601e+8 
           4610      7.05646e+8 
           4630      6.94766e+8 
           4650      6.82774e+8 
           4670      6.73414e+8 
           4690      6.59822e+8 
           4710      6.47114e+8 
           4730      6.43388e+8 
           4750       6.3364e+8 
           4770      6.24165e+8 
           4790       6.1481e+8 
           4810      6.05604e+8 
           4830      5.95997e+8 
           4850      5.71985e+8 
           4870      5.23424e+8 
           4890      5.69456e+8 
           4910      5.62154e+8 
           4930      5.46132e+8 
           4950      5.45833e+8 
           4970      5.38017e+8 
           4990      5.30233e+8 
           5010      5.18083e+8 
           5030      5.15088e+8 
           5050      5.05699e+8 
           5070        5.005e+8 
           5090      4.93376e+8 
           5110      4.86405e+8 
           5130      4.79542e+8 
           5150      4.72799e+8 
           5170       4.6616e+8 
           5190      4.59665e+8 
           5210       4.5327e+8 
           5230      4.46986e+8 
           5250      4.40813e+8 
           5270      4.34747e+8 
           5290      4.28787e+8 
           5310      4.22917e+8 
           5330       4.1715e+8 
           5350      4.11484e+8 
           5370      4.05916e+8 
           5390      4.00432e+8 
           5410      3.94607e+8 
           5430      3.89763e+8 
           5450      3.84561e+8 
           5470      3.79438e+8 
           5490      3.74403e+8 
           5510      3.69457e+8 
           5530      3.64584e+8 
           5550      3.59796e+8 
           5570       3.5508e+8 
           5590      3.50446e+8 
           5610      3.45881e+8 
           5630      3.41395e+8 
           5650      3.36988e+8 
           5670      3.32635e+8 
           5690      3.28276e+8 
           5710      3.24108e+8 
           5730      3.20002e+8 
           5750      3.15911e+8 
           5770      3.11949e+8 
           5790      3.07999e+8 
           5810      3.04119e+8 
           5830      3.00285e+8 
           5850       2.9654e+8 
           5870      2.86344e+8 
           5890      2.89051e+8 
           5910      2.85599e+8 
           5930      2.82068e+8 
           5950       2.7859e+8 
           5970      2.75173e+8 
           5990      2.71795e+8 
           6010      2.68466e+8 
           6030      2.65196e+8 
           6050      2.61974e+8 
           6070      2.58798e+8 
           6090      2.55679e+8 
           6110      2.52595e+8 
           6130      2.49566e+8 
           6150      2.46581e+8 
           6170      2.43629e+8 
           6190       2.4074e+8 
           6210      2.37883e+8 
           6230      2.35067e+8 
           6250      2.32292e+8 
           6270      2.29557e+8 
           6290      2.26871e+8 
           6310      2.24215e+8 
           6330      2.21606e+8 
           6350      2.19026e+8 
           6370      2.16492e+8 
           6390      2.13986e+8 
           6410      2.11516e+8 
           6430       2.0909e+8 
           6450      2.06691e+8 
           6470      2.04326e+8 
           6490      2.02004e+8 
           6510      1.99707e+8 
           6530      1.97311e+8 
           6550      1.92393e+8 
           6570      1.75435e+8 
           6590      1.90351e+8 
           6610      1.88701e+8 
           6630      1.86595e+8 
           6650      1.84606e+8 
           6670      1.81265e+8 
           6690      1.79248e+8 
           6710      1.78533e+8 
           6730      1.76558e+8 
           6750      1.74629e+8 
           6770      1.72719e+8 
           6790      1.70829e+8 
           6810      1.68966e+8 
           6830       1.6713e+8 
           6850      1.65312e+8 
           6870      1.63529e+8 
           6890      1.61756e+8 
           6910      1.60024e+8 
           6930      1.58309e+8 
           6950      1.56619e+8 
           6970      1.54946e+8 
           6990       1.5329e+8 
           7010      1.51673e+8 
           7030      1.50064e+8 
           7050      1.48486e+8 
           7070      1.44911e+8 
           7090      1.45376e+8 
           7110      1.43852e+8 
           7130      1.42349e+8 
           7150      1.40869e+8 
           7170      1.39373e+8 
           7190      1.37957e+8 
           7210      1.36534e+8 
           7230      1.35102e+8 
           7250      1.33734e+8 
           7270      1.32365e+8 
           7290      1.30073e+8 
           7310      1.29658e+8 
           7330      1.28356e+8 
           7350      1.27051e+8 
           7370      1.25766e+8 
           7390      1.24493e+8 
           7410      1.23239e+8 
           7430      1.21996e+8 
           7450      1.20786e+8 
           7470      1.19579e+8 
           7490      1.18384e+8 
           7510      1.17173e+8 
           7530      1.16047e+8 
           7550      1.14897e+8 
           7570      1.13759e+8 
           7590       1.1263e+8 
           7610      1.11532e+8 
           7630      1.10436e+8 
           7650      1.09358e+8 
           7670      1.08289e+8 
           7690      1.07229e+8 
           7710      1.06192e+8 
           7730      1.05164e+8 
           7750      1.04139e+8 
           7770      1.03142e+8 
           7790      1.02147e+8 
           7810      1.01112e+8 
           7830      1.00197e+8 
           7850      9.93261e+7 
           7870      9.83779e+7 
           7890      9.73956e+7 
           7910      9.65184e+7 
           7930      9.56008e+7 
           7950      9.46853e+7 
           7970      9.36769e+7 
           7990      9.28249e+7 
           8010       9.1904e+7 
           8030       9.1067e+7 
           8050       9.0243e+7 
           8070      8.94318e+7 
           8090      8.84721e+7 
           8110      8.76926e+7 
           8130      8.69938e+7 
           8150      8.60399e+7 
           8170      8.54047e+7 
           8190      8.45556e+7 
           8210      8.35964e+7 
           8230      8.30293e+7 
           8250      8.23117e+7 
           8270      8.12145e+7 
           8290      8.07354e+7 
           8310      8.00254e+7 
           8330      7.92833e+7 
           8350      7.82501e+7 
           8370      7.77153e+7 
           8390      7.70937e+7 
           8410      7.63759e+7 
           8430      7.56057e+7 
           8450      7.45782e+7 
           8470      7.40269e+7 
           8490      7.36472e+7 
           8510      7.24379e+7 
           8530      7.25439e+7 
           8550      7.03084e+7 
           8570      7.20939e+7 
