# Kurucz ODFNEW /NOVER (2003)
# teff = 25000 K (value for the effective temperature for the model. Temperatures are given in K)
# logg = 4.5 log(cm/s2) (value for Log(G) for the model.)
# meta = -2.5  (value for the Metallicity for the model.)
# lh = 1.25  (l/Hp where l is the  mixing length of the convective element and Hp is the pressure scale height)
# vtur = 2 km/s (Microturbulence velocity)
# alpha = 0  (Alpha)
#
# column 1: WAVELENGTH (ANGSTROM), Wavelength in Angstrom
# column 2: FLUX (ERG/CM2/S/A), Flux in erg/cm2/s/A
          147.2     5.25109e-14 
            151     2.59981e-13 
          155.2     1.38855e-12 
          158.8      5.4334e-12 
            162      1.7345e-11 
            166     6.93824e-11 
          170.3     2.85813e-10 
          173.4     7.58206e-10 
          176.8      2.12227e-9 
          180.2      5.70639e-9 
          181.7        8.721e-9 
          186.1      2.90434e-8 
            191      1.03618e-7 
          193.9      2.13108e-7 
          198.4      6.24559e-7 
          201.8      1.36128e-6 
            205      2.76454e-6 
          210.5      8.86087e-6 
          216.2      2.77406e-5 
          219.8      5.52313e-5 
            223      9.98698e-5 
          226.8     0.000197218 
            230     0.000739785 
            234       0.0015909 
            240      0.00395631 
          246.5       0.0100887 
          252.4       0.0227679 
          256.8       0.0396191 
            260       0.0607281 
            264       0.0993985 
          268.5        0.169714 
          273.5        0.300886 
          278.5        0.522772 
            284        0.937013 
            290         1.72395 
            296         3.08716 
            301         4.92362 
            308         9.08108 
            318         21.5016 
            328         47.3958 
            338         99.3662 
            348         199.069 
            357          358.76 
            366         627.151 
            375         1063.82 
            385         1855.19 
            395         3135.53 
            405         5152.14 
            414         7876.99 
            422         11291.5 
            430         15943.3 
            441           25070 
            451         37013.4 
            460         51707.7 
            470         73725.7 
            480          103354 
            490          142675 
            500          194031 
            506      1.05773e+6 
            512      3.34832e+6 
            520      4.04775e+6 
            530      5.41181e+6 
            540      5.77975e+6 
            550      7.68167e+6 
            560      8.91813e+6 
            570      1.04675e+7 
            580      1.05975e+7 
            590      1.33614e+7 
            600      1.58488e+7 
            610      1.81106e+7 
            620      2.04624e+7 
            630      2.31353e+7 
            640      2.57309e+7 
            650      2.90389e+7 
            658      3.17419e+7 
            665      3.41627e+7 
            675      3.74799e+7 
            685      4.11739e+7 
            695      4.61099e+7 
            705      5.04004e+7 
            716      5.55957e+7 
            726      6.05546e+7 
            735      6.56652e+7 
            745      7.13717e+7 
            755      7.72922e+7 
            765      8.33829e+7 
            775      8.99384e+7 
            785      9.66912e+7 
            795      1.03561e+8 
            805      1.10834e+8 
            815      1.18244e+8 
            825      1.26149e+8 
            835      1.32666e+8 
            845      1.42224e+8 
            855      1.50321e+8 
            865      1.59493e+8 
            875      1.68642e+8 
            885      1.77911e+8 
            895      1.87277e+8 
            905      1.95282e+8 
            915       2.8338e+8 
            925      1.62747e+9 
            935      4.75402e+9 
            945     1.55653e+10 
            955     2.33351e+10 
            965     3.15053e+10 
            975     1.26232e+10 
            985     3.72289e+10 
            995     3.61187e+10 
           1005     3.73885e+10 
           1015     3.24319e+10 
           1025       9.2294e+9 
           1035     2.89345e+10 
           1045     3.49847e+10 
           1055     3.44329e+10 
           1065     3.23405e+10 
           1075     3.25097e+10 
           1085     3.01092e+10 
           1095     3.14033e+10 
           1105      3.0126e+10 
           1115     2.94747e+10 
           1125     2.80172e+10 
           1135     2.82647e+10 
           1145     2.71901e+10 
           1155     2.70359e+10 
           1165     2.64269e+10 
           1175     2.35906e+10 
           1185     2.49656e+10 
           1195     2.34956e+10 
           1205     2.01199e+10 
           1215      6.34039e+9 
           1225     1.89122e+10 
           1235     2.18446e+10 
           1245     2.15816e+10 
           1255     2.13594e+10 
           1265     2.08126e+10 
           1275      2.0568e+10 
           1285     2.01147e+10 
           1295     1.90202e+10 
           1305     1.88428e+10 
           1315     1.88251e+10 
           1325     1.82201e+10 
           1335      1.7607e+10 
           1345     1.76042e+10 
           1355      1.7293e+10 
           1365     1.68824e+10 
           1375     1.65465e+10 
           1385     1.62149e+10 
           1395     1.55789e+10 
           1405     1.53478e+10 
           1415     1.52141e+10 
           1425     1.49256e+10 
           1435     1.46462e+10 
           1442     1.44611e+10 
           1447     1.43109e+10 
           1455     1.40823e+10 
           1465     1.37934e+10 
           1475     1.35293e+10 
           1485     1.32631e+10 
           1495     1.30077e+10 
           1505     1.27057e+10 
           1512     1.25382e+10 
           1517     1.24338e+10 
           1525     1.22373e+10 
           1535     1.18946e+10 
           1545     1.16799e+10 
           1555     1.14255e+10 
           1565     1.13398e+10 
           1575      1.1157e+10 
           1585     1.09569e+10 
           1595     1.07644e+10 
           1605     1.04935e+10 
           1615     1.03023e+10 
           1625     1.01787e+10 
           1635     1.00036e+10 
           1645      9.68308e+9 
           1655      9.66559e+9 
           1665       9.5092e+9 
           1672      9.36492e+9 
           1677      9.32524e+9 
           1685      9.19139e+9 
           1695      9.02045e+9 
           1705      8.85546e+9 
           1715      8.68474e+9 
           1725      8.54762e+9 
           1735      8.41796e+9 
           1745      8.27152e+9 
           1755      8.14805e+9 
           1765      7.94654e+9 
           1775       7.8563e+9 
           1785      7.74606e+9 
           1795      7.62819e+9 
           1805      7.51187e+9 
           1815      7.37717e+9 
           1825      7.26329e+9 
           1835      7.14686e+9 
           1845      6.98649e+9 
           1855      6.79871e+9 
           1865      6.72426e+9 
           1875      6.69366e+9 
           1885       6.5238e+9 
           1895       6.3669e+9 
           1905      6.36003e+9 
           1915      6.19167e+9 
           1925       6.0966e+9 
           1935      6.04421e+9 
           1945      5.99059e+9 
           1955      5.82567e+9 
           1967      5.79394e+9 
           1976        5.741e+9 
           1984      5.63583e+9 
           1995      5.49709e+9 
           2005      5.48578e+9 
           2015      5.42108e+9 
           2025      5.35095e+9 
           2035      5.25755e+9 
           2045      5.18067e+9 
           2055      5.06463e+9 
           2065       4.9808e+9 
           2074      4.96946e+9 
           2078      4.88447e+9 
           2085       4.8779e+9 
           2095      4.79368e+9 
           2105      4.75913e+9 
           2115      4.70219e+9 
           2125      4.64327e+9 
           2135      4.57632e+9 
           2145      4.50836e+9 
           2155      4.45113e+9 
           2165      4.39138e+9 
           2175      4.32983e+9 
           2185      4.27213e+9 
           2195      4.21578e+9 
           2205      4.15857e+9 
           2215      4.10283e+9 
           2225      4.04709e+9 
           2235      3.99255e+9 
           2245      3.94106e+9 
           2255      3.88737e+9 
           2265       3.8377e+9 
           2275      3.78722e+9 
           2285      3.73827e+9 
           2295       3.6665e+9 
           2305      3.64085e+9 
           2315       3.5933e+9 
           2325      3.54733e+9 
           2335      3.50077e+9 
           2345      3.45632e+9 
           2355      3.41358e+9 
           2365      3.36968e+9 
           2375      3.32694e+9 
           2385      3.28413e+9 
           2395       3.2433e+9 
           2405       3.2031e+9 
           2415      3.16261e+9 
           2425       3.1246e+9 
           2435      3.08526e+9 
           2445      3.04735e+9 
           2455      3.01045e+9 
           2465      2.97324e+9 
           2475      2.93714e+9 
           2485      2.90111e+9 
           2495      2.84098e+9 
           2505      2.83089e+9 
           2513      2.79816e+9 
           2518      2.78682e+9 
           2525      2.76348e+9 
           2535      2.73034e+9 
           2545      2.69602e+9 
           2555      2.66589e+9 
           2565      2.63444e+9 
           2575       2.6039e+9 
           2585      2.57331e+9 
           2595      2.54317e+9 
           2605      2.53217e+9 
           2615      2.50271e+9 
           2625       2.4735e+9 
           2635      2.44164e+9 
           2645      2.41255e+9 
           2655      2.38121e+9 
           2665      2.34878e+9 
           2675      2.31893e+9 
           2685      2.30817e+9 
           2695      2.26348e+9 
           2705      2.25589e+9 
           2715      2.23036e+9 
           2725      2.18591e+9 
           2735      2.18023e+9 
           2745      2.15513e+9 
           2755      2.13142e+9 
           2765      2.08868e+9 
           2775      2.08495e+9 
           2785      2.06175e+9 
           2795      2.03232e+9 
           2805      2.01488e+9 
           2815      1.99465e+9 
           2825      1.94949e+9 
           2835      1.93787e+9 
           2845      1.93019e+9 
           2855      1.90929e+9 
           2865      1.88869e+9 
           2875      1.86837e+9 
           2885      1.84834e+9 
           2895      1.82853e+9 
           2910      1.79936e+9 
           2930      1.76132e+9 
           2950      1.71051e+9 
           2970      1.68853e+9 
           2990      1.65342e+9 
           3010      1.61938e+9 
           3030      1.58633e+9 
           3050      1.55402e+9 
           3070      1.52256e+9 
           3090      1.49167e+9 
           3110      1.46199e+9 
           3130      1.43449e+9 
           3150      1.40604e+9 
           3170      1.37789e+9 
           3190      1.33842e+9 
           3210      1.32413e+9 
           3230      1.29818e+9 
           3250      1.27284e+9 
           3270      1.24999e+9 
           3290      1.22422e+9 
           3310      1.20287e+9 
           3330      1.18017e+9 
           3350      1.15572e+9 
           3370      1.13637e+9 
           3390      1.11523e+9 
           3410      1.09461e+9 
           3430      1.06949e+9 
           3450      1.04589e+9 
           3470      1.03008e+9 
           3490      1.01132e+9 
           3510      9.95389e+8 
           3530      9.79637e+8 
           3550      9.62442e+8 
           3570      9.51186e+8 
           3590      9.27698e+8 
           3610      9.14354e+8 
           3630      8.95529e+8 
           3640      8.94511e+8 
           3650      8.84978e+8 
           3670      8.73653e+8 
           3690       8.5707e+8 
           3710      8.27326e+8 
           3730      7.92212e+8 
           3750      8.12128e+8 
           3770      8.06768e+8 
           3790      8.53904e+8 
           3810      8.94506e+8 
           3830      7.73188e+8 
           3850      9.25398e+8 
           3870      9.41591e+8 
           3890      7.28633e+8 
           3910      9.26884e+8 
           3930      9.20597e+8 
           3950      8.98018e+8 
           3970      6.77763e+8 
           3990      8.59231e+8 
           4010      8.60006e+8 
           4030      8.03243e+8 
           4050      8.42183e+8 
           4070      8.23511e+8 
           4090      7.43388e+8 
           4110      6.42122e+8 
           4130       7.6994e+8 
           4150      7.65096e+8 
           4170      7.60331e+8 
           4190      7.49892e+8 
           4210      7.37428e+8 
           4230      7.25123e+8 
           4250      7.13059e+8 
           4270      7.00589e+8 
           4290      6.87951e+8 
           4310      6.71705e+8 
           4330      5.95991e+8 
           4350      5.40949e+8 
           4370      6.37151e+8 
           4390      6.12397e+8 
           4410      6.24599e+8 
           4430      6.12119e+8 
           4450      6.05373e+8 
           4470      5.63655e+8 
           4490      5.85722e+8 
           4510      5.77445e+8 
           4530      5.68411e+8 
           4550      5.59512e+8 
           4570      5.50819e+8 
           4590      5.42328e+8 
           4610      5.33999e+8 
           4630      5.25793e+8 
           4650      5.17621e+8 
           4670      5.09863e+8 
           4690      5.01961e+8 
           4710      4.87603e+8 
           4730      4.87075e+8 
           4750      4.79692e+8 
           4770      4.72681e+8 
           4790      4.65606e+8 
           4810      4.57297e+8 
           4830      4.47268e+8 
           4850       4.0539e+8 
           4870      3.59814e+8 
           4890      4.25505e+8 
           4910      4.23702e+8 
           4930      4.07049e+8 
           4950      4.13853e+8 
           4970      4.07936e+8 
           4990      4.02085e+8 
           5010      3.90836e+8 
           5030      3.90713e+8 
           5050      3.82572e+8 
           5070      3.79735e+8 
           5090      3.74401e+8 
           5110      3.69154e+8 
           5130       3.6399e+8 
           5150      3.58925e+8 
           5170      3.53954e+8 
           5190      3.49064e+8 
           5210      3.44251e+8 
           5230      3.39544e+8 
           5250      3.34898e+8 
           5270       3.3034e+8 
           5290      3.25854e+8 
           5310       3.2144e+8 
           5330      3.17109e+8 
           5350      3.12848e+8 
           5370      3.08667e+8 
           5390      3.04539e+8 
           5410      3.00489e+8 
           5430      2.96504e+8 
           5450      2.92594e+8 
           5470      2.88733e+8 
           5490      2.84946e+8 
           5510      2.81218e+8 
           5530      2.77562e+8 
           5550      2.73951e+8 
           5570      2.70408e+8 
           5590      2.66909e+8 
           5610      2.63478e+8 
           5630      2.60099e+8 
           5650      2.56774e+8 
           5670      2.53501e+8 
           5690      2.50279e+8 
           5710       2.4712e+8 
           5730      2.44009e+8 
           5750      2.40936e+8 
           5770      2.37922e+8 
           5790      2.34944e+8 
           5810      2.32023e+8 
           5830      2.29137e+8 
           5850      2.26307e+8 
           5870      2.15726e+8 
           5890      2.20312e+8 
           5910      2.18058e+8 
           5930        2.154e+8 
           5950      2.12773e+8 
           5970      2.10187e+8 
           5990      2.07642e+8 
           6010      2.05135e+8 
           6030      2.02668e+8 
           6050       2.0024e+8 
           6070      1.97849e+8 
           6090      1.95495e+8 
           6110      1.93168e+8 
           6130      1.90887e+8 
           6150      1.88631e+8 
           6170      1.86411e+8 
           6190      1.84225e+8 
           6210      1.82063e+8 
           6230      1.79945e+8 
           6250       1.7785e+8 
           6270      1.75788e+8 
           6290      1.73757e+8 
           6310      1.71749e+8 
           6330      1.69773e+8 
           6350      1.67827e+8 
           6370      1.65911e+8 
           6390      1.64016e+8 
           6410      1.62151e+8 
           6430      1.60314e+8 
           6450      1.58507e+8 
           6470      1.56718e+8 
           6490      1.54958e+8 
           6510       1.5294e+8 
           6530      1.50441e+8 
           6550      1.42359e+8 
           6570      1.25713e+8 
           6590      1.44348e+8 
           6610      1.44382e+8 
           6630      1.43272e+8 
           6650      1.41832e+8 
           6670      1.38578e+8 
           6690      1.37102e+8 
           6710      1.37232e+8 
           6730      1.35744e+8 
           6750      1.34271e+8 
           6770      1.32821e+8 
           6790      1.31386e+8 
           6810      1.29974e+8 
           6830      1.28584e+8 
           6850      1.27208e+8 
           6870      1.25853e+8 
           6890      1.24521e+8 
           6910      1.23201e+8 
           6930      1.21895e+8 
           6950       1.2061e+8 
           6970      1.19345e+8 
           6990      1.18092e+8 
           7010      1.16859e+8 
           7030      1.15639e+8 
           7050      1.14438e+8 
           7070      1.11259e+8 
           7090      1.12079e+8 
           7110       1.1092e+8 
           7130       1.0978e+8 
           7150      1.08651e+8 
           7170      1.07518e+8 
           7190       1.0644e+8 
           7210      1.05357e+8 
           7230      1.04249e+8 
           7250       1.0323e+8 
           7270      1.02185e+8 
           7290      1.00257e+8 
           7310      1.00125e+8 
           7330       9.9138e+7 
           7350       9.8146e+7 
           7370      9.71632e+7 
           7390      9.61965e+7 
           7410      9.52388e+7 
           7430      9.42968e+7 
           7450      9.33772e+7 
           7470      9.24593e+7 
           7490      9.15498e+7 
           7510      9.06153e+7 
           7530      8.97625e+7 
           7550       8.8891e+7 
           7570      8.80209e+7 
           7590      8.71718e+7 
           7610      8.63239e+7 
           7630      8.54902e+7 
           7650      8.46639e+7 
           7670      8.38516e+7 
           7690      8.30465e+7 
           7710      8.22549e+7 
           7730      8.14705e+7 
           7750       8.0693e+7 
           7770      7.99225e+7 
           7790      7.91712e+7 
           7810      7.83709e+7 
           7830      7.76823e+7 
           7850      7.70363e+7 
           7870      7.63107e+7 
           7890       7.5543e+7 
           7910      7.48906e+7 
           7930      7.41958e+7 
           7950      7.34593e+7 
           7970      7.26285e+7 
           7990      7.19762e+7 
           8010      7.12884e+7 
           8030      7.06241e+7 
           8050      6.99771e+7 
           8070       6.9353e+7 
           8090      6.86364e+7 
           8110       6.8115e+7 
           8130      6.75295e+7 
           8150      6.68411e+7 
           8170      6.63337e+7 
           8190       6.5645e+7 
           8210      6.49847e+7 
           8230      6.45858e+7 
           8250      6.40239e+7 
           8270      6.31253e+7 
           8290       6.2843e+7 
           8310      6.23117e+7 
           8330      6.17251e+7 
           8350      6.08516e+7 
           8370      6.05343e+7 
           8390      6.00962e+7 
           8410      5.95656e+7 
           8430      5.89865e+7 
           8450      5.80428e+7 
           8470      5.79265e+7 
           8490      5.72776e+7 
           8510      5.67954e+7 
           8530      5.62757e+7 
           8550      5.53531e+7 
           8570      5.58234e+7 
