# Kurucz ODFNEW /NOVER (2003)
# teff = 24000 K (value for the effective temperature for the model. Temperatures are given in K)
# logg = 4 log(cm/s2) (value for Log(G) for the model.)
# meta = 0.2  (value for the Metallicity for the model.)
# lh = 1.25  (l/Hp where l is the  mixing length of the convective element and Hp is the pressure scale height)
# vtur = 2 km/s (Microturbulence velocity)
# alpha = 0.4  (Alpha)
#
# column 1: WAVELENGTH (ANGSTROM), Wavelength in Angstrom
# column 2: FLUX (ERG/CM2/S/A), Flux in erg/cm2/s/A
          147.2     2.40439e-15 
            151      1.0624e-14 
          155.2      5.0645e-14 
          158.8     1.81557e-13 
            162     5.40547e-13 
            166     1.99972e-12 
          170.3     7.61601e-12 
          173.4      1.9368e-11 
          176.8     5.18002e-11 
          180.2     1.33837e-10 
          181.7     2.01128e-10 
          186.1     6.44351e-10 
            191      2.22417e-9 
          193.9      4.49975e-9 
          198.4       1.2933e-8 
          201.8      2.78935e-8 
            205      5.62687e-8 
          210.5      1.79572e-7 
          216.2      5.63799e-7 
          219.8      1.12858e-6 
            223      2.05474e-6 
          226.8      4.10227e-6 
            230      0.00011596 
            234     0.000269764 
            240     0.000671049 
          246.5      0.00171308 
          252.4      0.00389912 
          256.8      0.00675752 
            260       0.0108945 
            264       0.0176241 
          268.5       0.0305267 
          273.5       0.0543723 
          278.5       0.0956999 
            284         0.18722 
            290         0.34578 
            296        0.627553 
            301         1.00797 
            308         2.03154 
            318          5.0282 
            328         11.0245 
            338         24.6524 
            348         50.8148 
            357         248.682 
            366         509.033 
            375          808.11 
            385         1405.13 
            395            2642 
            405         4171.87 
            414         6430.71 
            422         9021.16 
            430         12975.9 
            441         20093.6 
            451           28838 
            460         38981.5 
            470         55856.2 
            480         77178.8 
            490          107265 
            500          144797 
            506          754648 
            512      7.05822e+6 
            520      8.01804e+6 
            530       9.8014e+6 
            540      1.03063e+7 
            550      1.56097e+7 
            560      1.86286e+7 
            570      2.26896e+7 
            580      2.17112e+7 
            590      2.96308e+7 
            600      3.32882e+7 
            610      3.98527e+7 
            620      4.32504e+7 
            630      4.59659e+7 
            640      4.18468e+7 
            650      2.98209e+7 
            658      4.83237e+7 
            665      6.11703e+7 
            675      6.57661e+7 
            685      6.82782e+7 
            695        9.027e+7 
            705      9.19037e+7 
            716      1.05077e+8 
            726      1.08185e+8 
            735      1.15301e+8 
            745      1.32379e+8 
            755      1.42047e+8 
            765       1.5393e+8 
            775      1.65726e+8 
            785      1.78031e+8 
            795      1.84042e+8 
            805      1.92782e+8 
            815      2.00064e+8 
            825      2.18928e+8 
            835      1.87191e+8 
            845      2.27576e+8 
            855      2.34317e+8 
            865      2.50983e+8 
            875      2.67127e+8 
            885      2.91326e+8 
            895      3.06294e+8 
            905      3.00629e+8 
            915      4.41172e+8 
            925      3.11396e+9 
            935      7.75285e+9 
            945     1.55965e+10 
            955      2.0404e+10 
            965     2.31752e+10 
            975      3.44723e+9 
            985     1.81534e+10 
            995     1.83965e+10 
           1005     2.28311e+10 
           1015     2.33569e+10 
           1025     1.15996e+10 
           1035     1.75418e+10 
           1045     2.90292e+10 
           1055     2.63698e+10 
           1065     1.92785e+10 
           1075     2.36204e+10 
           1085      2.1345e+10 
           1095     2.44514e+10 
           1105     2.04544e+10 
           1115     1.81176e+10 
           1125     1.40494e+10 
           1135     2.17166e+10 
           1145     1.89416e+10 
           1155     1.99347e+10 
           1165     2.00663e+10 
           1175     1.11873e+10 
           1185      1.9061e+10 
           1195     1.58522e+10 
           1205       7.2597e+9 
           1215      8.18139e+9 
           1225     1.52775e+10 
           1235     1.87719e+10 
           1245     1.83318e+10 
           1255     1.79478e+10 
           1265     1.81254e+10 
           1275     1.87606e+10 
           1285     1.86135e+10 
           1295      9.95544e+9 
           1305     1.09668e+10 
           1315     1.78813e+10 
           1325     1.65236e+10 
           1335     1.58703e+10 
           1345     1.61973e+10 
           1355     1.60703e+10 
           1365     1.40932e+10 
           1375     1.36464e+10 
           1385     1.29165e+10 
           1395      7.85062e+9 
           1405      9.22632e+9 
           1415     1.13819e+10 
           1425     1.15975e+10 
           1435     1.20979e+10 
           1442     1.25683e+10 
           1447     1.23305e+10 
           1455     1.18536e+10 
           1465     1.07285e+10 
           1475     1.10711e+10 
           1485     1.08414e+10 
           1495     1.06178e+10 
           1505      9.35343e+9 
           1512      8.35212e+9 
           1517      8.69758e+9 
           1525      9.09367e+9 
           1535      7.55913e+9 
           1545      7.32176e+9 
           1555      7.14968e+9 
           1565      7.76954e+9 
           1575      8.34397e+9 
           1585      8.37053e+9 
           1595      8.30396e+9 
           1605      8.53936e+9 
           1615      8.37992e+9 
           1625      8.12673e+9 
           1635      8.73592e+9 
           1645      8.74656e+9 
           1655      8.51767e+9 
           1665      8.77605e+9 
           1672      8.33537e+9 
           1677      9.13489e+9 
           1685      8.89589e+9 
           1695      8.31184e+9 
           1705      8.04019e+9 
           1715      7.52748e+9 
           1725      7.41311e+9 
           1735      7.80535e+9 
           1745       7.6043e+9 
           1755      7.63996e+9 
           1765      7.51361e+9 
           1775      6.96787e+9 
           1785      7.10237e+9 
           1795      7.46438e+9 
           1805      7.54679e+9 
           1815      6.55869e+9 
           1825      6.93324e+9 
           1835       6.6274e+9 
           1845      6.00084e+9 
           1855      6.04449e+9 
           1865      6.12162e+9 
           1875      6.50335e+9 
           1885       5.7265e+9 
           1895      5.31289e+9 
           1905      5.85769e+9 
           1915      5.40363e+9 
           1925      5.12215e+9 
           1935      5.50058e+9 
           1945      5.56676e+9 
           1955      4.99967e+9 
           1967      5.54254e+9 
           1976      5.79136e+9 
           1984      5.32909e+9 
           1995      5.23774e+9 
           2005         5.49e+9 
           2015      5.35808e+9 
           2025      5.55362e+9 
           2035      5.01803e+9 
           2045      5.16851e+9 
           2055         4.95e+9 
           2065       4.9399e+9 
           2074      5.18719e+9 
           2078      4.64211e+9 
           2085      4.97964e+9 
           2095      4.67746e+9 
           2105      4.84721e+9 
           2115      4.89092e+9 
           2125      4.91966e+9 
           2135      4.82732e+9 
           2145      4.55102e+9 
           2155      4.78827e+9 
           2165      4.77797e+9 
           2175      4.71168e+9 
           2185      4.51691e+9 
           2195       4.6015e+9 
           2205      4.59116e+9 
           2215      4.49605e+9 
           2225      4.35703e+9 
           2235       4.3173e+9 
           2245      4.36795e+9 
           2255      4.19068e+9 
           2265      4.28226e+9 
           2275      4.21136e+9 
           2285      4.20972e+9 
           2295      3.81005e+9 
           2305      4.05097e+9 
           2315      3.91651e+9 
           2325      3.87265e+9 
           2335      3.71387e+9 
           2345      3.75933e+9 
           2355      3.75274e+9 
           2365      3.70982e+9 
           2375      3.64265e+9 
           2385      3.61588e+9 
           2395      3.59212e+9 
           2405      3.50232e+9 
           2415       3.4808e+9 
           2425      3.48502e+9 
           2435      3.36426e+9 
           2445      3.38639e+9 
           2455       3.3928e+9 
           2465      3.32261e+9 
           2475      3.26679e+9 
           2485      3.19815e+9 
           2495      2.67734e+9 
           2505      3.08749e+9 
           2513      2.97319e+9 
           2518      3.09348e+9 
           2525      3.04498e+9 
           2535      3.01314e+9 
           2545      2.85957e+9 
           2555      2.94971e+9 
           2565      2.89457e+9 
           2575      2.93389e+9 
           2585      2.89179e+9 
           2595      2.86971e+9 
           2605        2.847e+9 
           2615      2.80362e+9 
           2625      2.78437e+9 
           2635      2.76008e+9 
           2645      2.73876e+9 
           2655      2.72635e+9 
           2665      2.59952e+9 
           2675      2.63087e+9 
           2685      2.61994e+9 
           2695      2.52158e+9 
           2705      2.47172e+9 
           2715      2.47777e+9 
           2725      2.46789e+9 
           2735      2.45713e+9 
           2745      2.37981e+9 
           2755      2.37706e+9 
           2765      2.35709e+9 
           2775      2.38235e+9 
           2785      2.33764e+9 
           2795      2.23645e+9 
           2805      2.27449e+9 
           2815      2.28018e+9 
           2825      2.24953e+9 
           2835      2.15555e+9 
           2845       2.1859e+9 
           2855      2.14829e+9 
           2865      2.15567e+9 
           2875      2.12862e+9 
           2885      2.10715e+9 
           2895      2.07095e+9 
           2910      2.02585e+9 
           2930      2.00338e+9 
           2950      1.94497e+9 
           2970      1.91997e+9 
           2990      1.87406e+9 
           3010        1.802e+9 
           3030      1.80037e+9 
           3050       1.7727e+9 
           3070       1.7488e+9 
           3090      1.67135e+9 
           3110      1.67003e+9 
           3130      1.62756e+9 
           3150      1.60415e+9 
           3170      1.56099e+9 
           3190      1.52867e+9 
           3210      1.51114e+9 
           3230      1.47404e+9 
           3250      1.45445e+9 
           3270      1.42202e+9 
           3290      1.39375e+9 
           3310      1.36974e+9 
           3330      1.34009e+9 
           3350      1.31739e+9 
           3370      1.28982e+9 
           3390      1.27199e+9 
           3410      1.24914e+9 
           3430      1.22175e+9 
           3450      1.19465e+9 
           3470      1.17344e+9 
           3490      1.14976e+9 
           3510       1.1325e+9 
           3530      1.11865e+9 
           3550      1.09756e+9 
           3570      1.08234e+9 
           3590      1.04889e+9 
           3610      1.03247e+9 
           3630      1.01801e+9 
           3640      1.01783e+9 
           3650      1.00174e+9 
           3670      9.91436e+8 
           3690      9.70591e+8 
           3710      9.32593e+8 
           3730      8.97545e+8 
           3750      9.43639e+8 
           3770      9.36701e+8 
           3790      9.80397e+8 
           3810      1.01653e+9 
           3830      8.92148e+8 
           3850      1.02246e+9 
           3870      1.01232e+9 
           3890      8.45395e+8 
           3910      1.01584e+9 
           3930       9.7682e+8 
           3950      9.69995e+8 
           3970      7.85517e+8 
           3990      9.36328e+8 
           4010      9.34367e+8 
           4030      8.81925e+8 
           4050      9.01555e+8 
           4070      8.54509e+8 
           4090      8.03428e+8 
           4110      7.19867e+8 
           4130      8.17073e+8 
           4150      8.12935e+8 
           4170       8.1224e+8 
           4190      8.04183e+8 
           4210      7.98834e+8 
           4230      7.79381e+8 
           4250      7.55711e+8 
           4270       7.3216e+8 
           4290      7.23876e+8 
           4310      7.01537e+8 
           4330      6.50585e+8 
           4350      5.97372e+8 
           4370      6.68241e+8 
           4390      6.65001e+8 
           4410      6.61171e+8 
           4430      6.55964e+8 
           4450      6.45914e+8 
           4470      6.16636e+8 
           4490      6.25076e+8 
           4510      6.23693e+8 
           4530      6.12269e+8 
           4550      6.04423e+8 
           4570      5.93751e+8 
           4590      5.83545e+8 
           4610      5.68885e+8 
           4630      5.61696e+8 
           4650       5.4379e+8 
           4670      5.44998e+8 
           4690      5.41713e+8 
           4710      5.17067e+8 
           4730      5.21897e+8 
           4750      5.13487e+8 
           4770      5.15052e+8 
           4790      5.05226e+8 
           4810      4.92599e+8 
           4830      4.83522e+8 
           4850      4.54638e+8 
           4870      4.07436e+8 
           4890      4.64813e+8 
           4910      4.59971e+8 
           4930      4.43738e+8 
           4950      4.45372e+8 
           4970      4.43991e+8 
           4990      4.36203e+8 
           5010      4.15932e+8 
           5030      4.22324e+8 
           5050      4.10831e+8 
           5070      4.12228e+8 
           5090      4.04792e+8 
           5110      3.97936e+8 
           5130      3.89042e+8 
           5150      3.85344e+8 
           5170      3.82806e+8 
           5190      3.77959e+8 
           5210      3.69691e+8 
           5230      3.67751e+8 
           5250      3.63082e+8 
           5270       3.5675e+8 
           5290      3.53385e+8 
           5310      3.48042e+8 
           5330      3.43048e+8 
           5350        3.375e+8 
           5370      3.34782e+8 
           5390      3.29851e+8 
           5410      3.25756e+8 
           5430      3.20371e+8 
           5450       3.1602e+8 
           5470      3.11649e+8 
           5490      3.08482e+8 
           5510      3.05056e+8 
           5530      3.00217e+8 
           5550      2.97237e+8 
           5570       2.9297e+8 
           5590       2.8978e+8 
           5610      2.85311e+8 
           5630       2.8248e+8 
           5650      2.75928e+8 
           5670      2.71536e+8 
           5690      2.68211e+8 
           5710      2.66693e+8 
           5730      2.64135e+8 
           5750      2.59771e+8 
           5770       2.5812e+8 
           5790      2.54688e+8 
           5810      2.51409e+8 
           5830      2.47714e+8 
           5850      2.45054e+8 
           5870      2.35165e+8 
           5890      2.36525e+8 
           5910      2.35088e+8 
           5930       2.3207e+8 
           5950      2.28522e+8 
           5970      2.27913e+8 
           5990      2.23748e+8 
           6010      2.22188e+8 
           6030      2.18976e+8 
           6050      2.16594e+8 
           6070      2.14362e+8 
           6090      2.11686e+8 
           6110      2.09283e+8 
           6130      2.06988e+8 
           6150      2.02775e+8 
           6170      2.01265e+8 
           6190      1.99543e+8 
           6210      1.97352e+8 
           6230      1.95155e+8 
           6250      1.92095e+8 
           6270      1.90191e+8 
           6290      1.88202e+8 
           6310      1.85639e+8 
           6330      1.83998e+8 
           6350      1.80711e+8 
           6370      1.79308e+8 
           6390      1.77468e+8 
           6410      1.75464e+8 
           6430      1.73845e+8 
           6450      1.71682e+8 
           6470      1.69003e+8 
           6490      1.67345e+8 
           6510      1.65652e+8 
           6530      1.62943e+8 
           6550      1.56865e+8 
           6570        1.387e+8 
           6590      1.56016e+8 
           6610      1.56401e+8 
           6630      1.55082e+8 
           6650      1.53196e+8 
           6670      1.50281e+8 
           6690      1.48769e+8 
           6710      1.48511e+8 
           6730      1.46448e+8 
           6750      1.45441e+8 
           6770      1.43868e+8 
           6790      1.40832e+8 
           6810      1.40437e+8 
           6830      1.38775e+8 
           6850      1.37669e+8 
           6870      1.36174e+8 
           6890      1.34536e+8 
           6910      1.32898e+8 
           6930      1.31795e+8 
           6950      1.30554e+8 
           6970      1.29193e+8 
           6990      1.27753e+8 
           7010      1.26374e+8 
           7030      1.25053e+8 
           7050      1.23761e+8 
           7070      1.20386e+8 
           7090      1.21132e+8 
           7110      1.18872e+8 
           7130      1.17754e+8 
           7150      1.17295e+8 
           7170      1.16275e+8 
           7190      1.15148e+8 
           7210      1.13974e+8 
           7230      1.10886e+8 
           7250      1.11315e+8 
           7270      1.10496e+8 
           7290      1.08466e+8 
           7310       1.0824e+8 
           7330      1.07124e+8 
           7350       1.0611e+8 
           7370       1.0507e+8 
           7390      1.04012e+8 
           7410      1.02978e+8 
           7430      1.01776e+8 
           7450      1.00877e+8 
           7470      9.91768e+7 
           7490      9.87956e+7 
           7510      9.78827e+7 
           7530      9.68319e+7 
           7550       9.6042e+7 
           7570       9.5121e+7 
           7590      9.41299e+7 
           7610      9.30893e+7 
           7630      9.23366e+7 
           7650       9.1436e+7 
           7670       9.0582e+7 
           7690      8.96973e+7 
           7710      8.88206e+7 
           7730      8.79014e+7 
           7750      8.71472e+7 
           7770      8.54948e+7 
           7790      8.55034e+7 
           7810      8.46337e+7 
           7830      8.38885e+7 
           7850      8.29297e+7 
           7870       8.2083e+7 
           7890      8.10319e+7 
           7910      8.06889e+7 
           7930       7.9917e+7 
           7950      7.88478e+7 
           7970      7.82924e+7 
           7990      7.72695e+7 
           8010        7.689e+7 
           8030      7.61745e+7 
           8050      7.54767e+7 
           8070      7.48774e+7 
           8090      7.40529e+7 
           8110      7.30237e+7 
           8130      7.28188e+7 
           8150      7.21102e+7 
           8170      7.15826e+7 
           8190      7.05033e+7 
           8210      6.98528e+7 
           8230      6.90743e+7 
           8250      6.89557e+7 
           8270      6.75319e+7 
           8290      6.76231e+7 
           8310      6.70634e+7 
           8330      6.65191e+7 
           8350      6.55633e+7 
           8370      6.50944e+7 
           8390      6.47202e+7 
           8410      6.40931e+7 
           8430      6.34925e+7 
           8450       6.2174e+7 
           8470      6.22798e+7 
           8490       6.1647e+7 
           8510      6.09154e+7 
           8530      6.07181e+7 
           8550      5.91667e+7 
           8570      6.03732e+7 
