# Kurucz ODFNEW /NOVER (2003)
# teff = 24000 K (value for the effective temperature for the model. Temperatures are given in K)
# logg = 4 log(cm/s2) (value for Log(G) for the model.)
# meta = 0  (value for the Metallicity for the model.)
# lh = 1.25  (l/Hp where l is the  mixing length of the convective element and Hp is the pressure scale height)
# vtur = 2 km/s (Microturbulence velocity)
# alpha = 0  (Alpha)
#
# column 1: WAVELENGTH (ANGSTROM), Wavelength in Angstrom
# column 2: FLUX (ERG/CM2/S/A), Flux in erg/cm2/s/A
          147.2     2.47828e-15 
            151     1.10691e-14 
          155.2     5.35118e-14 
          158.8     1.94464e-13 
            162     5.86512e-13 
            166      2.2078e-12 
          170.3     8.61401e-12 
          173.4     2.21558e-11 
          176.8     6.01994e-11 
          180.2     1.58015e-10 
          181.7     2.39286e-10 
          186.1     7.81279e-10 
            191      2.75104e-9 
          193.9      5.63463e-9 
          198.4      1.64895e-8 
          201.8      3.60279e-8 
            205      7.35207e-8 
          210.5      2.38968e-7 
          216.2       7.6318e-7 
          219.8      1.54241e-6 
            223      2.83034e-6 
          226.8      5.69764e-6 
            230     0.000409339 
            234     0.000951249 
            240      0.00229275 
          246.5      0.00569023 
          252.4       0.0126279 
          256.8       0.0211575 
            260       0.0343164 
            264       0.0547938 
          268.5        0.092468 
          273.5        0.161284 
          278.5        0.277662 
            284        0.514444 
            290        0.928295 
            296         1.64415 
            301         2.57708 
            308         4.81316 
            318         11.6263 
            328         24.7306 
            338         53.0219 
            348         105.468 
            357         275.764 
            366         501.327 
            375         803.422 
            385         1378.08 
            395         2368.23 
            405         3769.48 
            414         5732.18 
            422         8042.76 
            430         11491.6 
            441           17825 
            451         25724.5 
            460         35141.2 
            470         50305.1 
            480         69817.6 
            490         96713.2 
            500          130831 
            506          772908 
            512      5.71495e+6 
            520      6.67065e+6 
            530      8.14414e+6 
            540      8.96722e+6 
            550      1.27702e+7 
            560      1.50439e+7 
            570      1.83274e+7 
            580       1.7954e+7 
            590      2.36016e+7 
            600      2.69519e+7 
            610      3.19233e+7 
            620       3.5263e+7 
            630      3.82595e+7 
            640      3.66088e+7 
            650      2.84415e+7 
            658      4.33397e+7 
            665      5.26948e+7 
            675      5.70231e+7 
            685      6.00808e+7 
            695      7.57678e+7 
            705      7.85862e+7 
            716      8.89105e+7 
            726      9.35755e+7 
            735      9.80344e+7 
            745      1.11568e+8 
            755      1.20198e+8 
            765       1.3006e+8 
            775       1.4033e+8 
            785      1.51016e+8 
            795      1.57904e+8 
            805      1.65691e+8 
            815      1.72386e+8 
            825      1.88186e+8 
            835       1.7525e+8 
            845      1.98863e+8 
            855      2.05947e+8 
            865      2.20567e+8 
            875      2.36167e+8 
            885      2.55535e+8 
            895      2.68452e+8 
            905      2.67888e+8 
            915      3.91252e+8 
            925       2.6479e+9 
            935      6.91901e+9 
            945     1.49452e+10 
            955     1.97984e+10 
            965      2.3227e+10 
            975      3.69606e+9 
            985     1.97916e+10 
            995     1.97649e+10 
           1005     2.36815e+10 
           1015     2.34951e+10 
           1025     1.08423e+10 
           1035     1.76516e+10 
           1045     2.83196e+10 
           1055      2.5965e+10 
           1065     2.07887e+10 
           1075      2.4232e+10 
           1085     2.13507e+10 
           1095     2.43084e+10 
           1105     2.17021e+10 
           1115     2.07418e+10 
           1125      1.6895e+10 
           1135     2.21989e+10 
           1145     1.98729e+10 
           1155     2.05689e+10 
           1165     2.03853e+10 
           1175     1.21159e+10 
           1185     1.94167e+10 
           1195     1.74139e+10 
           1205     1.10342e+10 
           1215      8.16633e+9 
           1225      1.5741e+10 
           1235     1.86358e+10 
           1245     1.81894e+10 
           1255      1.7839e+10 
           1265     1.79729e+10 
           1275     1.85711e+10 
           1285     1.83555e+10 
           1295     1.25631e+10 
           1305     1.34468e+10 
           1315      1.7621e+10 
           1325     1.63406e+10 
           1335     1.54867e+10 
           1345      1.6045e+10 
           1355     1.57582e+10 
           1365     1.43002e+10 
           1375     1.39326e+10 
           1385     1.36461e+10 
           1395     1.01222e+10 
           1405     1.09536e+10 
           1415     1.19471e+10 
           1425     1.18427e+10 
           1435     1.22077e+10 
           1442     1.25196e+10 
           1447     1.22551e+10 
           1455     1.18764e+10 
           1465     1.08642e+10 
           1475     1.10976e+10 
           1485     1.09174e+10 
           1495     1.07007e+10 
           1505      9.65282e+9 
           1512      8.53289e+9 
           1517      8.83623e+9 
           1525      9.18325e+9 
           1535      7.76395e+9 
           1545      7.61532e+9 
           1555      7.37591e+9 
           1565      7.96596e+9 
           1575      8.47929e+9 
           1585      8.48975e+9 
           1595      8.39888e+9 
           1605      8.52664e+9 
           1615      8.34684e+9 
           1625      8.16539e+9 
           1635      8.66377e+9 
           1645      8.61026e+9 
           1655      8.46347e+9 
           1665      8.66489e+9 
           1672      8.26152e+9 
           1677      8.91614e+9 
           1685      8.67179e+9 
           1695      8.15567e+9 
           1705      7.88209e+9 
           1715       7.4318e+9 
           1725      7.32601e+9 
           1735      7.64704e+9 
           1745      7.43097e+9 
           1755      7.50493e+9 
           1765      7.32096e+9 
           1775        6.899e+9 
           1785      7.02138e+9 
           1795      7.26689e+9 
           1805       7.3205e+9 
           1815      6.45966e+9 
           1825      6.76459e+9 
           1835      6.51429e+9 
           1845      5.91795e+9 
           1855      5.92559e+9 
           1865      6.01721e+9 
           1875      6.36136e+9 
           1885      5.61687e+9 
           1895      5.20284e+9 
           1905       5.6862e+9 
           1915      5.30676e+9 
           1925      5.04193e+9 
           1935      5.36908e+9 
           1945      5.47066e+9 
           1955      4.91785e+9 
           1967      5.37944e+9 
           1976      5.60833e+9 
           1984      5.17424e+9 
           1995      5.07389e+9 
           2005      5.28402e+9 
           2015      5.19292e+9 
           2025       5.3741e+9 
           2035      4.85683e+9 
           2045       4.9688e+9 
           2055      4.79602e+9 
           2065      4.79695e+9 
           2074      5.06702e+9 
           2078      4.52267e+9 
           2085      4.79835e+9 
           2095      4.52296e+9 
           2105      4.68116e+9 
           2115      4.69376e+9 
           2125      4.73737e+9 
           2135      4.64897e+9 
           2145      4.38022e+9 
           2155      4.58692e+9 
           2165      4.56997e+9 
           2175      4.50781e+9 
           2185      4.34299e+9 
           2195      4.41314e+9 
           2205      4.38172e+9 
           2215      4.30224e+9 
           2225      4.18353e+9 
           2235      4.13592e+9 
           2245      4.16987e+9 
           2255      4.02213e+9 
           2265      4.08245e+9 
           2275      4.01949e+9 
           2285      4.02393e+9 
           2295      3.71664e+9 
           2305      3.88037e+9 
           2315      3.75617e+9 
           2325      3.71173e+9 
           2335        3.585e+9 
           2345      3.60066e+9 
           2355      3.60214e+9 
           2365      3.55221e+9 
           2375      3.48783e+9 
           2385      3.45686e+9 
           2395       3.4335e+9 
           2405      3.35388e+9 
           2415      3.33191e+9 
           2425      3.33248e+9 
           2435      3.22841e+9 
           2445         3.24e+9 
           2455      3.24328e+9 
           2465      3.17542e+9 
           2475       3.1297e+9 
           2485      3.08657e+9 
           2495      2.78518e+9 
           2505      3.00464e+9 
           2513      2.86134e+9 
           2518      2.97411e+9 
           2525      2.92313e+9 
           2535      2.88106e+9 
           2545      2.78832e+9 
           2555      2.83377e+9 
           2565      2.79139e+9 
           2575      2.80072e+9 
           2585      2.76353e+9 
           2595      2.73729e+9 
           2605      2.71615e+9 
           2615      2.67905e+9 
           2625      2.65753e+9 
           2635      2.63311e+9 
           2645      2.61335e+9 
           2655      2.60097e+9 
           2665      2.50526e+9 
           2675      2.51589e+9 
           2685      2.50539e+9 
           2695      2.41976e+9 
           2705      2.38728e+9 
           2715      2.38184e+9 
           2725      2.36465e+9 
           2735      2.35711e+9 
           2745      2.28282e+9 
           2755      2.27933e+9 
           2765      2.25701e+9 
           2775      2.27277e+9 
           2785      2.23525e+9 
           2795      2.15592e+9 
           2805      2.17639e+9 
           2815      2.17659e+9 
           2825      2.14124e+9 
           2835      2.06284e+9 
           2845      2.09114e+9 
           2855       2.0602e+9 
           2865      2.05993e+9 
           2875      2.03605e+9 
           2885      2.01481e+9 
           2895      1.98482e+9 
           2910      1.94889e+9 
           2930      1.91614e+9 
           2950      1.85969e+9 
           2970       1.8366e+9 
           2990      1.79454e+9 
           3010      1.73909e+9 
           3030      1.73036e+9 
           3050      1.69803e+9 
           3070       1.6681e+9 
           3090      1.60968e+9 
           3110      1.59703e+9 
           3130      1.56223e+9 
           3150       1.5349e+9 
           3170      1.49632e+9 
           3190      1.46266e+9 
           3210      1.44592e+9 
           3230      1.41384e+9 
           3250      1.39093e+9 
           3270      1.36188e+9 
           3290      1.33472e+9 
           3310      1.31204e+9 
           3330      1.28525e+9 
           3350      1.26109e+9 
           3370      1.23761e+9 
           3390      1.21725e+9 
           3410      1.19514e+9 
           3430      1.16712e+9 
           3450      1.14179e+9 
           3470       1.1231e+9 
           3490      1.10154e+9 
           3510      1.08446e+9 
           3530      1.06967e+9 
           3550      1.05051e+9 
           3570      1.03673e+9 
           3590      1.00683e+9 
           3610      9.89803e+8 
           3630      9.75639e+8 
           3640      9.74863e+8 
           3650      9.53637e+8 
           3670      9.43019e+8 
           3690       9.2256e+8 
           3710      8.89265e+8 
           3730      8.56332e+8 
           3750      9.01713e+8 
           3770      8.99275e+8 
           3790       9.4124e+8 
           3810      9.77164e+8 
           3830       8.5799e+8 
           3850      9.92471e+8 
           3870      9.86541e+8 
           3890      8.13155e+8 
           3910      9.80555e+8 
           3930       9.4955e+8 
           3950      9.42542e+8 
           3970       7.5528e+8 
           3990      9.07008e+8 
           4010      9.02786e+8 
           4030      8.52233e+8 
           4050      8.75487e+8 
           4070      8.40113e+8 
           4090      7.86717e+8 
           4110      7.00108e+8 
           4130       7.9757e+8 
           4150      7.93117e+8 
           4170      7.88387e+8 
           4190      7.79999e+8 
           4210      7.72074e+8 
           4230      7.55442e+8 
           4250      7.37378e+8 
           4270      7.16478e+8 
           4290      7.10345e+8 
           4310      6.90667e+8 
           4330      6.35273e+8 
           4350       5.8238e+8 
           4370      6.55714e+8 
           4390      6.45374e+8 
           4410      6.45578e+8 
           4430       6.3765e+8 
           4450      6.29477e+8 
           4470      5.97838e+8 
           4490      6.08464e+8 
           4510      6.04172e+8 
           4530      5.93268e+8 
           4550      5.84952e+8 
           4570      5.75153e+8 
           4590      5.66164e+8 
           4610      5.53782e+8 
           4630      5.45476e+8 
           4650      5.31368e+8 
           4670      5.30333e+8 
           4690      5.25733e+8 
           4710      5.05892e+8 
           4730      5.05564e+8 
           4750      4.97825e+8 
           4770      4.97087e+8 
           4790      4.88314e+8 
           4810      4.78237e+8 
           4830       4.6944e+8 
           4850      4.39055e+8 
           4870      3.93187e+8 
           4890      4.49846e+8 
           4910      4.45595e+8 
           4930      4.29819e+8 
           4950      4.32595e+8 
           4970      4.28907e+8 
           4990      4.21875e+8 
           5010       4.0463e+8 
           5030      4.09265e+8 
           5050      3.99058e+8 
           5070      3.98598e+8 
           5090       3.9249e+8 
           5110      3.86236e+8 
           5130      3.77833e+8 
           5150      3.73569e+8 
           5170      3.71051e+8 
           5190      3.66238e+8 
           5210      3.59685e+8 
           5230      3.55975e+8 
           5250      3.51354e+8 
           5270      3.45925e+8 
           5290      3.41955e+8 
           5310      3.37046e+8 
           5330      3.32479e+8 
           5350      3.27405e+8 
           5370      3.24082e+8 
           5390      3.19542e+8 
           5410      3.15549e+8 
           5430      3.10776e+8 
           5450       3.0666e+8 
           5470      3.02596e+8 
           5490      2.98858e+8 
           5510      2.95377e+8 
           5530      2.91051e+8 
           5550      2.87857e+8 
           5570      2.83887e+8 
           5590      2.80533e+8 
           5610      2.76621e+8 
           5630      2.73411e+8 
           5650       2.6841e+8 
           5670       2.6413e+8 
           5690      2.60519e+8 
           5710      2.58905e+8 
           5730      2.55908e+8 
           5750      2.52137e+8 
           5770      2.49973e+8 
           5790      2.46698e+8 
           5810      2.43652e+8 
           5830      2.40232e+8 
           5850      2.37547e+8 
           5870      2.27851e+8 
           5890      2.29629e+8 
           5910      2.28358e+8 
           5930      2.25246e+8 
           5950      2.22212e+8 
           5970      2.20842e+8 
           5990      2.17333e+8 
           6010      2.15357e+8 
           6030      2.12439e+8 
           6050      2.10069e+8 
           6070      2.07797e+8 
           6090      2.05297e+8 
           6110      2.02865e+8 
           6130      2.00581e+8 
           6150      1.97227e+8 
           6170      1.95426e+8 
           6190      1.93447e+8 
           6210      1.91295e+8 
           6230      1.89108e+8 
           6250      1.86491e+8 
           6270      1.84527e+8 
           6290      1.82508e+8 
           6310      1.80274e+8 
           6330      1.78404e+8 
           6350      1.75675e+8 
           6370      1.74072e+8 
           6390      1.72191e+8 
           6410      1.70274e+8 
           6430      1.68497e+8 
           6450      1.66503e+8 
           6470      1.64152e+8 
           6490      1.62435e+8 
           6510      1.60825e+8 
           6530      1.58375e+8 
           6550      1.52062e+8 
           6570      1.34624e+8 
           6590       1.5141e+8 
           6610       1.5178e+8 
           6630      1.50471e+8 
           6650      1.48835e+8 
           6670      1.45877e+8 
           6690      1.44333e+8 
           6710      1.44135e+8 
           6730      1.42315e+8 
           6750      1.41067e+8 
           6770      1.39545e+8 
           6790      1.36959e+8 
           6810      1.36334e+8 
           6830      1.34915e+8 
           6850      1.33599e+8 
           6870      1.32175e+8 
           6890      1.30695e+8 
           6910      1.29245e+8 
           6930      1.27967e+8 
           6950      1.26677e+8 
           6970      1.25354e+8 
           6990      1.24006e+8 
           7010      1.22709e+8 
           7030      1.21425e+8 
           7050      1.20138e+8 
           7070      1.16919e+8 
           7090      1.17685e+8 
           7110      1.15801e+8 
           7130      1.14671e+8 
           7150       1.1403e+8 
           7170      1.12897e+8 
           7190      1.11774e+8 
           7210      1.10633e+8 
           7230      1.07896e+8 
           7250      1.08262e+8 
           7270      1.07282e+8 
           7290      1.05319e+8 
           7310       1.0511e+8 
           7330      1.04046e+8 
           7350      1.03034e+8 
           7370      1.02011e+8 
           7390      1.00991e+8 
           7410      9.99867e+7 
           7430      9.89441e+7 
           7450      9.80063e+7 
           7470      9.67666e+7 
           7490       9.6049e+7 
           7510      9.50773e+7 
           7530       9.4141e+7 
           7550      9.32926e+7 
           7570      9.23927e+7 
           7590      9.14748e+7 
           7610      9.05328e+7 
           7630      8.97029e+7 
           7650      8.88546e+7 
           7670      8.79948e+7 
           7690      8.71427e+7 
           7710      8.62983e+7 
           7730      8.54614e+7 
           7750      8.46696e+7 
           7770      8.34481e+7 
           7790       8.3076e+7 
           7810      8.22249e+7 
           7830      8.15104e+7 
           7850      8.07166e+7 
           7870      7.99298e+7 
           7890      7.90107e+7 
           7910      7.84791e+7 
           7930      7.77184e+7 
           7950      7.68271e+7 
           7970      7.61455e+7 
           7990      7.53458e+7 
           8010       7.4741e+7 
           8030      7.40536e+7 
           8050      7.33896e+7 
           8070      7.27892e+7 
           8090       7.1975e+7 
           8110      7.12424e+7 
           8130      7.08353e+7 
           8150      7.00967e+7 
           8170      6.95903e+7 
           8190      6.87509e+7 
           8210      6.79469e+7 
           8230      6.73668e+7 
           8250      6.69907e+7 
           8270      6.58684e+7 
           8290      6.57209e+7 
           8310      6.51703e+7 
           8330      6.45863e+7 
           8350      6.36775e+7 
           8370      6.32822e+7 
           8390      6.28577e+7 
           8410      6.22768e+7 
           8430      6.16636e+7 
           8450       6.0549e+7 
           8470      6.04786e+7 
           8490      5.99066e+7 
           8510      5.91884e+7 
           8530      5.89681e+7 
           8550      5.74866e+7 
           8570        5.866e+7 
           8590      5.61458e+7 
