# Kurucz ODFNEW /NOVER (2003)
# teff = 31000 K (value for the effective temperature for the model. Temperatures are given in K)
# logg = 3.5 log(cm/s2) (value for Log(G) for the model.)
# meta = 0  (value for the Metallicity for the model.)
# lh = 1.25  (l/Hp where l is the  mixing length of the convective element and Hp is the pressure scale height)
# vtur = 2 km/s (Microturbulence velocity)
# alpha = 0.4  (Alpha)
#
# column 1: WAVELENGTH (ANGSTROM), Wavelength in Angstrom
# column 2: FLUX (ERG/CM2/S/A), Flux in erg/cm2/s/A
          147.2      8.77031e-8 
            151      2.57354e-7 
          155.2      7.96046e-7 
          158.8       2.0029e-6 
            162      4.40149e-6 
            166      1.13298e-5 
          170.3      2.97439e-5 
          173.4      5.83458e-5 
          176.8     0.000119504 
          180.2     0.000236593 
          181.7     0.000320931 
          186.1      0.00074039 
            191      0.00180284 
          193.9      0.00298781 
          198.4      0.00640609 
          201.8       0.0111002 
            205       0.0183286 
          210.5       0.0420062 
          216.2       0.0942903 
          219.8        0.155863 
            223         0.23886 
          226.8        0.399505 
            230         330.546 
            234         719.732 
            240         1163.28 
          246.5         2013.84 
          252.4         3489.84 
          256.8         4827.67 
            260         8840.32 
            264         14870.6 
          268.5           23585 
          273.5         32737.7 
          278.5         40455.5 
            284         97657.4 
            290          143193 
            296          188481 
            301          295022 
            308          846712 
            318      1.99206e+6 
            328      2.91312e+6 
            338      5.49741e+6 
            348      8.60352e+6 
            357      1.86309e+7 
            366      4.27082e+7 
            375      4.94001e+7 
            385      7.50333e+7 
            395      1.51938e+8 
            405      1.92794e+8 
            414       2.6941e+8 
            422      2.96143e+8 
            430      3.23511e+8 
            441      3.98772e+8 
            451      4.40979e+8 
            460      4.43245e+8 
            470      5.31804e+8 
            480      6.21767e+8 
            490      6.07568e+8 
            500      8.04408e+8 
            506      1.10905e+9 
            512      7.76355e+9 
            520      7.42968e+9 
            530      6.73446e+9 
            540      6.60478e+9 
            550      6.77092e+9 
            560      9.72445e+9 
            570     1.17066e+10 
            580     1.07189e+10 
            590     1.12185e+10 
            600      6.97054e+9 
            610       9.8795e+9 
            620      1.3213e+10 
            630     1.27665e+10 
            640     1.30807e+10 
            650      1.1589e+10 
            658      7.69671e+9 
            665     1.14043e+10 
            675     1.43887e+10 
            685     1.02062e+10 
            695      1.4322e+10 
            705      9.18734e+9 
            716     1.58546e+10 
            726      1.5528e+10 
            735     1.56417e+10 
            745      1.3168e+10 
            755     1.35194e+10 
            765     1.41602e+10 
            775     1.53194e+10 
            785     1.48674e+10 
            795     1.57797e+10 
            805     1.44942e+10 
            815     1.43517e+10 
            825     1.57943e+10 
            835     1.11799e+10 
            845     1.49811e+10 
            855      1.4777e+10 
            865     1.53829e+10 
            875     1.54436e+10 
            885     1.56608e+10 
            895     1.57102e+10 
            905     1.51432e+10 
            915     1.86181e+10 
            925      4.4765e+10 
            935     6.09421e+10 
            945     6.58393e+10 
            955     6.94741e+10 
            965     7.24918e+10 
            975     3.60475e+10 
            985     5.85077e+10 
            995     5.50848e+10 
           1005     5.67393e+10 
           1015     5.97882e+10 
           1025     5.49016e+10 
           1035      5.8481e+10 
           1045     6.51672e+10 
           1055     6.24653e+10 
           1065     5.53623e+10 
           1075     5.67136e+10 
           1085     5.39769e+10 
           1095     5.62066e+10 
           1105     5.39875e+10 
           1115     5.25871e+10 
           1125     4.16996e+10 
           1135     5.08905e+10 
           1145     4.93819e+10 
           1155     4.66865e+10 
           1165     4.63853e+10 
           1175     3.17019e+10 
           1185     4.22894e+10 
           1195     4.10359e+10 
           1205     3.94859e+10 
           1215     3.55924e+10 
           1225     3.89326e+10 
           1235     4.10019e+10 
           1245     3.93299e+10 
           1255     3.94567e+10 
           1265     4.01372e+10 
           1275     4.10396e+10 
           1285     4.07935e+10 
           1295     3.82744e+10 
           1305     3.80418e+10 
           1315     3.96745e+10 
           1325       3.849e+10 
           1335       3.733e+10 
           1345     3.73267e+10 
           1355     3.63859e+10 
           1365      3.5232e+10 
           1375     3.41953e+10 
           1385     3.30788e+10 
           1395     2.42335e+10 
           1405     2.56684e+10 
           1415     3.18641e+10 
           1425     2.89918e+10 
           1435     3.05613e+10 
           1442     3.02219e+10 
           1447     3.00961e+10 
           1455     2.87446e+10 
           1465     2.81973e+10 
           1475     2.83912e+10 
           1485     2.82954e+10 
           1495     2.74546e+10 
           1505     2.69895e+10 
           1512     2.66182e+10 
           1517     2.67606e+10 
           1525     2.57905e+10 
           1535     2.30013e+10 
           1545     1.91425e+10 
           1555     1.94283e+10 
           1565     2.18772e+10 
           1575      2.2914e+10 
           1585     2.28312e+10 
           1595     2.26939e+10 
           1605     2.13605e+10 
           1615     2.05652e+10 
           1625     2.08664e+10 
           1635     2.10784e+10 
           1645     2.09232e+10 
           1655     2.09654e+10 
           1665     2.04983e+10 
           1672      1.9094e+10 
           1677     2.18791e+10 
           1685     2.09367e+10 
           1695      2.0263e+10 
           1705     2.00532e+10 
           1715     1.91706e+10 
           1725     1.86224e+10 
           1735     1.91992e+10 
           1745     1.89712e+10 
           1755     1.86406e+10 
           1765     1.84324e+10 
           1775     1.79108e+10 
           1785     1.80418e+10 
           1795     1.76156e+10 
           1805     1.75979e+10 
           1815     1.71884e+10 
           1825     1.69383e+10 
           1835     1.69232e+10 
           1845     1.62012e+10 
           1855     1.62909e+10 
           1865     1.62152e+10 
           1875     1.58177e+10 
           1885     1.52379e+10 
           1895     1.50198e+10 
           1905     1.52653e+10 
           1915       1.487e+10 
           1925     1.41018e+10 
           1935      1.4698e+10 
           1945     1.47375e+10 
           1955     1.36556e+10 
           1967     1.40796e+10 
           1976     1.42189e+10 
           1984     1.38451e+10 
           1995     1.34656e+10 
           2005     1.36587e+10 
           2015     1.35828e+10 
           2025     1.34803e+10 
           2035     1.30661e+10 
           2045     1.28639e+10 
           2055     1.06943e+10 
           2065     1.04381e+10 
           2074     1.09836e+10 
           2078     1.10216e+10 
           2085     1.18637e+10 
           2095     1.18288e+10 
           2105     1.18077e+10 
           2115     1.19254e+10 
           2125     1.16624e+10 
           2135     1.16237e+10 
           2145     1.14197e+10 
           2155       1.137e+10 
           2165     1.09606e+10 
           2175     1.10551e+10 
           2185     1.08334e+10 
           2195     1.08812e+10 
           2205     1.07122e+10 
           2215     1.04214e+10 
           2225     1.03957e+10 
           2235     1.02538e+10 
           2245     1.01126e+10 
           2255      9.88752e+9 
           2265      9.85328e+9 
           2275      9.75957e+9 
           2285      9.51921e+9 
           2295      8.72117e+9 
           2305      9.20015e+9 
           2315      9.10678e+9 
           2325      9.07461e+9 
           2335      8.94868e+9 
           2345       8.8321e+9 
           2355      8.68729e+9 
           2365      8.55336e+9 
           2375      8.39666e+9 
           2385      8.11579e+9 
           2395      8.10924e+9 
           2405      8.09405e+9 
           2415      7.96127e+9 
           2425      7.91048e+9 
           2435      7.77765e+9 
           2445      7.69336e+9 
           2455      7.57644e+9 
           2465      7.48285e+9 
           2475        7.369e+9 
           2485      7.06334e+9 
           2495      4.88481e+9 
           2505      6.64482e+9 
           2513      6.73322e+9 
           2518      6.79326e+9 
           2525      6.92464e+9 
           2535      6.88008e+9 
           2545      6.74353e+9 
           2555      6.68911e+9 
           2565      6.61072e+9 
           2575      6.54697e+9 
           2585      6.47048e+9 
           2595      6.34127e+9 
           2605      6.32155e+9 
           2615      6.20057e+9 
           2625       6.1556e+9 
           2635      6.09595e+9 
           2645      6.00148e+9 
           2655      5.94299e+9 
           2665      5.83535e+9 
           2675      5.70757e+9 
           2685      5.71217e+9 
           2695      5.62265e+9 
           2705      5.58219e+9 
           2715      5.50077e+9 
           2725      5.43764e+9 
           2735      5.32341e+9 
           2745      5.33919e+9 
           2755      5.26278e+9 
           2765      5.19324e+9 
           2775      5.15882e+9 
           2785      5.06501e+9 
           2795      4.92563e+9 
           2805      4.95042e+9 
           2815      4.91294e+9 
           2825      4.85367e+9 
           2835      4.78199e+9 
           2845      4.75774e+9 
           2855      4.68842e+9 
           2865       4.6227e+9 
           2875      4.56918e+9 
           2885       4.5267e+9 
           2895      4.47628e+9 
           2910       4.3742e+9 
           2930      4.30552e+9 
           2950      4.19816e+9 
           2970      4.10482e+9 
           2990      3.98878e+9 
           3010      3.88331e+9 
           3030      3.78038e+9 
           3050      3.73324e+9 
           3070      3.66561e+9 
           3090      3.56516e+9 
           3110      3.51887e+9 
           3130      3.42913e+9 
           3150       3.3708e+9 
           3170      3.29695e+9 
           3190       3.2316e+9 
           3210       3.1417e+9 
           3230      3.09002e+9 
           3250      3.04112e+9 
           3270      2.95045e+9 
           3290      2.90553e+9 
           3310      2.84284e+9 
           3330      2.77751e+9 
           3350      2.71118e+9 
           3370       2.6636e+9 
           3390      2.62741e+9 
           3410      2.57271e+9 
           3430      2.53104e+9 
           3450      2.46522e+9 
           3470      2.42716e+9 
           3490      2.38191e+9 
           3510      2.33683e+9 
           3530      2.29489e+9 
           3550      2.24824e+9 
           3570      2.20583e+9 
           3590      2.16001e+9 
           3610      2.11854e+9 
           3630      2.07705e+9 
           3640      2.04725e+9 
           3650      1.94157e+9 
           3670      1.91076e+9 
           3690      1.87605e+9 
           3710      1.82889e+9 
           3730      1.80906e+9 
           3750      1.84257e+9 
           3770      1.81591e+9 
           3790       1.8285e+9 
           3810      1.84372e+9 
           3830      1.73075e+9 
           3850      1.80431e+9 
           3870       1.7469e+9 
           3890      1.64483e+9 
           3910      1.72339e+9 
           3930      1.67299e+9 
           3950      1.63965e+9 
           3970      1.51532e+9 
           3990      1.60341e+9 
           4010      1.57035e+9 
           4030      1.52957e+9 
           4050      1.52221e+9 
           4070      1.46995e+9 
           4090      1.42144e+9 
           4110      1.34854e+9 
           4130      1.40365e+9 
           4150      1.38519e+9 
           4170      1.37293e+9 
           4190      1.34666e+9 
           4210      1.32163e+9 
           4230      1.30697e+9 
           4250      1.27626e+9 
           4270      1.25107e+9 
           4290      1.22983e+9 
           4310      1.20352e+9 
           4330      1.16996e+9 
           4350      1.10569e+9 
           4370       1.1526e+9 
           4390      1.13083e+9 
           4410      1.11255e+9 
           4430      1.10374e+9 
           4450      1.08359e+9 
           4470        1.058e+9 
           4490      1.05166e+9 
           4510      1.03085e+9 
           4530      1.01933e+9 
           4550      9.97812e+8 
           4570      9.88719e+8 
           4590      9.70108e+8 
           4610      9.54972e+8 
           4630      9.36723e+8 
           4650      8.95004e+8 
           4670      9.08031e+8 
           4690      8.86944e+8 
           4710      8.77526e+8 
           4730      8.78876e+8 
           4750      8.64311e+8 
           4770      8.53337e+8 
           4790      8.40528e+8 
           4810      8.26632e+8 
           4830      8.12808e+8 
           4850      7.94043e+8 
           4870      7.41501e+8 
           4890      7.77813e+8 
           4910      7.65785e+8 
           4930       7.4937e+8 
           4950      7.41359e+8 
           4970      7.35434e+8 
           4990      7.24846e+8 
           5010      7.06432e+8 
           5030      7.01451e+8 
           5050      6.91268e+8 
           5070      6.83993e+8 
           5090      6.73989e+8 
           5110      6.64381e+8 
           5130      6.54687e+8 
           5150      6.45507e+8 
           5170      6.35787e+8 
           5190       6.2754e+8 
           5210      6.19053e+8 
           5230      6.10705e+8 
           5250      6.01018e+8 
           5270      5.92219e+8 
           5290      5.85716e+8 
           5310      5.77491e+8 
           5330      5.69691e+8 
           5350       5.6207e+8 
           5370      5.54377e+8 
           5390      5.46458e+8 
           5410      5.35436e+8 
           5430      5.32317e+8 
           5450      5.25094e+8 
           5470      5.17937e+8 
           5490      5.11133e+8 
           5510       5.0393e+8 
           5530      4.97618e+8 
           5550       4.9125e+8 
           5570      4.84498e+8 
           5590      4.76902e+8 
           5610      4.72179e+8 
           5630      4.66025e+8 
           5650      4.59888e+8 
           5670      4.53567e+8 
           5690      4.42658e+8 
           5710      4.29753e+8 
           5730      4.24532e+8 
           5750      4.18598e+8 
           5770      4.14185e+8 
           5790      4.09171e+8 
           5810      4.03893e+8 
           5830      3.99796e+8 
           5850      3.96539e+8 
           5870      3.86756e+8 
           5890      3.88402e+8 
           5910      3.84969e+8 
           5930      3.81509e+8 
           5950      3.78256e+8 
           5970      3.75134e+8 
           5990      3.70334e+8 
           6010      3.65996e+8 
           6030      3.61262e+8 
           6050      3.56994e+8 
           6070        3.526e+8 
           6090      3.48592e+8 
           6110      3.44053e+8 
           6130      3.39997e+8 
           6150      3.35767e+8 
           6170      3.31328e+8 
           6190      3.28099e+8 
           6210      3.24289e+8 
           6230      3.19764e+8 
           6250      3.16371e+8 
           6270      3.12813e+8 
           6290      3.09141e+8 
           6310      3.04602e+8 
           6330      3.01928e+8 
           6350      2.98198e+8 
           6370      2.94926e+8 
           6390      2.91496e+8 
           6410      2.87378e+8 
           6430      2.84792e+8 
           6450      2.81362e+8 
           6470      2.77852e+8 
           6490      2.74667e+8 
           6510      2.71328e+8 
           6530      2.67681e+8 
           6550      2.63827e+8 
           6570      2.44218e+8 
           6590      2.59046e+8 
           6610      2.56671e+8 
           6630      2.53916e+8 
           6650      2.50883e+8 
           6670      2.46256e+8 
           6690      2.43103e+8 
           6710      2.42183e+8 
           6730       2.3934e+8 
           6750      2.37113e+8 
           6770      2.34753e+8 
           6790      2.32032e+8 
           6810      2.29672e+8 
           6830      2.27093e+8 
           6850      2.24637e+8 
           6870      2.22101e+8 
           6890      2.18695e+8 
           6910      2.16871e+8 
           6930      2.15119e+8 
           6950       2.1279e+8 
           6970      2.10516e+8 
           6990      2.08242e+8 
           7010      2.05798e+8 
           7030      2.03439e+8 
           7050      2.01362e+8 
           7070      1.97255e+8 
           7090      1.97388e+8 
           7110      1.95138e+8 
           7130      1.93141e+8 
           7150      1.91237e+8 
           7170      1.88684e+8 
           7190      1.87074e+8 
           7210      1.85306e+8 
           7230      1.82682e+8 
           7250      1.81217e+8 
           7270      1.79601e+8 
           7290      1.76838e+8 
           7310      1.75801e+8 
           7330      1.74093e+8 
           7350       1.7231e+8 
           7370      1.70523e+8 
           7390      1.68828e+8 
           7410      1.67068e+8 
           7430      1.65419e+8 
           7450      1.63636e+8 
           7470      1.61809e+8 
           7490        1.601e+8 
           7510      1.58774e+8 
           7530      1.57181e+8 
           7550      1.55682e+8 
           7570      1.54097e+8 
           7590        1.519e+8 
           7610      1.50823e+8 
           7630       1.4949e+8 
           7650      1.48007e+8 
           7670       1.4666e+8 
           7690      1.44905e+8 
           7710      1.43659e+8 
           7730      1.42015e+8 
           7750      1.40926e+8 
           7770      1.39621e+8 
           7790      1.38272e+8 
           7810      1.36904e+8 
           7830      1.35603e+8 
           7850      1.34204e+8 
           7870      1.32799e+8 
           7890      1.31557e+8 
           7910      1.30471e+8 
           7930      1.29221e+8 
           7950      1.28047e+8 
           7970      1.26694e+8 
           7990      1.25582e+8 
           8010      1.24386e+8 
           8030      1.23148e+8 
           8050       1.2206e+8 
           8070      1.20935e+8 
           8090      1.19717e+8 
           8110      1.18216e+8 
           8130      1.17584e+8 
           8150      1.16372e+8 
           8170      1.15352e+8 
           8190      1.13935e+8 
           8210      1.11564e+8 
           8230      1.10294e+8 
           8250      1.09666e+8 
           8270       1.0826e+8 
           8290      1.07645e+8 
           8310      1.06757e+8 
           8330      1.05604e+8 
           8350      1.04456e+8 
           8370      1.03726e+8 
           8390      1.02981e+8 
           8410      1.02028e+8 
           8430      1.01173e+8 
           8450      1.00083e+8 
           8470      9.93011e+7 
           8490       9.8677e+7 
           8510      9.70953e+7 
           8530      9.71739e+7 
           8550      9.51583e+7 
           8570      9.60432e+7 
