# Kurucz ODFNEW /NOVER (2003)
# teff = 24000 K (value for the effective temperature for the model. Temperatures are given in K)
# logg = 5 log(cm/s2) (value for Log(G) for the model.)
# meta = 0.5  (value for the Metallicity for the model.)
# lh = 1.25  (l/Hp where l is the  mixing length of the convective element and Hp is the pressure scale height)
# vtur = 2 km/s (Microturbulence velocity)
# alpha = 0  (Alpha)
#
# column 1: WAVELENGTH (ANGSTROM), Wavelength in Angstrom
# column 2: FLUX (ERG/CM2/S/A), Flux in erg/cm2/s/A
          147.2     4.79748e-14 
            151     1.96122e-13 
          155.2     8.60031e-13 
          158.8     2.87595e-12 
            162     8.05969e-12 
            166     2.76914e-11 
          170.3     9.76789e-11 
          173.4     2.35152e-10 
          176.8     5.93135e-10 
          180.2      1.44731e-9 
          181.7      2.12197e-9 
          186.1      6.32233e-9 
            191      2.01888e-8 
          193.9      3.90685e-8 
          198.4      1.05077e-7 
          201.8      2.15955e-7 
            205      4.16424e-7 
          210.5      1.23306e-6 
          216.2       3.5947e-6 
          219.8      6.87871e-6 
            223       1.2046e-5 
          226.8      2.29832e-5 
            230     0.000604312 
            234       0.0013697 
            240      0.00326669 
          246.5      0.00797017 
          252.4       0.0174315 
          256.8       0.0294494 
            260       0.0465194 
            264       0.0740854 
          268.5        0.123895 
          273.5        0.213903 
          278.5        0.366023 
            284        0.673765 
            290         1.20656 
            296         2.11979 
            301         3.31435 
            308         6.27498 
            318         14.7039 
            328         30.9223 
            338         65.7275 
            348         129.624 
            357         347.498 
            366         629.907 
            375         1000.78 
            385         1697.33 
            395         2909.04 
            405         4589.66 
            414         6938.88 
            422         9750.15 
            430         13899.1 
            441           21403 
            451         30693.9 
            460         41698.4 
            470         59374.5 
            480         82180.6 
            490          113425 
            500          152696 
            506          654313 
            512      7.53907e+6 
            520      8.78446e+6 
            530       1.0686e+7 
            540      1.17587e+7 
            550      1.66782e+7 
            560      1.92629e+7 
            570      2.34595e+7 
            580      2.31491e+7 
            590      2.99933e+7 
            600      3.34232e+7 
            610      3.90144e+7 
            620       4.1403e+7 
            630      4.27795e+7 
            640      3.75506e+7 
            650      2.70184e+7 
            658      4.21189e+7 
            665      5.54107e+7 
            675      6.43233e+7 
            685      6.79273e+7 
            695      8.97084e+7 
            705      9.37456e+7 
            716      1.06114e+8 
            726      1.11923e+8 
            735      1.16912e+8 
            745      1.32963e+8 
            755      1.43052e+8 
            765      1.54953e+8 
            775      1.66529e+8 
            785      1.78453e+8 
            795      1.84918e+8 
            805      1.93235e+8 
            815      2.01612e+8 
            825      2.19315e+8 
            835      2.02617e+8 
            845      2.29195e+8 
            855      2.36182e+8 
            865      2.53148e+8 
            875      2.69715e+8 
            885      2.92471e+8 
            895      3.06604e+8 
            905      3.00022e+8 
            915      3.79881e+8 
            925       1.5705e+9 
            935      3.46903e+9 
            945      8.27769e+9 
            955     1.36577e+10 
            965     1.76017e+10 
            975      2.86281e+9 
            985      1.7124e+10 
            995     1.70262e+10 
           1005     2.15689e+10 
           1015     2.04618e+10 
           1025      6.63797e+9 
           1035     1.45093e+10 
           1045     2.80643e+10 
           1055      2.6183e+10 
           1065     1.89882e+10 
           1075     2.37361e+10 
           1085     2.09927e+10 
           1095     2.43832e+10 
           1105     2.12723e+10 
           1115      1.9614e+10 
           1125     1.56937e+10 
           1135     2.20027e+10 
           1145     1.85341e+10 
           1155       2.006e+10 
           1165     1.98801e+10 
           1175     1.12856e+10 
           1185     1.93974e+10 
           1195     1.62985e+10 
           1205      9.44376e+9 
           1215      6.14363e+9 
           1225     1.31901e+10 
           1235     1.87739e+10 
           1245     1.85982e+10 
           1255     1.81437e+10 
           1265     1.83849e+10 
           1275     1.90668e+10 
           1285     1.93395e+10 
           1295     1.18388e+10 
           1305      1.2285e+10 
           1315     1.84602e+10 
           1325      1.6665e+10 
           1335     1.57644e+10 
           1345      1.6685e+10 
           1355     1.64142e+10 
           1365     1.41708e+10 
           1375      1.3862e+10 
           1385     1.37101e+10 
           1395     1.00341e+10 
           1405     1.09204e+10 
           1415     1.17919e+10 
           1425      1.1921e+10 
           1435     1.22675e+10 
           1442     1.27826e+10 
           1447     1.25615e+10 
           1455     1.21549e+10 
           1465      1.0937e+10 
           1475     1.12441e+10 
           1485     1.09833e+10 
           1495     1.08603e+10 
           1505      9.47202e+9 
           1512      8.45627e+9 
           1517      8.81511e+9 
           1525       9.2636e+9 
           1535      7.75755e+9 
           1545      7.58249e+9 
           1555      7.42015e+9 
           1565      7.97458e+9 
           1575      8.51255e+9 
           1585      8.61706e+9 
           1595      8.51068e+9 
           1605      8.79602e+9 
           1615      8.65233e+9 
           1625      8.38966e+9 
           1635      9.01228e+9 
           1645      8.98685e+9 
           1655      8.71476e+9 
           1665      9.15764e+9 
           1672      8.69167e+9 
           1677      9.32765e+9 
           1685      9.21036e+9 
           1695      8.61723e+9 
           1705       8.2789e+9 
           1715      7.77827e+9 
           1725      7.60365e+9 
           1735      8.07617e+9 
           1745      7.79471e+9 
           1755      7.92667e+9 
           1765      7.61918e+9 
           1775      7.22519e+9 
           1785      7.38862e+9 
           1795       7.7858e+9 
           1805      7.87021e+9 
           1815      6.85066e+9 
           1825      7.22563e+9 
           1835      6.86828e+9 
           1845      6.20027e+9 
           1855      6.17816e+9 
           1865      6.27748e+9 
           1875      6.80403e+9 
           1885      5.94788e+9 
           1895      5.53068e+9 
           1905      6.09199e+9 
           1915      5.58413e+9 
           1925      5.32792e+9 
           1935       5.6986e+9 
           1945      5.81671e+9 
           1955      5.21977e+9 
           1967      5.77437e+9 
           1976      6.02736e+9 
           1984      5.50385e+9 
           1995      5.41692e+9 
           2005      5.69045e+9 
           2015      5.49438e+9 
           2025       5.7798e+9 
           2035      5.20542e+9 
           2045       5.3567e+9 
           2055      5.16205e+9 
           2065      5.17331e+9 
           2074      5.41525e+9 
           2078      4.84775e+9 
           2085      5.16839e+9 
           2095      4.82896e+9 
           2105      5.02949e+9 
           2115      5.04908e+9 
           2125      5.09828e+9 
           2135      4.95832e+9 
           2145      4.71626e+9 
           2155      4.93988e+9 
           2165       4.9093e+9 
           2175      4.84706e+9 
           2185      4.64861e+9 
           2195      4.74733e+9 
           2205      4.69949e+9 
           2215      4.59802e+9 
           2225      4.44538e+9 
           2235      4.44068e+9 
           2245      4.46594e+9 
           2255      4.26891e+9 
           2265      4.38133e+9 
           2275      4.31152e+9 
           2285      4.32805e+9 
           2295      3.96819e+9 
           2305      4.14294e+9 
           2315      3.98948e+9 
           2325      3.94088e+9 
           2335      3.77564e+9 
           2345      3.79146e+9 
           2355      3.79357e+9 
           2365      3.72606e+9 
           2375      3.67104e+9 
           2385      3.63356e+9 
           2395      3.64571e+9 
           2405      3.51762e+9 
           2415      3.53345e+9 
           2425      3.53857e+9 
           2435      3.39793e+9 
           2445      3.43611e+9 
           2455      3.44324e+9 
           2465      3.36471e+9 
           2475      3.30892e+9 
           2485      3.28716e+9 
           2495      2.99397e+9 
           2505      3.20312e+9 
           2513      3.01835e+9 
           2518      3.17108e+9 
           2525      3.08445e+9 
           2535      3.04439e+9 
           2545      2.93158e+9 
           2555      3.00419e+9 
           2565      2.96031e+9 
           2575       2.9852e+9 
           2585      2.96299e+9 
           2595      2.93444e+9 
           2605      2.89358e+9 
           2615      2.86301e+9 
           2625      2.83894e+9 
           2635      2.82258e+9 
           2645      2.80381e+9 
           2655      2.80181e+9 
           2665      2.66317e+9 
           2675      2.69932e+9 
           2685      2.68196e+9 
           2695       2.5803e+9 
           2705      2.53016e+9 
           2715      2.52745e+9 
           2725      2.51994e+9 
           2735      2.52235e+9 
           2745      2.41831e+9 
           2755      2.42178e+9 
           2765      2.40301e+9 
           2775       2.4412e+9 
           2785      2.39801e+9 
           2795      2.28988e+9 
           2805      2.32501e+9 
           2815      2.34094e+9 
           2825      2.29943e+9 
           2835      2.18564e+9 
           2845      2.22635e+9 
           2855      2.20024e+9 
           2865      2.21309e+9 
           2875      2.18382e+9 
           2885      2.15517e+9 
           2895      2.12718e+9 
           2910      2.08903e+9 
           2930      2.05837e+9 
           2950      1.99181e+9 
           2970      1.97126e+9 
           2990       1.9205e+9 
           3010      1.86354e+9 
           3030      1.85999e+9 
           3050      1.82324e+9 
           3070      1.79385e+9 
           3090      1.72683e+9 
           3110      1.71497e+9 
           3130      1.67651e+9 
           3150      1.64857e+9 
           3170      1.60073e+9 
           3190      1.56477e+9 
           3210      1.55191e+9 
           3230      1.51755e+9 
           3250      1.49422e+9 
           3270      1.46254e+9 
           3290      1.43347e+9 
           3310      1.40866e+9 
           3330      1.37804e+9 
           3350      1.35284e+9 
           3370      1.32614e+9 
           3390      1.30608e+9 
           3410      1.28174e+9 
           3430      1.25198e+9 
           3450      1.22459e+9 
           3470      1.20375e+9 
           3490      1.18013e+9 
           3510      1.15956e+9 
           3530      1.14293e+9 
           3550      1.12252e+9 
           3570       1.1098e+9 
           3590      1.07137e+9 
           3610      1.05699e+9 
           3630      1.04128e+9 
           3640      1.04307e+9 
           3650      1.02736e+9 
           3670      1.01636e+9 
           3690      9.99836e+8 
           3710      9.62098e+8 
           3730      9.28738e+8 
           3750      9.22019e+8 
           3770      8.95961e+8 
           3790      9.35916e+8 
           3810      9.76957e+8 
           3830      8.45355e+8 
           3850      1.00292e+9 
           3870      1.01839e+9 
           3890      7.90574e+8 
           3910      1.02134e+9 
           3930      9.99187e+8 
           3950      9.81923e+8 
           3970      7.35393e+8 
           3990       9.3912e+8 
           4010      9.54844e+8 
           4030        8.816e+8 
           4050       9.2783e+8 
           4070      8.77206e+8 
           4090       7.9505e+8 
           4110        6.948e+8 
           4130      8.35007e+8 
           4150      8.36625e+8 
           4170      8.37263e+8 
           4190      8.30427e+8 
           4210      8.24553e+8 
           4230      8.04794e+8 
           4250      7.80636e+8 
           4270      7.52988e+8 
           4290      7.50671e+8 
           4310      7.21959e+8 
           4330      6.37624e+8 
           4350      5.81245e+8 
           4370       6.8132e+8 
           4390       6.7495e+8 
           4410      6.81995e+8 
           4430      6.76178e+8 
           4450      6.68002e+8 
           4470       6.2101e+8 
           4490      6.43165e+8 
           4510      6.43993e+8 
           4530      6.31141e+8 
           4550      6.23949e+8 
           4570      6.13449e+8 
           4590      6.03465e+8 
           4610      5.87179e+8 
           4630      5.76669e+8 
           4650      5.63426e+8 
           4670      5.63568e+8 
           4690      5.59611e+8 
           4710      5.32792e+8 
           4730      5.35587e+8 
           4750      5.28214e+8 
           4770      5.29804e+8 
           4790      5.18247e+8 
           4810      5.04209e+8 
           4830      4.92468e+8 
           4850      4.42978e+8 
           4870      3.91313e+8 
           4890      4.70784e+8 
           4910      4.70535e+8 
           4930      4.49923e+8 
           4950       4.5864e+8 
           4970      4.56055e+8 
           4990      4.47867e+8 
           5010      4.24097e+8 
           5030      4.32926e+8 
           5050      4.19887e+8 
           5070      4.23146e+8 
           5090      4.15872e+8 
           5110      4.07978e+8 
           5130      3.95899e+8 
           5150      3.91978e+8 
           5170      3.92841e+8 
           5190      3.87777e+8 
           5210      3.79046e+8 
           5230      3.76813e+8 
           5250      3.72062e+8 
           5270      3.65594e+8 
           5290      3.62337e+8 
           5310      3.56807e+8 
           5330      3.51402e+8 
           5350        3.452e+8 
           5370      3.43156e+8 
           5390      3.38306e+8 
           5410      3.33827e+8 
           5430      3.28382e+8 
           5450      3.24074e+8 
           5470       3.1943e+8 
           5490      3.15944e+8 
           5510      3.12513e+8 
           5530      3.07559e+8 
           5550      3.04576e+8 
           5570      3.00231e+8 
           5590      2.96905e+8 
           5610      2.92458e+8 
           5630      2.89421e+8 
           5650      2.82277e+8 
           5670      2.77547e+8 
           5690      2.74506e+8 
           5710      2.73164e+8 
           5730      2.70377e+8 
           5750      2.66277e+8 
           5770      2.64287e+8 
           5790      2.60689e+8 
           5810      2.57346e+8 
           5830      2.53566e+8 
           5850      2.50779e+8 
           5870      2.37833e+8 
           5890       2.4064e+8 
           5910       2.4046e+8 
           5930      2.37416e+8 
           5950      2.33758e+8 
           5970      2.33156e+8 
           5990      2.28893e+8 
           6010      2.27341e+8 
           6030      2.24012e+8 
           6050      2.21576e+8 
           6070      2.19249e+8 
           6090      2.16471e+8 
           6110      2.13976e+8 
           6130       2.1169e+8 
           6150      2.06948e+8 
           6170      2.05817e+8 
           6190      2.04037e+8 
           6210      2.01777e+8 
           6230      1.99455e+8 
           6250       1.9602e+8 
           6270      1.94331e+8 
           6290      1.92335e+8 
           6310       1.8984e+8 
           6330       1.8805e+8 
           6350      1.84504e+8 
           6370      1.83152e+8 
           6390      1.81306e+8 
           6410       1.7926e+8 
           6430       1.7759e+8 
           6450      1.75314e+8 
           6470      1.72305e+8 
           6490      1.70708e+8 
           6510      1.68692e+8 
           6530      1.65452e+8 
           6550      1.54863e+8 
           6570       1.3445e+8 
           6590      1.56814e+8 
           6610      1.58996e+8 
           6630      1.57996e+8 
           6650       1.5651e+8 
           6670      1.52677e+8 
           6690      1.51159e+8 
           6710      1.51632e+8 
           6730      1.49593e+8 
           6750      1.48434e+8 
           6770      1.46835e+8 
           6790      1.43275e+8 
           6810      1.43207e+8 
           6830      1.41755e+8 
           6850      1.40503e+8 
           6870         1.39e+8 
           6890      1.37385e+8 
           6910      1.35817e+8 
           6930      1.34446e+8 
           6950       1.3319e+8 
           6970      1.31806e+8 
           6990      1.30344e+8 
           7010      1.28903e+8 
           7030      1.27569e+8 
           7050      1.26065e+8 
           7070      1.22173e+8 
           7090       1.2323e+8 
           7110      1.21338e+8 
           7130       1.2014e+8 
           7150      1.19329e+8 
           7170      1.18385e+8 
           7190      1.17392e+8 
           7210      1.16206e+8 
           7230      1.12609e+8 
           7250      1.13608e+8 
           7270      1.12663e+8 
           7290      1.10451e+8 
           7310      1.10355e+8 
           7330      1.09214e+8 
           7350      1.08181e+8 
           7370      1.07102e+8 
           7390       1.0602e+8 
           7410      1.04961e+8 
           7430      1.03735e+8 
           7450      1.02819e+8 
           7470      1.01303e+8 
           7490      1.00709e+8 
           7510      9.97062e+7 
           7530      9.86524e+7 
           7550      9.78594e+7 
           7570      9.69157e+7 
           7590      9.59217e+7 
           7610      9.49303e+7 
           7630      9.40644e+7 
           7650      9.31741e+7 
           7670      9.22662e+7 
           7690      9.13664e+7 
           7710      9.04747e+7 
           7730      8.95721e+7 
           7750      8.87717e+7 
           7770      8.70798e+7 
           7790      8.70802e+7 
           7810      8.61963e+7 
           7830      8.54308e+7 
           7850       8.4403e+7 
           7870      8.36036e+7 
           7890      8.24964e+7 
           7910       8.2152e+7 
           7930      8.14207e+7 
           7950      8.03737e+7 
           7970      7.98166e+7 
           7990      7.87094e+7 
           8010      7.83169e+7 
           8030       7.7565e+7 
           8050      7.68312e+7 
           8070      7.61327e+7 
           8090      7.53884e+7 
           8110      7.44442e+7 
           8130      7.40613e+7 
           8150      7.33863e+7 
           8170      7.27791e+7 
           8190      7.18456e+7 
           8210      7.11439e+7 
           8230      7.02979e+7 
           8250      7.01346e+7 
           8270      6.89145e+7 
           8290      6.88455e+7 
           8310      6.82799e+7 
           8330      6.76864e+7 
           8350       6.6752e+7 
           8370      6.63097e+7 
           8390       6.5919e+7 
           8410      6.53022e+7 
           8430      6.47012e+7 
           8450        6.334e+7 
           8470      6.35926e+7 
           8490      6.28021e+7 
           8510      6.23616e+7 
           8530      6.17381e+7 
           8550       6.1027e+7 
           8570      6.09528e+7 
           8590      5.91224e+7 
