# Kurucz ODFNEW /NOVER (2003)
# teff = 3500 K (value for the effective temperature for the model. Temperatures are given in K)
# logg = 2.5 log(cm/s2) (value for Log(G) for the model.)
# meta = -4  (value for the Metallicity for the model.)
# lh = 1.25  (l/Hp where l is the  mixing length of the convective element and Hp is the pressure scale height)
# vtur = 2 km/s (Microturbulence velocity)
# alpha = 0.4  (Alpha)
#
# column 1: WAVELENGTH (ANGSTROM), Wavelength in Angstrom
# column 2: FLUX (ERG/CM2/S/A), Flux in erg/cm2/s/A
          147.2     1.73866e-35 
            151     1.65225e-35 
          155.2     1.56403e-35 
          158.8     1.49392e-35 
            162     1.43549e-35 
            166     1.36714e-35 
          170.3     1.29897e-35 
          173.4     1.25294e-35 
          176.8     1.20522e-35 
          180.2     1.16017e-35 
          181.7     1.14109e-35 
          186.1     1.08777e-35 
            191     1.03267e-35 
          193.9     1.00201e-35 
          198.4     9.57076e-36 
          201.8     9.25097e-36 
            205     8.96441e-36 
          210.5     8.50208e-36 
          216.2     8.05969e-36 
          219.8     7.79784e-36 
            223     7.57565e-36 
          226.8     7.32392e-36 
            230     7.12154e-36 
            234     6.88015e-36 
            240     6.54044e-36 
          246.5     6.20006e-36 
          252.4     5.91358e-36 
          256.8     5.71267e-36 
            260     5.57292e-36 
            264     5.40532e-36 
          268.5     5.22566e-36 
          273.5     5.03634e-36 
          278.5     4.85712e-36 
            284     4.67082e-36 
            290     4.47954e-36 
            296     4.29978e-36 
            301     4.15812e-36 
            308     3.97126e-36 
            318     3.72542e-36 
            328     3.50172e-36 
            338     3.29759e-36 
            348     3.11079e-36 
            357     2.95592e-36 
            366     2.81234e-36 
            375     2.67896e-36 
            385     2.54161e-36 
            395     2.41455e-36 
            405     2.29678e-36 
            414     2.19801e-36 
            422     2.11546e-36 
            430     2.03748e-36 
            441      1.9371e-36 
            451     1.85215e-36 
            460     1.78038e-36 
            470     1.70543e-36 
            480     1.63511e-36 
            490     1.56905e-36 
            500     1.50692e-36 
            506     1.47139e-36 
            512     1.43711e-36 
            520     1.39323e-36 
            530     1.34115e-36 
            540     1.29194e-36 
            550     1.24539e-36 
            560     1.20131e-36 
            570     1.15952e-36 
            580     1.11989e-36 
            590     1.08224e-36 
            600     1.04647e-36 
            610     1.01244e-36 
            620     9.80045e-37 
            630      9.4918e-37 
            640      9.1975e-37 
            650     8.91667e-37 
            658     8.70117e-37 
            665     8.51895e-37 
            675     8.26841e-37 
            685     8.02876e-37 
            695     7.79938e-37 
            705     7.57969e-37 
            716     7.34858e-37 
            726     7.14754e-37 
            735     6.97357e-37 
            745     6.78761e-37 
            755       6.609e-37 
            765     6.43734e-37 
            775     6.27229e-37 
            785      6.1135e-37 
            795     5.96067e-37 
            805      5.8135e-37 
            815     5.67171e-37 
            825     5.53505e-37 
            835     5.40327e-37 
            845     5.27614e-37 
            855     5.15344e-37 
            865     5.03498e-37 
            875     4.92055e-37 
            885     4.80998e-37 
            895     4.70309e-37 
            905     4.59973e-37 
            915     1.75602e-21 
            925     1.15067e-20 
            935     2.40153e-20 
            945     4.99269e-20 
            955     1.00624e-19 
            965     1.99938e-19 
            975      3.9141e-19 
            985      1.0247e-18 
            995      1.9532e-18 
           1005     3.69171e-18 
           1015     6.85681e-18 
           1025     1.26499e-17 
           1035        2.87e-17 
           1045     5.16059e-17 
           1055     7.31306e-17 
           1065     1.60762e-16 
           1075     2.79473e-16 
           1085     5.80731e-16 
           1095     8.26777e-16 
           1105     1.66853e-15 
           1115     2.82508e-15 
           1125     4.69623e-15 
           1135     9.14316e-15 
           1145     1.48577e-14 
           1155     2.40238e-14 
           1165      3.7453e-14 
           1175      6.6509e-14 
           1185     1.10554e-13 
           1195     1.60358e-13 
           1205     2.44265e-13 
           1215     1.87425e-13 
           1225     5.69403e-13 
           1235     9.77277e-13 
           1245     1.22105e-12 
           1255     2.16038e-12 
           1265     3.97535e-12 
           1275     6.02489e-12 
           1285     1.18591e-11 
           1295     1.69562e-11 
           1305     4.08047e-11 
           1315     6.72251e-11 
           1325     1.30671e-10 
           1335     1.74159e-10 
           1345      3.1881e-10 
           1355     4.89147e-10 
           1365     8.21648e-10 
           1375      1.19487e-9 
           1385       1.6529e-9 
           1395      2.44174e-9 
           1405      3.64549e-9 
           1415      6.14722e-9 
           1425      7.37031e-9 
           1435      1.24466e-8 
           1442      1.96756e-8 
           1447       1.5877e-8 
           1455      2.40965e-8 
           1465      2.88064e-8 
           1475      4.01729e-8 
           1485      5.11497e-8 
           1495      8.69401e-8 
           1505      1.32977e-7 
           1512      1.12514e-7 
           1517      1.26535e-7 
           1525      2.77004e-7 
           1535      8.67674e-7 
           1545      6.59514e-7 
           1555      1.14015e-6 
           1565      1.14545e-6 
           1575      1.69243e-6 
           1585      2.01049e-6 
           1595      2.10339e-6 
           1605       2.4202e-6 
           1615      4.13774e-6 
           1625      6.07247e-6 
           1635      1.04874e-5 
           1645      2.20383e-5 
           1655      2.34907e-5 
           1665      5.31102e-5 
           1672      6.21548e-5 
           1677     0.000110434 
           1685     0.000159265 
           1695     0.000262463 
           1705     0.000350341 
           1715      0.00049153 
           1725     0.000803246 
           1735      0.00104654 
           1745      0.00167677 
           1755      0.00188975 
           1765      0.00255202 
           1775      0.00256878 
           1785      0.00536831 
           1795      0.00486073 
           1805      0.00855833 
           1815      0.00692042 
           1825       0.0113789 
           1835       0.0116949 
           1845       0.0157951 
           1855       0.0147417 
           1865       0.0278565 
           1875       0.0282556 
           1885       0.0383523 
           1895       0.0528341 
           1905       0.0559038 
           1915       0.0865264 
           1925       0.0834439 
           1935        0.064664 
           1945        0.127239 
           1955        0.181434 
           1967        0.222663 
           1976        0.253657 
           1984        0.324918 
           1995        0.332305 
           2005        0.417211 
           2015        0.504622 
           2025        0.394275 
           2035        0.658154 
           2045        0.747725 
           2055         0.89708 
           2065        0.915093 
           2074        0.887638 
           2078         1.20773 
           2085         1.35787 
           2095         1.70965 
           2105         1.81928 
           2115         2.06041 
           2125          1.8934 
           2135         3.08964 
           2145         2.63111 
           2155          3.3061 
           2165         3.12557 
           2175         3.64463 
           2185         3.63344 
           2195          5.7069 
           2205         5.31897 
           2215         5.31444 
           2225         5.69079 
           2235         9.15196 
           2245         10.9901 
           2255         11.6708 
           2265         7.82579 
           2275         12.5481 
           2285         14.9697 
           2295         19.4672 
           2305         10.0283 
           2315         25.6445 
           2325         25.0592 
           2335         37.0426 
           2345         24.6493 
           2355         25.7351 
           2365         30.3136 
           2375         31.1115 
           2385         43.3016 
           2395         45.8103 
           2405         69.2101 
           2415         50.0439 
           2425         64.4024 
           2435         86.3096 
           2445         108.134 
           2455         119.619 
           2465         93.5341 
           2475         113.038 
           2485         50.5037 
           2495         73.6571 
           2505         108.876 
           2513         73.4111 
           2518         50.3288 
           2525         72.1241 
           2535         164.668 
           2545         192.563 
           2555         262.048 
           2565         238.621 
           2575         281.015 
           2585         302.907 
           2595          303.15 
           2605         335.652 
           2615          321.95 
           2625         392.632 
           2635         485.701 
           2645         513.801 
           2655           610.6 
           2665         610.057 
           2675         592.237 
           2685         655.925 
           2695         618.751 
           2705          754.64 
           2715         681.476 
           2725         615.653 
           2735         745.025 
           2745         782.905 
           2755         805.623 
           2765         990.358 
           2775         1030.39 
           2785         927.662 
           2795         630.629 
           2805         733.825 
           2815         903.336 
           2825         912.152 
           2835         751.141 
           2845         425.884 
           2855         157.462 
           2865         731.591 
           2875         1068.71 
           2885          1292.7 
           2895         1543.41 
           2910         1912.32 
           2930         2256.89 
           2950         2300.68 
           2970         2378.53 
           2990         2706.94 
           3010         2899.04 
           3030          3127.9 
           3050         3666.78 
           3070         3037.61 
           3090         2957.66 
           3110         3751.01 
           3130         3991.52 
           3150         4512.02 
           3170         5755.41 
           3190          6014.8 
           3210         6940.03 
           3230         7453.41 
           3250         9103.21 
           3270         10632.2 
           3290         11128.5 
           3310         10622.7 
           3330         10477.8 
           3350         10343.3 
           3370         7935.04 
           3390         10854.3 
           3410         12713.7 
           3430         15487.5 
           3450         15608.5 
           3470         17563.5 
           3490         19918.9 
           3510           22114 
           3530         22962.5 
           3550         26815.7 
           3570         24560.2 
           3590         25633.7 
           3610         28566.7 
           3630         30997.4 
           3640         33033.8 
           3650           32624 
           3670         36476.1 
           3690         36527.2 
           3710         37210.1 
           3730         29306.2 
           3750         34467.6 
           3770           43987 
           3790           46763 
           3810         49011.3 
           3830         41404.8 
           3850         49472.3 
           3870         48328.4 
           3890         51101.6 
           3910         54988.6 
           3930         36853.6 
           3950         58552.7 
           3970           47655 
           3990         70993.6 
           4010         77135.3 
           4030         75863.6 
           4050         81165.9 
           4070         82326.1 
           4090         83919.1 
           4110         66480.4 
           4130         76821.7 
           4150         70397.9 
           4170           74666 
           4190           83474 
           4210         84676.5 
           4230         90046.7 
           4250         98021.6 
           4270         99078.7 
           4290         98595.1 
           4310         98164.9 
           4330          122015 
           4350          125150 
           4370          127708 
           4390          130201 
           4410          138844 
           4430          146924 
           4450          152119 
           4470          157488 
           4490          162630 
           4510          168890 
           4530          166426 
           4550          174865 
           4570          180672 
           4590          186021 
           4610          190119 
           4630          196564 
           4650          197943 
           4670          205355 
           4690          208694 
           4710          213463 
           4730          217589 
           4750          221488 
           4770          222764 
           4790          226835 
           4810          235797 
           4830          239258 
           4850          245152 
           4870          248718 
           4890          253541 
           4910          259465 
           4930          260418 
           4950          263822 
           4970          270351 
           4990          266856 
           5010          263124 
           5030          270714 
           5050          267806 
           5070          270109 
           5090          270143 
           5110          265796 
           5130          265760 
           5150          257777 
           5170          253714 
           5190          277889 
           5210          282157 
           5230          328911 
           5250          336183 
           5270          332279 
           5290          346788 
           5310          354121 
           5330          348976 
           5350          359073 
           5370          362713 
           5390          366212 
           5410          369932 
           5430          372348 
           5450          376444 
           5470          387710 
           5490          391802 
           5510          392388 
           5530          402305 
           5550          406700 
           5570          410281 
           5590          413065 
           5610          419031 
           5630          425080 
           5650          430373 
           5670          434174 
           5690          438737 
           5710          441862 
           5730          446838 
           5750          451061 
           5770          455125 
           5790          459043 
           5810          462987 
           5830          467219 
           5850          470756 
           5870          474726 
           5890          460779 
           5910          482300 
           5930          486048 
           5950          489629 
           5970          493922 
           5990          497622 
           6010          501293 
           6030          505039 
           6050          508673 
           6070          511922 
           6090          515462 
           6110          518713 
           6130          518131 
           6150          525534 
           6170          524755 
           6190          532165 
           6210          535542 
           6230          538049 
           6250          539925 
           6270          544114 
           6290          548191 
           6310          551562 
           6330          554683 
           6350          558370 
           6370          561321 
           6390          564207 
           6410          566321 
           6430          568863 
           6450          571354 
           6470          574334 
           6490          575441 
           6510          581316 
           6530          584493 
           6550          586399 
           6570          587661 
           6590          591933 
           6610          594702 
           6630          597547 
           6650          599947 
           6670          601918 
           6690          605017 
           6710          607180 
           6730          609840 
           6750          611532 
           6770          614376 
           6790          616678 
           6810          618870 
           6830          621170 
           6850          623297 
           6870          625244 
           6890          627476 
           6910          629388 
           6930          631526 
           6950          633177 
           6970          635481 
           6990          637193 
           7010          639135 
           7030          640924 
           7050          642955 
           7070          644432 
           7090          646152 
           7110          647888 
           7130          649661 
           7150          650497 
           7170          652809 
           7190          654210 
           7210          655159 
           7230          657550 
           7250          658235 
           7270          660434 
           7290          661948 
           7310          663266 
           7330          664412 
           7350          665411 
           7370          667027 
           7390          668264 
           7410          669402 
           7430          670635 
           7450          671824 
           7470          673039 
           7490          674217 
           7510          675306 
           7530          676508 
           7550          677422 
           7570          678581 
           7590          679456 
           7610          680443 
           7630          681475 
           7650          682230 
           7670          681878 
           7690          683815 
           7710          684074 
           7730          685457 
           7750          685938 
           7770          687029 
           7790          687727 
           7810          688471 
           7830          689014 
           7850          689603 
           7870          690360 
           7890          690920 
           7910          691344 
           7930          691935 
           7950          692273 
           7970          692954 
           7990          693384 
           8010          693801 
           8030          694205 
           8050          694306 
           8070          694861 
           8090          695286 
           8110          695641 
           8130          695985 
           8150          696260 
           8170          696467 
           8190          696103 
           8210          696628 
           8230          697028 
           8250          697250 
           8270          697518 
           8290          697610 
           8310          697529 
           8330          694401 
           8350          697724 
           8370          697459 
           8390          690124 
           8410          697232 
           8430          690429 
           8450          697822 
           8470          696578 
           8490          696279 
           8510          684999 
           8530          696651 
           8550          665000 
           8570          697344 
