# Kurucz ODFNEW /NOVER (2003)
# teff = 10000 K (value for the effective temperature for the model. Temperatures are given in K)
# logg = 3.5 log(cm/s2) (value for Log(G) for the model.)
# meta = 0  (value for the Metallicity for the model.)
# lh = 1.25  (l/Hp where l is the  mixing length of the convective element and Hp is the pressure scale height)
# vtur = 2 km/s (Microturbulence velocity)
# alpha = 0.4  (Alpha)
#
# column 1: WAVELENGTH (ANGSTROM), Wavelength in Angstrom
# column 2: FLUX (ERG/CM2/S/A), Flux in erg/cm2/s/A
          273.5     3.37611e-23 
          278.5     1.48696e-22 
            284     6.42377e-22 
            290     2.91726e-21 
            296     1.24105e-20 
            301     3.99304e-20 
            308     1.92952e-19 
            318     1.63434e-18 
            328     1.22574e-17 
            338     8.20242e-17 
            348     4.95643e-16 
            357       2.329e-15 
            366     1.00803e-14 
            375     4.06667e-14 
            385      1.7836e-13 
            395     7.25595e-13 
            405     2.76601e-12 
            414     8.73312e-12 
            422     2.33124e-11 
            430     5.97633e-11 
            441     2.08374e-10 
            451     6.12914e-10 
            460      1.55493e-9 
            470       4.1945e-9 
            480      1.08571e-8 
            490      2.70599e-8 
            500      6.49135e-8 
            506      1.44775e-7 
            512      2.62014e-7 
            520      4.88871e-7 
            530      1.04336e-6 
            540      2.14087e-6 
            550      4.34017e-6 
            560      8.51798e-6 
            570      1.63238e-5 
            580      3.03455e-5 
            590      5.59921e-5 
            600     0.000100499 
            610     0.000177278 
            620     0.000306343 
            630     0.000520226 
            640      0.00086748 
            650      0.00142631 
            658      0.00209803 
            665      0.00291433 
            675      0.00461179 
            685      0.00720139 
            695       0.0110915 
            705       0.0168284 
            716       0.0263432 
            726        0.039052 
            735       0.0551218 
            745        0.079992 
            755        0.114911 
            765         0.16336 
            775        0.230206 
            785        0.321448 
            795        0.443826 
            805        0.609255 
            815        0.829658 
            825         1.11974 
            835         1.49698 
            845         1.99127 
            855         2.62722 
            865         3.44443 
            875         4.48114 
            885         5.80276 
            895         7.46051 
            905          9.5196 
            915         287.475 
            925         2205.32 
            935         3585.29 
            945         5745.28 
            955         8534.84 
            965         11203.3 
            975          9662.5 
            985           15068 
            995         16197.4 
           1005         20207.9 
           1015         23185.4 
           1025         17995.5 
           1035           29525 
           1045           35892 
           1055         41395.3 
           1065         44647.2 
           1075           52694 
           1085         59650.8 
           1095         63065.5 
           1105          135669 
           1115       2.7729e+6 
           1125      4.32921e+6 
           1135      6.12312e+6 
           1145      5.55371e+6 
           1155      6.42913e+6 
           1165      6.61679e+6 
           1175      4.72882e+6 
           1185      3.25427e+6 
           1195          162822 
           1205          187020 
           1215         40083.9 
           1225          189760 
           1235          513092 
           1245      4.18916e+6 
           1255      1.98812e+7 
           1265      1.45717e+7 
           1275      4.34868e+7 
           1285       6.8936e+7 
           1295       5.6576e+7 
           1305      1.69205e+7 
           1315      6.20575e+7 
           1325      8.15956e+7 
           1335      7.10538e+7 
           1345      9.31773e+7 
           1355      8.68518e+7 
           1365      7.31814e+7 
           1375      8.18667e+7 
           1385      8.02057e+7 
           1395      8.43197e+7 
           1405      8.55379e+7 
           1415      8.16933e+7 
           1425      9.38788e+7 
           1435      8.34203e+7 
           1442      9.62367e+7 
           1447      1.06532e+8 
           1455      1.07362e+8 
           1465      9.72689e+7 
           1475      9.01345e+7 
           1485      9.79807e+7 
           1495      1.08215e+8 
           1505      1.08128e+8 
           1512      9.60797e+7 
           1517      1.06866e+8 
           1525      9.66825e+7 
           1535       9.4653e+7 
           1545       1.2993e+8 
           1555      1.06248e+8 
           1565      9.39999e+7 
           1575      1.16143e+8 
           1585      1.32691e+8 
           1595      1.43341e+8 
           1605      1.33891e+8 
           1615      1.32495e+8 
           1625      1.17472e+8 
           1635      1.21923e+8 
           1645      1.32684e+8 
           1655      1.11403e+8 
           1665       1.2921e+8 
           1672      8.66674e+7 
           1677      1.23895e+8 
           1685      1.39229e+8 
           1695      1.26018e+8 
           1705      1.18573e+8 
           1715      1.17573e+8 
           1725      1.16184e+8 
           1735      1.25024e+8 
           1745       1.2288e+8 
           1755       1.3764e+8 
           1765      1.13714e+8 
           1775      1.29031e+8 
           1785      1.27885e+8 
           1795       1.4295e+8 
           1805      1.33311e+8 
           1815      1.32727e+8 
           1825      1.26503e+8 
           1835      1.21335e+8 
           1845      1.10926e+8 
           1855      1.18394e+8 
           1865      1.18676e+8 
           1875      1.25108e+8 
           1885      1.23296e+8 
           1895      1.21683e+8 
           1905      1.14067e+8 
           1915      1.21323e+8 
           1925      1.22699e+8 
           1935      1.20307e+8 
           1945      1.24968e+8 
           1955      1.23082e+8 
           1967      1.28595e+8 
           1976      1.27552e+8 
           1984      1.22391e+8 
           1995      1.18565e+8 
           2005      1.18369e+8 
           2015      1.09932e+8 
           2025      1.13369e+8 
           2035      1.14687e+8 
           2045      1.18729e+8 
           2055      1.10288e+8 
           2065      1.10734e+8 
           2074      1.16886e+8 
           2078       1.2004e+8 
           2085      1.17944e+8 
           2095      1.13602e+8 
           2105      1.10161e+8 
           2115      1.09703e+8 
           2125      1.11201e+8 
           2135      9.35744e+7 
           2145      1.05379e+8 
           2155       1.0708e+8 
           2165      1.01697e+8 
           2175      1.00167e+8 
           2185      9.95832e+7 
           2195      1.05559e+8 
           2205      1.00629e+8 
           2215      9.16595e+7 
           2225       8.9148e+7 
           2235      9.96723e+7 
           2245      8.94952e+7 
           2255      8.70511e+7 
           2265      8.87515e+7 
           2275      9.44221e+7 
           2285      9.72484e+7 
           2295      9.12386e+7 
           2305      8.84349e+7 
           2315      8.47693e+7 
           2325      8.43693e+7 
           2335      7.81343e+7 
           2345      7.26874e+7 
           2355      8.32184e+7 
           2365      7.29518e+7 
           2375       7.7969e+7 
           2385      6.79186e+7 
           2395       7.5779e+7 
           2405      7.14311e+7 
           2415       7.4064e+7 
           2425      7.94699e+7 
           2435      7.55463e+7 
           2445      8.10803e+7 
           2455      7.75771e+7 
           2465      7.76247e+7 
           2475      7.40836e+7 
           2485      7.89974e+7 
           2495      7.61081e+7 
           2505      8.38527e+7 
           2513      7.46877e+7 
           2518      7.61382e+7 
           2525       7.0635e+7 
           2535      6.96392e+7 
           2545      6.98607e+7 
           2555      7.45088e+7 
           2565      7.37343e+7 
           2575      7.92591e+7 
           2585      7.89403e+7 
           2595       7.7175e+7 
           2605      7.35469e+7 
           2615      7.30957e+7 
           2625      7.75314e+7 
           2635        7.772e+7 
           2645      8.62447e+7 
           2655      8.48694e+7 
           2665      7.71364e+7 
           2675      8.09832e+7 
           2685      7.98899e+7 
           2695      7.69743e+7 
           2705      7.90527e+7 
           2715       7.4996e+7 
           2725      7.57759e+7 
           2735      8.15937e+7 
           2745       6.9226e+7 
           2755      6.93696e+7 
           2765      7.13473e+7 
           2775      7.67438e+7 
           2785      7.37943e+7 
           2795      4.96276e+7 
           2805      5.81132e+7 
           2815      7.72121e+7 
           2825      7.88379e+7 
           2835      7.57797e+7 
           2845      7.28881e+7 
           2855      7.05204e+7 
           2865      7.52979e+7 
           2875      7.29793e+7 
           2885      7.45472e+7 
           2895      7.16148e+7 
           2910      7.87973e+7 
           2930      7.53029e+7 
           2950      7.53372e+7 
           2970      7.63931e+7 
           2990      7.65334e+7 
           3010      7.77651e+7 
           3030       7.6549e+7 
           3050      7.52365e+7 
           3070      7.38797e+7 
           3090      7.49466e+7 
           3110      7.28367e+7 
           3130      7.24741e+7 
           3150      7.31172e+7 
           3170      7.24412e+7 
           3190       6.9692e+7 
           3210       7.0903e+7 
           3230      6.91791e+7 
           3250      6.97141e+7 
           3270      6.95334e+7 
           3290      7.00131e+7 
           3310      7.00464e+7 
           3330      6.82631e+7 
           3350      6.70879e+7 
           3370      6.71133e+7 
           3390      6.65171e+7 
           3410      6.74725e+7 
           3430      6.72163e+7 
           3450      6.65247e+7 
           3470      6.55692e+7 
           3490      6.51106e+7 
           3510      6.54165e+7 
           3530      6.53817e+7 
           3550      6.52061e+7 
           3570      6.40578e+7 
           3590      6.36238e+7 
           3610      6.33139e+7 
           3630      6.28125e+7 
           3640      6.24252e+7 
           3650      6.37124e+7 
           3670      6.30311e+7 
           3690      6.03548e+7 
           3710      6.43999e+7 
           3730      6.92269e+7 
           3750      9.39808e+7 
           3770       1.0097e+8 
           3790      1.25395e+8 
           3810      1.43294e+8 
           3830      1.12542e+8 
           3850      1.52471e+8 
           3870      1.68177e+8 
           3890      9.93925e+7 
           3910      1.64212e+8 
           3930      1.62935e+8 
           3950      1.63136e+8 
           3970      9.35436e+7 
           3990      1.56813e+8 
           4010      1.63501e+8 
           4030      1.60818e+8 
           4050      1.59893e+8 
           4070      1.54739e+8 
           4090      1.29452e+8 
           4110      9.90191e+7 
           4130      1.45838e+8 
           4150      1.49563e+8 
           4170      1.46388e+8 
           4190      1.45262e+8 
           4210      1.43945e+8 
           4230      1.41031e+8 
           4250      1.38931e+8 
           4270      1.36461e+8 
           4290      1.34735e+8 
           4310      1.28896e+8 
           4330      1.03764e+8 
           4350      8.81892e+7 
           4370      1.25495e+8 
           4390       1.2401e+8 
           4410      1.23845e+8 
           4430      1.22552e+8 
           4450      1.21796e+8 
           4470      1.19952e+8 
           4490      1.16896e+8 
           4510      1.17028e+8 
           4530      1.14912e+8 
           4550      1.12257e+8 
           4570      1.12687e+8 
           4590      1.10386e+8 
           4610       1.1093e+8 
           4630      1.07672e+8 
           4650      1.07967e+8 
           4670       1.0625e+8 
           4690      1.04568e+8 
           4710      1.01482e+8 
           4730      1.02364e+8 
           4750      1.01031e+8 
           4770      9.99456e+7 
           4790      9.84658e+7 
           4810      9.64828e+7 
           4830      9.37944e+7 
           4850      7.67104e+7 
           4870      6.19588e+7 
           4890      8.93153e+7 
           4910      9.06535e+7 
           4930      8.92607e+7 
           4950      8.90897e+7 
           4970      8.83589e+7 
           4990      8.69818e+7 
           5010      8.46572e+7 
           5030      8.43621e+7 
           5050      8.26493e+7 
           5070      8.27811e+7 
           5090       8.1844e+7 
           5110      8.07328e+7 
           5130      7.98655e+7 
           5150      7.85901e+7 
           5170      7.69219e+7 
           5190      7.60883e+7 
           5210      7.58203e+7 
           5230      7.43931e+7 
           5250       7.4329e+7 
           5270      7.23389e+7 
           5290      7.27151e+7 
           5310      7.11917e+7 
           5330      7.02818e+7 
           5350      7.03351e+7 
           5370      6.94202e+7 
           5390       6.8613e+7 
           5410       6.7539e+7 
           5430      6.68699e+7 
           5450      6.64409e+7 
           5470      6.55769e+7 
           5490      6.49287e+7 
           5510      6.41741e+7 
           5530        6.342e+7 
           5550      6.28647e+7 
           5570      6.21505e+7 
           5590      6.15137e+7 
           5610      6.09131e+7 
           5630      6.02565e+7 
           5650      5.94353e+7 
           5670      5.88034e+7 
           5690      5.82721e+7 
           5710      5.76636e+7 
           5730      5.70781e+7 
           5750      5.64037e+7 
           5770      5.58357e+7 
           5790      5.51776e+7 
           5810      5.46176e+7 
           5830      5.40473e+7 
           5850       5.3489e+7 
           5870      5.27993e+7 
           5890      5.20874e+7 
           5910      5.17861e+7 
           5930      5.12692e+7 
           5950      5.05346e+7 
           5970      5.01564e+7 
           5990      4.94724e+7 
           6010      4.91092e+7 
           6030      4.86441e+7 
           6050      4.80781e+7 
           6070      4.76411e+7 
           6090       4.7152e+7 
           6110      4.66702e+7 
           6130      4.61707e+7 
           6150      4.50741e+7 
           6170      4.52078e+7 
           6190      4.48188e+7 
           6210      4.43567e+7 
           6230      4.38831e+7 
           6250      4.31629e+7 
           6270      4.30394e+7 
           6290      4.26205e+7 
           6310      4.21227e+7 
           6330      4.17563e+7 
           6350      4.08416e+7 
           6370      4.06227e+7 
           6390      4.05155e+7 
           6410      4.00668e+7 
           6430      3.97296e+7 
           6450      3.90036e+7 
           6470      3.89384e+7 
           6490      3.83839e+7 
           6510      3.79164e+7 
           6530      3.70837e+7 
           6550      3.29123e+7 
           6570      2.65156e+7 
           6590      3.53142e+7 
           6610      3.60484e+7 
           6630      3.59109e+7 
           6650      3.56578e+7 
           6670      3.53545e+7 
           6690      3.50332e+7 
           6710      3.47276e+7 
           6730      3.43144e+7 
           6750       3.4046e+7 
           6770      3.37703e+7 
           6790       3.3432e+7 
           6810      3.31335e+7 
           6830      3.27936e+7 
           6850        3.251e+7 
           6870      3.22157e+7 
           6890      3.19258e+7 
           6910      3.16236e+7 
           6930      3.13174e+7 
           6950      3.10509e+7 
           6970       3.0762e+7 
           6990      3.04961e+7 
           7010      3.00831e+7 
           7030      2.99343e+7 
           7050      2.96404e+7 
           7070      2.93908e+7 
           7090      2.91435e+7 
           7110      2.87644e+7 
           7130      2.85936e+7 
           7150      2.83056e+7 
           7170      2.80945e+7 
           7190      2.78473e+7 
           7210      2.76075e+7 
           7230       2.7344e+7 
           7250      2.70607e+7 
           7270      2.68807e+7 
           7290      2.66249e+7 
           7310       2.6392e+7 
           7330      2.61767e+7 
           7350      2.59577e+7 
           7370      2.57372e+7 
           7390      2.55043e+7 
           7410      2.52653e+7 
           7430      2.49513e+7 
           7450      2.47958e+7 
           7470      2.45363e+7 
           7490      2.43806e+7 
           7510      2.41828e+7 
           7530       2.4008e+7 
           7550      2.38102e+7 
           7570      2.35978e+7 
           7590      2.33984e+7 
           7610      2.32131e+7 
           7630      2.30094e+7 
           7650      2.28024e+7 
           7670      2.26119e+7 
           7690      2.24205e+7 
           7710      2.22289e+7 
           7730      2.20598e+7 
           7750      2.18759e+7 
           7770      2.12286e+7 
           7790      2.15158e+7 
           7810      2.13397e+7 
           7830      2.11546e+7 
           7850      2.09375e+7 
           7870      2.06999e+7 
           7890      2.04662e+7 
           7910      2.04501e+7 
           7930      2.02908e+7 
           7950      1.99873e+7 
           7970      1.99803e+7 
           7990      1.95198e+7 
           8010      1.96538e+7 
           8030      1.94917e+7 
           8050      1.93345e+7 
           8070      1.91787e+7 
           8090       1.9027e+7 
           8110      1.88634e+7 
           8130      1.87268e+7 
           8150        1.858e+7 
           8170      1.84338e+7 
           8190      1.82068e+7 
           8210      1.81054e+7 
           8230      1.79057e+7 
           8250      1.78832e+7 
           8270      1.78596e+7 
           8290      1.77045e+7 
           8310      1.75915e+7 
           8330      1.74062e+7 
           8350      1.73078e+7 
           8370      1.71552e+7 
           8390      1.69836e+7 
           8410      1.67767e+7 
           8430       1.6641e+7 
           8450       1.6308e+7 
           8470      1.59848e+7 
           8490      1.65023e+7 
           8510      1.54031e+7 
           8530      1.65695e+7 
           8550      1.45183e+7 
           8570      1.67809e+7 
           8590      1.53483e+7 
           8610       1.4895e+7 
           8630      1.69839e+7 
           8650      1.62192e+7 
           8670      1.31494e+7 
           8690       1.6597e+7 
           8710      1.72593e+7 
           8730      1.65362e+7 
           8750      1.26994e+7 
           8770      1.56554e+7 
           8790       1.7046e+7 
           8810       1.7044e+7 
           8830      1.66122e+7 
           8850      1.47878e+7 
           8870      1.22906e+7 
           8890      1.58372e+7 
           8910      1.63489e+7 
           8930      1.63258e+7 
           8950       1.6331e+7 
           8970      1.60907e+7 
           8990       1.5408e+7 
           9010      1.20852e+7 
           9030      1.33171e+7 
           9050      1.53019e+7 
           9070      1.53485e+7 
           9090       1.5246e+7 
           9110      1.53198e+7 
           9130      1.52659e+7 
           9150      1.51776e+7 
           9170      1.49892e+7 
           9190       1.4655e+7 
