# Kurucz ODFNEW /NOVER (2003)
# teff = 6750 K (value for the effective temperature for the model. Temperatures are given in K)
# logg = 1 log(cm/s2) (value for Log(G) for the model.)
# meta = -2  (value for the Metallicity for the model.)
# lh = 1.25  (l/Hp where l is the  mixing length of the convective element and Hp is the pressure scale height)
# vtur = 2 km/s (Microturbulence velocity)
# alpha = 0  (Alpha)
#
# column 1: WAVELENGTH (ANGSTROM), Wavelength in Angstrom
# column 2: FLUX (ERG/CM2/S/A), Flux in erg/cm2/s/A
            375     1.17012e-26 
            385     9.75798e-26 
            395     7.26392e-25 
            405     4.87239e-24 
            414     2.48792e-23 
            422     9.96106e-23 
            430     3.77667e-22 
            441      2.1713e-21 
            451     9.83974e-21 
            460     3.61258e-20 
            470     1.44082e-19 
            480     5.40208e-19 
            490      1.9133e-18 
            500      6.4145e-18 
            506     1.71962e-17 
            512     3.83377e-17 
            520     9.26554e-17 
            530     2.70054e-16 
            540     7.42555e-16 
            550     1.98627e-15 
            560     5.08597e-15 
            570     1.25658e-14 
            580     2.96803e-14 
            590     6.94195e-14 
            600     1.55757e-13 
            610     3.39512e-13 
            620      7.2002e-13 
            630     1.48765e-12 
            640     2.99976e-12 
            650     5.90783e-12 
            658     9.99591e-12 
            665      1.5657e-11 
            675     2.91991e-11 
            685     5.33696e-11 
            695     9.57062e-11 
            705     1.68481e-10 
            716     3.07597e-10 
            726     5.22378e-10 
            735     8.30133e-10 
            745      1.36886e-9 
            755      2.22419e-9 
            765      3.56288e-9 
            775       5.6302e-9 
            785      8.78144e-9 
            795      1.35218e-8 
            805      2.05786e-8 
            815      3.09534e-8 
            825       4.6045e-8 
            835      6.77732e-8 
            845      9.87218e-8 
            855      1.42374e-7 
            865      2.03358e-7 
            875      2.87759e-7 
            885      4.03639e-7 
            895      5.61314e-7 
            905      7.73951e-7 
            915      0.00787319 
            925       0.0322408 
            935       0.0408767 
            945       0.0608445 
            955       0.0891197 
            965        0.106498 
            975        0.099415 
            985        0.202971 
            995        0.250355 
           1005        0.316743 
           1015        0.304269 
           1025        0.374318 
           1035         0.60978 
           1045        0.872461 
           1055          1.1236 
           1065         1.37881 
           1075         1.73186 
           1085         2.14308 
           1095          2.5635 
           1105         6.13862 
           1115         13.6225 
           1125         15.8368 
           1135         18.2811 
           1145         18.6729 
           1155         16.6156 
           1165         16.2769 
           1175         13.6091 
           1185         53.6485 
           1195         7.43843 
           1205         4.48539 
           1215         1.49987 
           1225         5.44875 
           1235         14.0016 
           1245          17.303 
           1255         32.2643 
           1265         49.2504 
           1275         69.1062 
           1285         100.462 
           1295         137.955 
           1305         177.447 
           1315         237.969 
           1325         309.581 
           1335         397.947 
           1345         509.817 
           1355         629.331 
           1365         783.919 
           1375         957.772 
           1385         1172.83 
           1395         1418.06 
           1405         1671.71 
           1415         1943.65 
           1425         2270.44 
           1435         2561.44 
           1442         2985.95 
           1447          3183.6 
           1455         3682.01 
           1465         4139.73 
           1475         4847.94 
           1485         5680.94 
           1495         6736.05 
           1505         7969.94 
           1512         8657.14 
           1517         8578.73 
           1525         9484.71 
           1535           12126 
           1545         14179.2 
           1555         14735.6 
           1565         14031.2 
           1575         16303.1 
           1585           18103 
           1595         20305.3 
           1605         21784.6 
           1615         27889.7 
           1625         42068.1 
           1635         74584.2 
           1645          147836 
           1655          119741 
           1665          285392 
           1672          184700 
           1677          390269 
           1685          491063 
           1695          537343 
           1705          555772 
           1715          678279 
           1725          718725 
           1735          836590 
           1745          832485 
           1755          977691 
           1765          855048 
           1775          995720 
           1785      1.04125e+6 
           1795      1.23307e+6 
           1805      1.14397e+6 
           1815      1.24596e+6 
           1825      1.14954e+6 
           1835       1.2486e+6 
           1845      1.16084e+6 
           1855      1.25926e+6 
           1865      1.33861e+6 
           1875      1.39767e+6 
           1885      1.45805e+6 
           1895      1.53345e+6 
           1905      1.47244e+6 
           1915      1.63852e+6 
           1925      1.72463e+6 
           1935      1.57283e+6 
           1945      1.86571e+6 
           1955      1.90217e+6 
           1967      2.03462e+6 
           1976      2.00918e+6 
           1984      2.02383e+6 
           1995      2.01871e+6 
           2005      1.98897e+6 
           2015      2.02662e+6 
           2025       1.9258e+6 
           2035      2.15709e+6 
           2045      2.31703e+6 
           2055      2.25849e+6 
           2065      2.23216e+6 
           2074      2.52926e+6 
           2078      2.57572e+6 
           2085      2.55586e+6 
           2095      2.50602e+6 
           2105      2.47037e+6 
           2115      2.53962e+6 
           2125      2.62715e+6 
           2135      2.23845e+6 
           2145      2.58256e+6 
           2155      2.63166e+6 
           2165      2.53699e+6 
           2175      2.56333e+6 
           2185      2.69601e+6 
           2195      2.94657e+6 
           2205      2.86668e+6 
           2215       2.6614e+6 
           2225      2.73768e+6 
           2235      3.13037e+6 
           2245      2.85349e+6 
           2255      2.77519e+6 
           2265      2.76021e+6 
           2275      3.05416e+6 
           2285      3.15404e+6 
           2295      2.99265e+6 
           2305        3.125e+6 
           2315      3.15465e+6 
           2325      3.14193e+6 
           2335      2.92022e+6 
           2345      2.55714e+6 
           2355      3.25422e+6 
           2365      2.72072e+6 
           2375      3.14027e+6 
           2385      2.43772e+6 
           2395      2.86782e+6 
           2405      2.79817e+6 
           2415      2.96308e+6 
           2425       3.4788e+6 
           2435      3.43752e+6 
           2445      3.62391e+6 
           2455      3.57338e+6 
           2465      3.59238e+6 
           2475      3.44422e+6 
           2485       3.5892e+6 
           2495      3.54844e+6 
           2505      3.99842e+6 
           2513      3.58948e+6 
           2518      3.68291e+6 
           2525      3.43845e+6 
           2535       3.3796e+6 
           2545      3.45645e+6 
           2555      3.73918e+6 
           2565      3.73659e+6 
           2575      4.03307e+6 
           2585      4.01472e+6 
           2595      3.91872e+6 
           2605      3.75784e+6 
           2615      3.66002e+6 
           2625      4.09149e+6 
           2635      4.25235e+6 
           2645      4.91594e+6 
           2655      4.93995e+6 
           2665      4.60675e+6 
           2675      4.79687e+6 
           2685      4.89095e+6 
           2695      4.64481e+6 
           2705      4.75845e+6 
           2715      4.51934e+6 
           2725      4.60084e+6 
           2735      4.93052e+6 
           2745      4.05626e+6 
           2755        4.377e+6 
           2765      4.65845e+6 
           2775      5.04385e+6 
           2785      4.94941e+6 
           2795      3.14201e+6 
           2805      3.66142e+6 
           2815      5.35602e+6 
           2825      5.41306e+6 
           2835      5.30463e+6 
           2845      5.22923e+6 
           2855      5.00687e+6 
           2865      5.32584e+6 
           2875      5.26333e+6 
           2885      5.44281e+6 
           2895       5.3311e+6 
           2910      5.81726e+6 
           2930      5.73811e+6 
           2950      5.74196e+6 
           2970      5.89167e+6 
           2990      5.99811e+6 
           3010      6.11243e+6 
           3030       6.1826e+6 
           3050      6.22732e+6 
           3070      6.24518e+6 
           3090      6.41514e+6 
           3110      6.35237e+6 
           3130      6.38143e+6 
           3150      6.56453e+6 
           3170      6.62104e+6 
           3190      6.42722e+6 
           3210      6.61135e+6 
           3230      6.52214e+6 
           3250      6.70712e+6 
           3270       6.8117e+6 
           3290      6.96094e+6 
           3310      7.05037e+6 
           3330      6.97783e+6 
           3350      6.92128e+6 
           3370      6.98301e+6 
           3390      7.02674e+6 
           3410      7.20244e+6 
           3430      7.28328e+6 
           3450      7.27948e+6 
           3470      7.24993e+6 
           3490      7.28461e+6 
           3510      7.43821e+6 
           3530      7.51983e+6 
           3550      7.60842e+6 
           3570      7.48765e+6 
           3590      7.51261e+6 
           3610      7.58107e+6 
           3630      7.67045e+6 
           3640      7.62694e+6 
           3650      7.77551e+6 
           3670      7.80791e+6 
           3690      8.70184e+6 
           3710      1.15771e+7 
           3730      1.58751e+7 
           3750      2.19421e+7 
           3770      2.28544e+7 
           3790      2.66074e+7 
           3810      2.97805e+7 
           3830      2.43059e+7 
           3850      3.14168e+7 
           3870      3.31681e+7 
           3890      2.27918e+7 
           3910      3.25792e+7 
           3930      2.96166e+7 
           3950      3.25312e+7 
           3970      2.12654e+7 
           3990      3.19579e+7 
           4010      3.27129e+7 
           4030      3.23798e+7 
           4050      3.21228e+7 
           4070      3.13803e+7 
           4090       2.8446e+7 
           4110      2.30046e+7 
           4130      3.06452e+7 
           4150      3.07836e+7 
           4170      3.03677e+7 
           4190       3.0115e+7 
           4210      2.97807e+7 
           4230      2.93839e+7 
           4250      2.91873e+7 
           4270      2.89083e+7 
           4290        2.858e+7 
           4310      2.75143e+7 
           4330        2.452e+7 
           4350      2.15237e+7 
           4370      2.75649e+7 
           4390      2.72693e+7 
           4410       2.6918e+7 
           4430       2.7188e+7 
           4450       2.6811e+7 
           4470      2.65867e+7 
           4490      2.64064e+7 
           4510      2.61783e+7 
           4530      2.58008e+7 
           4550      2.53343e+7 
           4570      2.55062e+7 
           4590      2.51968e+7 
           4610      2.53244e+7 
           4630      2.48793e+7 
           4650      2.48714e+7 
           4670      2.46484e+7 
           4690      2.44267e+7 
           4710      2.39853e+7 
           4730      2.40523e+7 
           4750      2.38819e+7 
           4770      2.36539e+7 
           4790      2.34371e+7 
           4810      2.31873e+7 
           4830      2.28083e+7 
           4850      2.04601e+7 
           4870      1.71901e+7 
           4890      2.20661e+7 
           4910      2.22071e+7 
           4930      2.18475e+7 
           4950      2.18881e+7 
           4970      2.17992e+7 
           4990      2.15507e+7 
           5010      2.11718e+7 
           5030      2.12286e+7 
           5050      2.10357e+7 
           5070       2.0917e+7 
           5090       2.0734e+7 
           5110      2.05749e+7 
           5130      2.03647e+7 
           5150       2.0177e+7 
           5170      1.97365e+7 
           5190      1.96168e+7 
           5210      1.96414e+7 
           5230      1.93854e+7 
           5250      1.94567e+7 
           5270      1.90556e+7 
           5290       1.9142e+7 
           5310      1.89045e+7 
           5330      1.87192e+7 
           5350      1.87229e+7 
           5370      1.85132e+7 
           5390      1.83916e+7 
           5410      1.82211e+7 
           5430      1.80821e+7 
           5450      1.79737e+7 
           5470      1.78689e+7 
           5490      1.77502e+7 
           5510      1.76117e+7 
           5530      1.74414e+7 
           5550      1.73648e+7 
           5570      1.72161e+7 
           5590      1.70786e+7 
           5610      1.69607e+7 
           5630      1.68523e+7 
           5650      1.67096e+7 
           5670      1.65837e+7 
           5690      1.64766e+7 
           5710      1.63533e+7 
           5730      1.62428e+7 
           5750      1.61209e+7 
           5770      1.60048e+7 
           5790      1.58854e+7 
           5810      1.57707e+7 
           5830       1.5656e+7 
           5850       1.5537e+7 
           5870      1.54281e+7 
           5890      1.51986e+7 
           5910      1.52059e+7 
           5930       1.5096e+7 
           5950      1.49883e+7 
           5970      1.48817e+7 
           5990      1.47709e+7 
           6010      1.46655e+7 
           6030      1.45611e+7 
           6050      1.44599e+7 
           6070      1.43586e+7 
           6090      1.42553e+7 
           6110       1.4152e+7 
           6130      1.40378e+7 
           6150      1.39158e+7 
           6170      1.38405e+7 
           6190      1.37601e+7 
           6210      1.36657e+7 
           6230      1.35636e+7 
           6250      1.34316e+7 
           6270      1.33815e+7 
           6290      1.32889e+7 
           6310      1.31868e+7 
           6330      1.31017e+7 
           6350      1.30063e+7 
           6370      1.29173e+7 
           6390      1.28338e+7 
           6410      1.27346e+7 
           6430      1.26527e+7 
           6450      1.25409e+7 
           6470      1.24833e+7 
           6490      1.23635e+7 
           6510      1.22699e+7 
           6530      1.21171e+7 
           6550      1.13337e+7 
           6570      9.27141e+6 
           6590      1.17543e+7 
           6610      1.18445e+7 
           6630      1.18058e+7 
           6650      1.17468e+7 
           6670      1.16671e+7 
           6690      1.15924e+7 
           6710      1.15142e+7 
           6730      1.14376e+7 
           6750      1.13591e+7 
           6770      1.12864e+7 
           6790       1.1211e+7 
           6810      1.11371e+7 
           6830      1.10615e+7 
           6850       1.0989e+7 
           6870      1.09179e+7 
           6890      1.08467e+7 
           6910      1.07745e+7 
           6930      1.07038e+7 
           6950      1.06337e+7 
           6970      1.05642e+7 
           6990      1.04954e+7 
           7010      1.04233e+7 
           7030       1.0358e+7 
           7050      1.02917e+7 
           7070      1.02245e+7 
           7090      1.01587e+7 
           7110      1.00807e+7 
           7130      1.00243e+7 
           7150      9.96088e+6 
           7170      9.89733e+6 
           7190      9.83141e+6 
           7210      9.76752e+6 
           7230      9.70491e+6 
           7250      9.64571e+6 
           7270      9.58487e+6 
           7290      9.52101e+6 
           7310       9.4577e+6 
           7330      9.39915e+6 
           7350      9.34179e+6 
           7370      9.28422e+6 
           7390        9.223e+6 
           7410      9.16161e+6 
           7430      9.10485e+6 
           7450      9.04789e+6 
           7470      8.98735e+6 
           7490      8.93203e+6 
           7510      8.87717e+6 
           7530       8.8241e+6 
           7550      8.77014e+6 
           7570      8.71466e+6 
           7590      8.66029e+6 
           7610      8.60637e+6 
           7630       8.5529e+6 
           7650      8.49858e+6 
           7670      8.44407e+6 
           7690      8.39447e+6 
           7710      8.33704e+6 
           7730      8.29017e+6 
           7750      8.23865e+6 
           7770      8.15012e+6 
           7790      8.13874e+6 
           7810      8.08908e+6 
           7830      8.03737e+6 
           7850      7.98668e+6 
           7870      7.93823e+6 
           7890      7.88896e+6 
           7910       7.8425e+6 
           7930       7.7928e+6 
           7950       7.7453e+6 
           7970      7.70173e+6 
           7990       7.6526e+6 
           8010      7.60739e+6 
           8030      7.56136e+6 
           8050      7.51569e+6 
           8070      7.47039e+6 
           8090      7.42486e+6 
           8110      7.38084e+6 
           8130      7.33659e+6 
           8150      7.29269e+6 
           8170      7.24856e+6 
           8190      7.19523e+6 
           8210      7.16972e+6 
           8230      7.12768e+6 
           8250       7.0832e+6 
           8270      7.04899e+6 
           8290      7.00186e+6 
           8310      6.94037e+6 
           8330      6.86365e+6 
           8350      6.86593e+6 
           8370      6.72561e+6 
           8390      6.73854e+6 
           8410      6.69428e+6 
           8430      6.81098e+6 
           8450      6.75557e+6 
           8470      6.53833e+6 
           8490       6.9607e+6 
           8510      6.41875e+6 
           8530      7.01155e+6 
           8550       6.2403e+6 
           8570      7.07705e+6 
           8590      6.77303e+6 
           8610      6.57898e+6 
           8630      7.15249e+6 
           8650      7.04343e+6 
           8670      6.08028e+6 
           8690      7.06753e+6 
           8710      7.11755e+6 
           8730      7.00984e+6 
           8750      6.05424e+6 
           8770      6.83387e+6 
           8790      6.96176e+6 
           8810      6.92339e+6 
           8830      6.86597e+6 
           8850      6.61276e+6 
           8870      5.88627e+6 
           8890       6.7064e+6 
           8910      6.71761e+6 
           8930      6.68991e+6 
           8950       6.6704e+6 
           8970      6.61399e+6 
           8990      6.52773e+6 
           9010      5.74792e+6 
           9030      6.17064e+6 
           9050      6.43778e+6 
           9070       6.3879e+6 
           9090      6.31696e+6 
           9110      6.34146e+6 
           9130      6.32817e+6 
           9150      6.29244e+6 
           9170      6.25292e+6 
           9190       6.1954e+6 
           9210       6.0566e+6 
           9230      5.24812e+6 
           9250      5.94225e+6 
           9270      6.03457e+6 
           9290       6.0383e+6 
           9310      6.00717e+6 
           9330      5.97235e+6 
           9350      5.93821e+6 
           9370      5.90473e+6 
           9390      5.86978e+6 
           9410      5.79508e+6 
           9430       5.8006e+6 
           9450      5.76975e+6 
           9470      5.73784e+6 
