# Kurucz ODFNEW /NOVER (2003)
# teff = 6250 K (value for the effective temperature for the model. Temperatures are given in K)
# logg = 1.5 log(cm/s2) (value for Log(G) for the model.)
# meta = -4  (value for the Metallicity for the model.)
# lh = 1.25  (l/Hp where l is the  mixing length of the convective element and Hp is the pressure scale height)
# vtur = 2 km/s (Microturbulence velocity)
# alpha = 0.4  (Alpha)
#
# column 1: WAVELENGTH (ANGSTROM), Wavelength in Angstrom
# column 2: FLUX (ERG/CM2/S/A), Flux in erg/cm2/s/A
          147.2     1.73866e-35 
            151     1.65225e-35 
          155.2     1.56403e-35 
          158.8     1.49392e-35 
            162     1.43549e-35 
            166     1.36714e-35 
          170.3     1.29897e-35 
          173.4     1.25294e-35 
          176.8     1.20522e-35 
          180.2     1.16017e-35 
          181.7     1.14109e-35 
          186.1     1.08777e-35 
            191     1.03267e-35 
          193.9     1.00201e-35 
          198.4     9.57076e-36 
          201.8     9.25097e-36 
            205     8.96441e-36 
          210.5     8.50208e-36 
          216.2     8.05969e-36 
          219.8     7.79784e-36 
            223     7.57565e-36 
          226.8     7.32392e-36 
            230     7.12154e-36 
            234     6.88015e-36 
            240     6.54044e-36 
          246.5     6.20006e-36 
          252.4     5.91358e-36 
          256.8     5.71267e-36 
            260     5.57292e-36 
            264     5.40532e-36 
          268.5     5.22566e-36 
          273.5     5.03634e-36 
          278.5     4.85712e-36 
            284     4.67082e-36 
            290     4.47954e-36 
            296     4.29978e-36 
            301     4.15812e-36 
            308     3.97126e-36 
            318     3.72542e-36 
            328     3.50172e-36 
            338     3.29759e-36 
            348     3.11079e-36 
            357     2.95592e-36 
            366     2.88883e-23 
            375     2.31637e-22 
            385     1.80108e-21 
            395     1.24805e-20 
            405     7.82858e-20 
            414     3.77859e-19 
            422     1.44431e-18 
            430     5.24283e-18 
            441     2.85141e-17 
            451     1.23433e-16 
            460     4.36123e-16 
            470     1.67151e-15 
            480     6.04419e-15 
            490     2.06942e-14 
            500     6.73155e-14 
            506     1.26784e-13 
            512     2.55848e-13 
            520     6.18051e-13 
            530     1.75409e-12 
            540     4.78108e-12 
            550     1.25435e-11 
            560     3.17445e-11 
            570     7.76406e-11 
            580     1.80783e-10 
            590     4.22184e-10 
            600     9.41646e-10 
            610      2.04301e-9 
            620       4.3173e-9 
            630      8.89809e-9 
            640      1.79066e-8 
            650      3.52271e-8 
            658      5.95891e-8 
            665      9.33592e-8 
            675       1.7429e-7 
            685      3.19167e-7 
            695      5.73785e-7 
            705      1.01348e-6 
            716      1.85824e-6 
            726      3.17022e-6 
            735      5.05988e-6 
            745      8.38745e-6 
            755      1.37057e-5 
            765      2.20917e-5 
            775       3.5143e-5 
            785      5.52025e-5 
            795      8.56608e-5 
            805     0.000131385 
            815     0.000199259 
            825      4.50586e-8 
            835      6.39909e-8 
            845      9.00162e-8 
            855      1.25466e-7 
            865      1.73339e-7 
            875      2.37441e-7 
            885      3.22615e-7 
            895       4.3489e-7 
            905      5.81728e-7 
            915       0.0112304 
            925        0.051889 
            935       0.0724177 
            945        0.117681 
            955        0.189281 
            965        0.173258 
            975        0.119793 
            985         0.46459 
            995        0.554083 
           1005        0.537777 
           1015        0.371528 
           1025        0.688969 
           1035        0.733571 
           1045          1.6061 
           1055         2.48551 
           1065          3.5098 
           1075         4.40943 
           1085         5.39481 
           1095         6.11144 
           1105         5.86803 
           1115         5.07568 
           1125         4.56704 
           1135         4.09037 
           1145         3.84969 
           1155         3.69832 
           1165         3.65842 
           1175         3.63216 
           1185         24.1696 
           1195         9.74942 
           1205         9.05043 
           1215         8.80713 
           1225         12.2727 
           1235         18.1134 
           1245          7.6555 
           1255         10.9769 
           1265         13.9681 
           1275         17.2022 
           1285         21.4412 
           1295         26.9457 
           1305         32.7283 
           1315         42.3063 
           1325         52.1397 
           1335         65.8073 
           1345         85.5324 
           1355          107.76 
           1365         136.583 
           1375          172.24 
           1385          217.37 
           1395         274.742 
           1405           348.9 
           1415         443.934 
           1425         573.157 
           1435         750.303 
           1442          920.86 
           1447         899.285 
           1455         974.502 
           1465         1142.94 
           1475         1287.32 
           1485         1459.84 
           1495         1656.58 
           1505         1855.18 
           1512         2018.82 
           1517         2177.91 
           1525         2362.15 
           1535         2643.25 
           1545         2997.39 
           1555         3330.86 
           1565         3642.82 
           1575         4132.96 
           1585         4578.98 
           1595         5073.21 
           1605         5574.99 
           1615         6067.59 
           1625         6615.89 
           1635         7322.99 
           1645         8626.97 
           1655         11004.3 
           1665         21941.5 
           1672         32057.8 
           1677         47593.4 
           1685         74781.3 
           1695          117811 
           1705          167771 
           1715          226622 
           1725          272632 
           1735          326829 
           1745          355174 
           1755          401299 
           1765          410370 
           1775          454533 
           1785          485292 
           1795          534865 
           1805          547676 
           1815          584634 
           1825          599362 
           1835          652469 
           1845          651237 
           1855          710383 
           1865          758880 
           1875          790563 
           1885          831891 
           1895          870143 
           1905          877309 
           1915          944221 
           1925      1.00186e+6 
           1935      1.01401e+6 
           1945      1.08507e+6 
           1955      1.12111e+6 
           1967       1.1805e+6 
           1976      1.18685e+6 
           1984      1.21721e+6 
           1995      1.28106e+6 
           2005      1.30149e+6 
           2015      1.33518e+6 
           2025      1.35262e+6 
           2035      1.44761e+6 
           2045      1.49177e+6 
           2055       1.4995e+6 
           2065      1.54827e+6 
           2074      1.63655e+6 
           2078      1.65041e+6 
           2085      1.66673e+6 
           2095      1.70175e+6 
           2105      1.74225e+6 
           2115      1.79672e+6 
           2125      1.82849e+6 
           2135      1.83504e+6 
           2145      1.91852e+6 
           2155      1.95348e+6 
           2165      1.95887e+6 
           2175      2.02181e+6 
           2185      2.07878e+6 
           2195      2.16317e+6 
           2205      2.16893e+6 
           2215      2.13519e+6 
           2225       2.2225e+6 
           2235      2.34135e+6 
           2245      2.34565e+6 
           2255      2.32178e+6 
           2265      2.32167e+6 
           2275      2.45598e+6 
           2285      2.50841e+6 
           2295      2.50627e+6 
           2305      2.58264e+6 
           2315      2.60874e+6 
           2325       2.6513e+6 
           2335       2.6647e+6 
           2345      2.59311e+6 
           2355       2.7794e+6 
           2365      2.70227e+6 
           2375      2.82576e+6 
           2385      2.67204e+6 
           2395      2.87557e+6 
           2405       2.9072e+6 
           2415      2.95449e+6 
           2425      3.11313e+6 
           2435      3.09162e+6 
           2445      3.17049e+6 
           2455      3.20491e+6 
           2465      3.18881e+6 
           2475      3.20258e+6 
           2485      3.24506e+6 
           2495      3.25971e+6 
           2505      3.40304e+6 
           2513      3.30606e+6 
           2518       3.3135e+6 
           2525      3.27826e+6 
           2535      3.32186e+6 
           2545      3.41434e+6 
           2555      3.57603e+6 
           2565      3.58737e+6 
           2575      3.68308e+6 
           2585      3.73548e+6 
           2595      3.73763e+6 
           2605      3.72292e+6 
           2615      3.74723e+6 
           2625      3.80375e+6 
           2635      3.87672e+6 
           2645      4.08596e+6 
           2655      4.10858e+6 
           2665      4.05027e+6 
           2675      4.12445e+6 
           2685      4.21397e+6 
           2695      4.20838e+6 
           2705      4.26809e+6 
           2715      4.19787e+6 
           2725      4.24347e+6 
           2735      4.30995e+6 
           2745      4.14336e+6 
           2755      4.21945e+6 
           2765      4.35786e+6 
           2775      4.49754e+6 
           2785      4.50416e+6 
           2795      3.98723e+6 
           2805      4.26007e+6 
           2815      4.69401e+6 
           2825      4.72102e+6 
           2835      4.68595e+6 
           2845      4.72376e+6 
           2855      4.64682e+6 
           2865      4.71817e+6 
           2875      4.79297e+6 
           2885      4.83493e+6 
           2895       4.9297e+6 
           2910      5.00402e+6 
           2930      5.00571e+6 
           2950      5.03633e+6 
           2970       5.1212e+6 
           2990      5.18229e+6 
           3010      5.26251e+6 
           3030      5.32212e+6 
           3050        5.387e+6 
           3070      5.39258e+6 
           3090      5.49621e+6 
           3110      5.54494e+6 
           3130       5.5962e+6 
           3150      5.64041e+6 
           3170      5.69355e+6 
           3190       5.6942e+6 
           3210        5.773e+6 
           3230       5.7512e+6 
           3250       5.8472e+6 
           3270      5.94712e+6 
           3290      6.01321e+6 
           3310      6.05836e+6 
           3330       6.0439e+6 
           3350      6.04446e+6 
           3370      6.11092e+6 
           3390      6.14327e+6 
           3410      6.24767e+6 
           3430      6.28517e+6 
           3450      6.29671e+6 
           3470      6.33259e+6 
           3490      6.38208e+6 
           3510      6.42851e+6 
           3530      6.46894e+6 
           3550      6.50716e+6 
           3570      6.50392e+6 
           3590      6.53922e+6 
           3610       6.5719e+6 
           3630      6.60632e+6 
           3640      6.61955e+6 
           3650      6.66222e+6 
           3670      6.63792e+6 
           3690      7.09019e+6 
           3710      8.90579e+6 
           3730       1.0749e+7 
           3750      1.34404e+7 
           3770       1.3775e+7 
           3790      1.50389e+7 
           3810      1.64103e+7 
           3830      1.42749e+7 
           3850      1.71452e+7 
           3870      1.77419e+7 
           3890      1.37653e+7 
           3910      1.76419e+7 
           3930      1.74467e+7 
           3950      1.76257e+7 
           3970      1.34613e+7 
           3990      1.73723e+7 
           4010      1.76645e+7 
           4030      1.76118e+7 
           4050      1.75286e+7 
           4070       1.7311e+7 
           4090      1.62084e+7 
           4110       1.3925e+7 
           4130      1.70904e+7 
           4150      1.71291e+7 
           4170      1.70843e+7 
           4190      1.70057e+7 
           4210      1.69111e+7 
           4230       1.6813e+7 
           4250      1.67507e+7 
           4270      1.66675e+7 
           4290      1.65568e+7 
           4310      1.63599e+7 
           4330      1.50098e+7 
           4350      1.35304e+7 
           4370      1.61341e+7 
           4390      1.61292e+7 
           4410      1.60886e+7 
           4430      1.60323e+7 
           4450      1.59403e+7 
           4470      1.58623e+7 
           4490      1.57857e+7 
           4510      1.56999e+7 
           4530      1.56147e+7 
           4550      1.55219e+7 
           4570       1.5454e+7 
           4590      1.53783e+7 
           4610      1.53036e+7 
           4630      1.52209e+7 
           4650      1.51427e+7 
           4670      1.50632e+7 
           4690      1.49843e+7 
           4710      1.49018e+7 
           4730      1.48254e+7 
           4750      1.47476e+7 
           4770      1.46684e+7 
           4790        1.459e+7 
           4810      1.44842e+7 
           4830      1.43354e+7 
           4850      1.33927e+7 
           4870      1.17835e+7 
           4890      1.40539e+7 
           4910      1.40896e+7 
           4930      1.40417e+7 
           4950      1.39763e+7 
           4970      1.39032e+7 
           4990       1.3827e+7 
           5010      1.37471e+7 
           5030      1.36782e+7 
           5050      1.36036e+7 
           5070      1.35309e+7 
           5090      1.34574e+7 
           5110      1.33843e+7 
           5130      1.33106e+7 
           5150      1.32377e+7 
           5170      1.31293e+7 
           5190      1.30756e+7 
           5210      1.30203e+7 
           5230      1.29463e+7 
           5250      1.28827e+7 
           5270      1.28052e+7 
           5290      1.27419e+7 
           5310      1.26715e+7 
           5330      1.25992e+7 
           5350      1.25344e+7 
           5370      1.24648e+7 
           5390      1.23968e+7 
           5410      1.23286e+7 
           5430      1.22603e+7 
           5450      1.21931e+7 
           5470      1.21273e+7 
           5490      1.20611e+7 
           5510      1.19947e+7 
           5530       1.1928e+7 
           5550      1.18636e+7 
           5570       1.1798e+7 
           5590      1.17325e+7 
           5610      1.16686e+7 
           5630      1.16052e+7 
           5650      1.15414e+7 
           5670       1.1478e+7 
           5690      1.14153e+7 
           5710      1.13525e+7 
           5730      1.12902e+7 
           5750      1.12282e+7 
           5770      1.11666e+7 
           5790      1.11053e+7 
           5810      1.10443e+7 
           5830      1.09837e+7 
           5850      1.09234e+7 
           5870      1.08635e+7 
           5890      1.07986e+7 
           5910      1.07444e+7 
           5930      1.06855e+7 
           5950      1.06267e+7 
           5970      1.05682e+7 
           5990      1.05102e+7 
           6010      1.04518e+7 
           6030       1.0395e+7 
           6050      1.03377e+7 
           6070       1.0281e+7 
           6090      1.02247e+7 
           6110       1.0169e+7 
           6130      1.01128e+7 
           6150      1.00571e+7 
           6170      1.00019e+7 
           6190      9.94816e+6 
           6210      9.89396e+6 
           6230      9.83927e+6 
           6250      9.78508e+6 
           6270      9.73234e+6 
           6290      9.67911e+6 
           6310      9.62637e+6 
           6330       9.5741e+6 
           6350      9.52136e+6 
           6370      9.47002e+6 
           6390      9.41821e+6 
           6410      9.36687e+6 
           6430      9.31598e+6 
           6450      9.26463e+6 
           6470      9.21464e+6 
           6490       9.1633e+6 
           6510      9.09998e+6 
           6530      9.01075e+6 
           6550      8.63784e+6 
           6570      7.42647e+6 
           6590      8.81098e+6 
           6610      8.84138e+6 
           6630      8.82154e+6 
           6650      8.77367e+6 
           6670      8.72621e+6 
           6690      8.67917e+6 
           6710      8.63253e+6 
           6730      8.58545e+6 
           6750      8.53879e+6 
           6770      8.49252e+6 
           6790      8.44665e+6 
           6810      8.40117e+6 
           6830      8.35608e+6 
           6850      8.31057e+6 
           6870      8.26624e+6 
           6890       8.2215e+6 
           6910      8.17713e+6 
           6930      8.13314e+6 
           6950      8.08951e+6 
           6970      8.04626e+6 
           6990      8.00259e+6 
           7010      7.96006e+6 
           7030      7.91712e+6 
           7050      7.87454e+6 
           7070      7.83231e+6 
           7090      7.79043e+6 
           7110       7.7489e+6 
           7130      7.70697e+6 
           7150      7.66613e+6 
           7170      7.62489e+6 
           7190      7.58398e+6 
           7210      7.54342e+6 
           7230      7.50318e+6 
           7250      7.46327e+6 
           7270      7.42369e+6 
           7290      7.38372e+6 
           7310      7.34408e+6 
           7330      7.30546e+6 
           7350      7.26645e+6 
           7370      7.22776e+6 
           7390      7.18938e+6 
           7410      7.15063e+6 
           7430      7.11287e+6 
           7450      7.07541e+6 
           7470      7.03757e+6 
           7490      7.00004e+6 
           7510       6.9628e+6 
           7530      6.92653e+6 
           7550      6.88988e+6 
           7570      6.85352e+6 
           7590       6.8168e+6 
           7610      6.78101e+6 
           7630      6.74551e+6 
           7650      6.70964e+6 
           7670      6.67406e+6 
           7690      6.63939e+6 
           7710      6.60435e+6 
           7730      6.56959e+6 
           7750       6.5351e+6 
           7770      6.50025e+6 
           7790       6.4663e+6 
           7810       6.4326e+6 
           7830      6.39917e+6 
           7850      6.36538e+6 
           7870      6.33246e+6 
           7890      6.29919e+6 
           7910      6.26617e+6 
           7930       6.2334e+6 
           7950      6.20089e+6 
           7970      6.16862e+6 
           7990       6.1366e+6 
           8010      6.10482e+6 
           8030      6.07269e+6 
           8050      6.04139e+6 
           8070      6.00975e+6 
           8090      5.97892e+6 
           8110      5.94775e+6 
           8130      5.91681e+6 
           8150       5.8861e+6 
           8170      5.85563e+6 
           8190      5.82538e+6 
           8210      5.79871e+6 
           8230         5.77e+6 
           8250      5.74151e+6 
           8270      5.71212e+6 
           8290      5.68185e+6 
           8310      5.64744e+6 
           8330      5.61275e+6 
           8350      5.58914e+6 
           8370      5.52697e+6 
           8390      5.51082e+6 
           8410      5.47133e+6 
           8430      5.49364e+6 
           8450      5.45922e+6 
           8470      5.34052e+6 
           8490      5.50145e+6 
           8510      5.24362e+6 
           8530      5.48726e+6 
           8550      5.14334e+6 
           8570      5.47565e+6 
