# Kurucz ODFNEW /NOVER (2003)
# teff = 23000 K (value for the effective temperature for the model. Temperatures are given in K)
# logg = 5 log(cm/s2) (value for Log(G) for the model.)
# meta = -2.5  (value for the Metallicity for the model.)
# lh = 1.25  (l/Hp where l is the  mixing length of the convective element and Hp is the pressure scale height)
# vtur = 2 km/s (Microturbulence velocity)
# alpha = 0  (Alpha)
#
# column 1: WAVELENGTH (ANGSTROM), Wavelength in Angstrom
# column 2: FLUX (ERG/CM2/S/A), Flux in erg/cm2/s/A
          147.2     9.42022e-17 
            151     5.21632e-16 
          155.2     3.15012e-15 
          158.8     1.36727e-14 
            162     4.78175e-14 
            166     2.14026e-13 
          170.3     9.92091e-13 
          173.4     2.86034e-12 
          176.8     8.75891e-12 
          180.2     2.57162e-11 
          181.7     4.08305e-11 
          186.1     1.51776e-10 
            191     6.09618e-10 
          193.9       1.3422e-9 
          198.4      4.36091e-9 
          201.8      1.02528e-8 
            205      2.23268e-8 
          210.5      8.03583e-8 
          216.2      2.82331e-7 
          219.8      6.03085e-7 
            223      1.15907e-6 
          226.8      2.45615e-6 
            230      6.55402e-6 
            234      1.44696e-5 
            240      4.08601e-5 
          246.5     0.000118384 
          252.4     0.000296856 
          256.8     0.000567937 
            260     0.000907216 
            264      0.00159019 
          268.5      0.00292595 
          273.5      0.00562055 
          278.5       0.0105443 
            284       0.0204997 
            290       0.0410711 
            296       0.0798254 
            301        0.136054 
            308        0.277067 
            318        0.729512 
            328         1.79684 
            338         4.17969 
            348          9.2319 
            357         18.0793 
            366         34.1783 
            375         62.4949 
            385         117.885 
            395         214.684 
            405         378.555 
            414          614.76 
            422         927.946 
            430         1377.15 
            441          2309.8 
            451         3606.88 
            460         5288.28 
            470          7936.9 
            480         11687.4 
            490         16908.1 
            500         24053.4 
            506          129407 
            512          425514 
            520          542872 
            530          773013 
            540          855044 
            550      1.18497e+6 
            560        1.434e+6 
            570      1.73604e+6 
            580      1.80705e+6 
            590      2.35702e+6 
            600      2.91003e+6 
            610      3.42205e+6 
            620      3.98731e+6 
            630      4.62896e+6 
            640      5.31588e+6 
            650      6.13333e+6 
            658      6.83059e+6 
            665      7.47973e+6 
            675       8.4561e+6 
            685      9.51488e+6 
            695      1.08076e+7 
            705      1.21093e+7 
            716      1.36617e+7 
            726      1.51935e+7 
            735      1.67094e+7 
            745      1.84881e+7 
            755      2.03841e+7 
            765      2.23942e+7 
            775       2.4551e+7 
            785      2.68303e+7 
            795      2.92288e+7 
            805      3.17702e+7 
            815      3.44369e+7 
            825      3.72636e+7 
            835      3.98626e+7 
            845      4.32791e+7 
            855      4.64237e+7 
            865      4.98659e+7 
            875      5.33683e+7 
            885      5.70223e+7 
            895      6.07828e+7 
            905      6.41938e+7 
            915      9.31356e+7 
            925      3.74539e+8 
            935      1.01131e+9 
            945      4.61639e+9 
            955     1.05238e+10 
            965     1.51727e+10 
            975       4.8047e+9 
            985     2.37898e+10 
            995     2.55728e+10 
           1005     2.60079e+10 
           1015     1.89285e+10 
           1025      2.68097e+9 
           1035     1.58204e+10 
           1045     2.42388e+10 
           1055     2.46503e+10 
           1065      2.3415e+10 
           1075     2.36406e+10 
           1085     2.19761e+10 
           1095     2.27792e+10 
           1105     2.17974e+10 
           1115     2.13391e+10 
           1125     2.03539e+10 
           1135     2.04162e+10 
           1145     1.96157e+10 
           1155     1.95071e+10 
           1165     1.90243e+10 
           1175     1.71154e+10 
           1185     1.77815e+10 
           1195      1.6068e+10 
           1205     1.16172e+10 
           1215      2.11278e+9 
           1225     1.02676e+10 
           1235     1.48523e+10 
           1245     1.52945e+10 
           1255     1.52168e+10 
           1265     1.48396e+10 
           1275     1.47672e+10 
           1285     1.44616e+10 
           1295     1.36971e+10 
           1305     1.35174e+10 
           1315     1.35683e+10 
           1325     1.31263e+10 
           1335     1.26683e+10 
           1345     1.27053e+10 
           1355     1.24746e+10 
           1365     1.21867e+10 
           1375     1.19469e+10 
           1385     1.17102e+10 
           1395     1.13097e+10 
           1405     1.11386e+10 
           1415     1.10067e+10 
           1425     1.08082e+10 
           1435     1.05996e+10 
           1442     1.04652e+10 
           1447     1.03605e+10 
           1455     1.01988e+10 
           1465      9.99527e+9 
           1475      9.80774e+9 
           1485      9.61613e+9 
           1495      9.43735e+9 
           1505      9.23152e+9 
           1512      9.11245e+9 
           1517      9.03841e+9 
           1525      8.89685e+9 
           1535       8.6737e+9 
           1545      8.54616e+9 
           1555      8.36555e+9 
           1565      8.27098e+9 
           1575      8.13455e+9 
           1585      7.99024e+9 
           1595      7.85482e+9 
           1605      7.67549e+9 
           1615      7.53928e+9 
           1625      7.44621e+9 
           1635      7.32285e+9 
           1645      7.14039e+9 
           1655      7.07128e+9 
           1665      6.96322e+9 
           1672      6.82418e+9 
           1677      6.82508e+9 
           1685      6.73296e+9 
           1695      6.61493e+9 
           1705      6.49895e+9 
           1715       6.3838e+9 
           1725      6.28139e+9 
           1735      6.18791e+9 
           1745      6.08379e+9 
           1755      5.99521e+9 
           1765      5.84801e+9 
           1775      5.79211e+9 
           1785      5.70789e+9 
           1795      5.62401e+9 
           1805       5.5385e+9 
           1815      5.44619e+9 
           1825      5.36518e+9 
           1835      5.28136e+9 
           1845      5.17933e+9 
           1855      5.04284e+9 
           1865      4.98371e+9 
           1875      4.96101e+9 
           1885       4.8554e+9 
           1895      4.74953e+9 
           1905      4.73052e+9 
           1915       4.6191e+9 
           1925      4.55323e+9 
           1935       4.5071e+9 
           1945      4.46277e+9 
           1955      4.36223e+9 
           1967      4.32309e+9 
           1976      4.27868e+9 
           1984       4.2119e+9 
           1995      4.12147e+9 
           2005       4.0992e+9 
           2015       4.0486e+9 
           2025      3.99612e+9 
           2035      3.93347e+9 
           2045       3.8787e+9 
           2055      3.80483e+9 
           2065      3.75393e+9 
           2074      3.73447e+9 
           2078      3.67893e+9 
           2085      3.67013e+9 
           2095      3.60736e+9 
           2105      3.57351e+9 
           2115      3.52961e+9 
           2125      3.48545e+9 
           2135        3.438e+9 
           2145      3.39038e+9 
           2155      3.34747e+9 
           2165      3.30344e+9 
           2175      3.25943e+9 
           2185      3.21783e+9 
           2195      3.17654e+9 
           2205      3.13485e+9 
           2215       3.0944e+9 
           2225      3.05401e+9 
           2235      3.01513e+9 
           2245      2.97719e+9 
           2255      2.93885e+9 
           2265      2.90223e+9 
           2275      2.86542e+9 
           2285         2.83e+9 
           2295       2.7858e+9 
           2305      2.75934e+9 
           2315      2.72458e+9 
           2325      2.69123e+9 
           2335       2.6569e+9 
           2345      2.62271e+9 
           2355      2.59308e+9 
           2365      2.56022e+9 
           2375      2.52995e+9 
           2385      2.49759e+9 
           2395      2.46804e+9 
           2405       2.4389e+9 
           2415      2.40937e+9 
           2425      2.38205e+9 
           2435      2.35306e+9 
           2445      2.32534e+9 
           2455      2.29856e+9 
           2465      2.27096e+9 
           2475      2.24459e+9 
           2485       2.2182e+9 
           2495      2.18242e+9 
           2505      2.16671e+9 
           2513      2.14369e+9 
           2518      2.13441e+9 
           2525      2.11675e+9 
           2535      2.09187e+9 
           2545      2.06779e+9 
           2555      2.04563e+9 
           2565      2.02204e+9 
           2575      1.99972e+9 
           2585      1.97717e+9 
           2595       1.9548e+9 
           2605      1.94715e+9 
           2615      1.92584e+9 
           2625      1.90453e+9 
           2635       1.8818e+9 
           2645      1.86086e+9 
           2655      1.83779e+9 
           2665      1.81288e+9 
           2675      1.78924e+9 
           2685      1.78226e+9 
           2695      1.74743e+9 
           2705      1.74355e+9 
           2715      1.72454e+9 
           2725      1.68923e+9 
           2735      1.68748e+9 
           2745      1.66775e+9 
           2755      1.65016e+9 
           2765       1.6172e+9 
           2775      1.61638e+9 
           2785      1.59906e+9 
           2795      1.57351e+9 
           2805      1.56274e+9 
           2815        1.549e+9 
           2825       1.5127e+9 
           2835      1.50406e+9 
           2845      1.50077e+9 
           2855      1.48524e+9 
           2865      1.46984e+9 
           2875      1.45462e+9 
           2885      1.43962e+9 
           2895      1.42483e+9 
           2910      1.40298e+9 
           2930      1.37441e+9 
           2950      1.33449e+9 
           2970      1.31983e+9 
           2990      1.29342e+9 
           3010      1.26789e+9 
           3030      1.24292e+9 
           3050      1.21857e+9 
           3070      1.19483e+9 
           3090      1.17164e+9 
           3110      1.14911e+9 
           3130      1.12835e+9 
           3150      1.10678e+9 
           3170      1.08566e+9 
           3190      1.05458e+9 
           3210      1.04473e+9 
           3230      1.02498e+9 
           3250      1.00577e+9 
           3270      9.88285e+8 
           3290      9.68754e+8 
           3310       9.5244e+8 
           3330      9.35156e+8 
           3350      9.16571e+8 
           3370       9.0171e+8 
           3390      8.85595e+8 
           3410      8.69827e+8 
           3430      8.51323e+8 
           3450      8.33473e+8 
           3470       8.2114e+8 
           3490      8.06869e+8 
           3510      7.93755e+8 
           3530      7.81068e+8 
           3550      7.67897e+8 
           3570      7.59524e+8 
           3590      7.40884e+8 
           3610      7.31367e+8 
           3630       7.1624e+8 
           3640      7.15779e+8 
           3650      7.09063e+8 
           3670      7.00489e+8 
           3690      6.88959e+8 
           3710      6.66279e+8 
           3730      6.38546e+8 
           3750      6.40514e+8 
           3770      6.29601e+8 
           3790      6.71336e+8 
           3810      7.10476e+8 
           3830      6.06485e+8 
           3850      7.46851e+8 
           3870      7.76128e+8 
           3890      5.65862e+8 
           3910      7.68017e+8 
           3930      7.76855e+8 
           3950      7.46819e+8 
           3970      5.28586e+8 
           3990       7.1093e+8 
           4010      7.27121e+8 
           4030      6.69841e+8 
           4050      7.16986e+8 
           4070      6.97744e+8 
           4090      6.02385e+8 
           4110      5.11097e+8 
           4130      6.48795e+8 
           4150      6.51481e+8 
           4170      6.49558e+8 
           4190      6.42363e+8 
           4210       6.3213e+8 
           4230      6.21682e+8 
           4250      6.11172e+8 
           4270      5.99469e+8 
           4290      5.88058e+8 
           4310      5.69898e+8 
           4330      4.83066e+8 
           4350      4.35013e+8 
           4370      5.38988e+8 
           4390       5.1843e+8 
           4410      5.34989e+8 
           4430      5.24832e+8 
           4450      5.18794e+8 
           4470      4.75208e+8 
           4490      5.02098e+8 
           4510      4.96395e+8 
           4530      4.88717e+8 
           4550      4.81173e+8 
           4570      4.73796e+8 
           4590      4.66564e+8 
           4610      4.59458e+8 
           4630      4.52492e+8 
           4650      4.45629e+8 
           4670      4.38953e+8 
           4690      4.32357e+8 
           4710      4.18775e+8 
           4730      4.19518e+8 
           4750      4.13238e+8 
           4770      4.07031e+8 
           4790      4.00043e+8 
           4810      3.92685e+8 
           4830      3.81156e+8 
           4850      3.32358e+8 
           4870      2.91924e+8 
           4890      3.60894e+8 
           4910      3.63242e+8 
           4930      3.47606e+8 
           4950      3.56534e+8 
           4970      3.52069e+8 
           4990      3.47074e+8 
           5010      3.36474e+8 
           5030      3.37287e+8 
           5050      3.30042e+8 
           5070         3.28e+8 
           5090      3.23435e+8 
           5110      3.18961e+8 
           5130      3.14546e+8 
           5150      3.10219e+8 
           5170      3.05963e+8 
           5190      3.01791e+8 
           5210      2.97674e+8 
           5230      2.93639e+8 
           5250       2.8967e+8 
           5270      2.85766e+8 
           5290      2.81927e+8 
           5310      2.78164e+8 
           5330      2.74449e+8 
           5350      2.70808e+8 
           5370      2.67214e+8 
           5390      2.63692e+8 
           5410      2.60227e+8 
           5430      2.56806e+8 
           5450      2.53453e+8 
           5470      2.50155e+8 
           5490      2.46911e+8 
           5510      2.43719e+8 
           5530      2.40568e+8 
           5550      2.37479e+8 
           5570      2.34441e+8 
           5590      2.31453e+8 
           5610        2.285e+8 
           5630      2.25608e+8 
           5650      2.22751e+8 
           5670       2.1994e+8 
           5690      2.17175e+8 
           5710      2.14466e+8 
           5730       2.1179e+8 
           5750      2.09157e+8 
           5770      2.06566e+8 
           5790      2.04007e+8 
           5810        2.015e+8 
           5830      1.99022e+8 
           5850      1.96585e+8 
           5870      1.86228e+8 
           5890      1.91057e+8 
           5910      1.89497e+8 
           5930      1.87214e+8 
           5950      1.84957e+8 
           5970      1.82726e+8 
           5990      1.80542e+8 
           6010      1.78383e+8 
           6030      1.76259e+8 
           6050      1.74169e+8 
           6070      1.72113e+8 
           6090       1.7008e+8 
           6110      1.68091e+8 
           6130      1.66113e+8 
           6150      1.64178e+8 
           6170      1.62265e+8 
           6190      1.60382e+8 
           6210       1.5852e+8 
           6230      1.56689e+8 
           6250      1.54887e+8 
           6270      1.53115e+8 
           6290      1.51362e+8 
           6310      1.49628e+8 
           6330      1.47932e+8 
           6350      1.46245e+8 
           6370      1.44594e+8 
           6390      1.42962e+8 
           6410      1.41356e+8 
           6430      1.39776e+8 
           6450      1.38204e+8 
           6470      1.36667e+8 
           6490      1.34851e+8 
           6510      1.32984e+8 
           6530      1.30262e+8 
           6550      1.20502e+8 
           6570      1.05308e+8 
           6590      1.24249e+8 
           6610      1.25507e+8 
           6630      1.24683e+8 
           6650      1.23619e+8 
           6670      1.20609e+8 
           6690      1.19401e+8 
           6710      1.19836e+8 
           6730      1.18551e+8 
           6750      1.17279e+8 
           6770       1.1602e+8 
           6790      1.14782e+8 
           6810      1.13564e+8 
           6830      1.12359e+8 
           6850      1.11174e+8 
           6870      1.10001e+8 
           6890       1.0884e+8 
           6910      1.07698e+8 
           6930      1.06575e+8 
           6950      1.05463e+8 
           6970      1.04363e+8 
           6990       1.0328e+8 
           7010      1.02209e+8 
           7030      1.01156e+8 
           7050      1.00113e+8 
           7070      9.72858e+7 
           7090      9.80718e+7 
           7110      9.70737e+7 
           7130      9.60778e+7 
           7150      9.51063e+7 
           7170      9.41294e+7 
           7190      9.31911e+7 
           7210      9.22472e+7 
           7230      9.13052e+7 
           7250      9.04079e+7 
           7270      8.94977e+7 
           7290      8.78164e+7 
           7310      8.77172e+7 
           7330      8.68536e+7 
           7350       8.5991e+7 
           7370      8.51435e+7 
           7390      8.43038e+7 
           7410       8.3472e+7 
           7430      8.26547e+7 
           7450      8.18586e+7 
           7470      8.10563e+7 
           7490      8.02681e+7 
           7510      7.94671e+7 
           7530      7.87199e+7 
           7550      7.79597e+7 
           7570      7.72065e+7 
           7590      7.64666e+7 
           7610      7.57335e+7 
           7630      7.50069e+7 
           7650      7.42934e+7 
           7670      7.35862e+7 
           7690      7.28855e+7 
           7710      7.21973e+7 
           7730      7.15152e+7 
           7750      7.08392e+7 
           7770      7.01693e+7 
           7790      6.95114e+7 
           7810      6.88285e+7 
           7830      6.82193e+7 
           7850       6.7652e+7 
           7870      6.70228e+7 
           7890      6.63748e+7 
           7910      6.57866e+7 
           7930      6.51797e+7 
           7950      6.45779e+7 
           7970      6.39399e+7 
           7990       6.3396e+7 
           8010      6.27979e+7 
           8030      6.21817e+7 
           8050      6.15882e+7 
           8070       6.1052e+7 
           8090      6.03936e+7 
           8110      5.99357e+7 
           8130      5.94075e+7 
           8150       5.8827e+7 
           8170      5.83587e+7 
           8190      5.77652e+7 
           8210      5.72158e+7 
           8230      5.68324e+7 
           8250      5.63413e+7 
           8270      5.56339e+7 
           8290      5.53439e+7 
           8310      5.48869e+7 
           8330      5.43739e+7 
           8350       5.3675e+7 
           8370      5.33677e+7 
           8390      5.29782e+7 
           8410      5.25134e+7 
           8430      5.20233e+7 
           8450      5.12593e+7 
           8470      5.11146e+7 
           8490      5.05652e+7 
           8510      5.01712e+7 
           8530      4.96592e+7 
           8550      4.90479e+7 
           8570      4.90736e+7 
           8590      4.75864e+7 
