# Kurucz ODFNEW /NOVER (2003)
# teff = 10000 K (value for the effective temperature for the model. Temperatures are given in K)
# logg = 3 log(cm/s2) (value for Log(G) for the model.)
# meta = -0.5  (value for the Metallicity for the model.)
# lh = 1.25  (l/Hp where l is the  mixing length of the convective element and Hp is the pressure scale height)
# vtur = 2 km/s (Microturbulence velocity)
# alpha = 0.4  (Alpha)
#
# column 1: WAVELENGTH (ANGSTROM), Wavelength in Angstrom
# column 2: FLUX (ERG/CM2/S/A), Flux in erg/cm2/s/A
          268.5     3.11737e-24 
          273.5      8.8287e-23 
          278.5      3.7275e-22 
            284     1.64076e-21 
            290     7.69944e-21 
            296     3.38672e-20 
            301     1.11758e-19 
            308     5.57723e-19 
            318     4.91606e-18 
            328     3.80812e-17 
            338      2.6167e-16 
            348     1.61307e-15 
            357     7.62776e-15 
            366     3.33318e-14 
            375     1.35481e-13 
            385     5.96413e-13 
            395     2.43121e-12 
            405     9.25189e-12 
            414     2.91302e-11 
            422      7.7392e-11 
            430     1.97784e-10 
            441      6.8217e-10 
            451      1.98865e-9 
            460      5.00092e-9 
            470      1.33523e-8 
            480      3.41754e-8 
            490      8.41216e-8 
            500       1.9938e-7 
            506      4.61796e-7 
            512      8.39832e-7 
            520      1.55471e-6 
            530      3.28931e-6 
            540      6.67106e-6 
            550      1.33854e-5 
            560      2.59686e-5 
            570      4.91986e-5 
            580      9.03176e-5 
            590     0.000164945 
            600      0.00029275 
            610     0.000509876 
            620     0.000870849 
            630      0.00146155 
            640      0.00240947 
            650      0.00391469 
            658      0.00570475 
            665      0.00786589 
            675       0.0123017 
            685       0.0189784 
            695       0.0288983 
            705       0.0434111 
            716       0.0670654 
            726       0.0983501 
            735        0.137477 
            745        0.197424 
            755        0.280651 
            765        0.394976 
            775        0.550851 
            785        0.761192 
            795         1.04109 
            805         1.41512 
            815         1.90706 
            825         2.54895 
            835         3.37531 
            845         4.45332 
            855          5.8239 
            865         7.56555 
            875         9.75646 
            885         12.5189 
            895         15.9557 
            905         20.1864 
            915          439.26 
            925         3226.32 
            935         5455.57 
            945         9655.06 
            955         16182.8 
            965         21846.6 
            975         15553.8 
            985         47161.8 
            995         75827.2 
           1005         77395.5 
           1015         47355.2 
           1025           26326 
           1035         56687.5 
           1045          133536 
           1055          224317 
           1065          249858 
           1075          336428 
           1085          388018 
           1095          419295 
           1105      4.09087e+6 
           1115      2.49575e+7 
           1125       3.1716e+7 
           1135      3.65843e+7 
           1145      3.29366e+7 
           1155      3.38231e+7 
           1165      3.32672e+7 
           1175      2.41579e+7 
           1185      1.82475e+7 
           1195          213128 
           1205          183027 
           1215         44810.2 
           1225          187541 
           1235          675988 
           1245      1.35895e+7 
           1255      3.81531e+7 
           1265      2.97975e+7 
           1275      7.17898e+7 
           1285      1.00357e+8 
           1295      8.59793e+7 
           1305      3.83205e+7 
           1315      9.68629e+7 
           1325      1.16127e+8 
           1335      1.05758e+8 
           1345      1.32166e+8 
           1355      1.24155e+8 
           1365      1.06798e+8 
           1375      1.19085e+8 
           1385      1.22158e+8 
           1395      1.25916e+8 
           1405      1.27596e+8 
           1415      1.19138e+8 
           1425      1.28082e+8 
           1435      1.17785e+8 
           1442      1.30379e+8 
           1447      1.41961e+8 
           1455      1.42056e+8 
           1465      1.31318e+8 
           1475      1.23012e+8 
           1485      1.29626e+8 
           1495      1.38392e+8 
           1505      1.38859e+8 
           1512      1.30145e+8 
           1517      1.38925e+8 
           1525      1.26079e+8 
           1535      1.19245e+8 
           1545      1.42499e+8 
           1555      1.25602e+8 
           1565      1.15171e+8 
           1575      1.25884e+8 
           1585      1.37561e+8 
           1595      1.45407e+8 
           1605      1.35994e+8 
           1615      1.35633e+8 
           1625      1.23699e+8 
           1635      1.28559e+8 
           1645      1.33546e+8 
           1655      1.16562e+8 
           1665      1.30945e+8 
           1672      9.98118e+7 
           1677      1.24397e+8 
           1685      1.36111e+8 
           1695      1.27179e+8 
           1705      1.20495e+8 
           1715      1.19667e+8 
           1725      1.18421e+8 
           1735      1.24107e+8 
           1745      1.21816e+8 
           1755       1.3205e+8 
           1765      1.15266e+8 
           1775      1.26604e+8 
           1785      1.25378e+8 
           1795      1.34918e+8 
           1805      1.28316e+8 
           1815      1.27386e+8 
           1825      1.22612e+8 
           1835      1.19008e+8 
           1845      1.11037e+8 
           1855      1.15427e+8 
           1865      1.15134e+8 
           1875      1.21261e+8 
           1885      1.20158e+8 
           1895       1.1691e+8 
           1905      1.12073e+8 
           1915      1.16022e+8 
           1925      1.16843e+8 
           1935      1.16212e+8 
           1945       1.1963e+8 
           1955      1.17641e+8 
           1967      1.20728e+8 
           1976      1.19505e+8 
           1984      1.15969e+8 
           1995      1.12942e+8 
           2005      1.13112e+8 
           2015       1.0648e+8 
           2025      1.09226e+8 
           2035       1.0951e+8 
           2045      1.11874e+8 
           2055      1.05427e+8 
           2065      1.05821e+8 
           2074      1.09389e+8 
           2078      1.11804e+8 
           2085      1.11236e+8 
           2095      1.07542e+8 
           2105      1.05825e+8 
           2115      1.05105e+8 
           2125       1.0567e+8 
           2135      9.26983e+7 
           2145      1.01784e+8 
           2155      1.02521e+8 
           2165      9.83291e+7 
           2175      9.69413e+7 
           2185      9.61585e+7 
           2195      1.01321e+8 
           2205      9.72192e+7 
           2215      8.98857e+7 
           2225      8.79153e+7 
           2235      9.65274e+7 
           2245      8.79928e+7 
           2255      8.66066e+7 
           2265      8.73196e+7 
           2275      9.24641e+7 
           2285      9.44994e+7 
           2295      8.93289e+7 
           2305      8.73217e+7 
           2315      8.47201e+7 
           2325       8.4878e+7 
           2335      8.03592e+7 
           2345      7.52222e+7 
           2355      8.30961e+7 
           2365      7.55988e+7 
           2375      7.95653e+7 
           2385      7.08989e+7 
           2395      7.72568e+7 
           2405      7.36326e+7 
           2415      7.54463e+7 
           2425      7.91432e+7 
           2435      7.55845e+7 
           2445       8.0406e+7 
           2455      7.72333e+7 
           2465      7.71783e+7 
           2475      7.41143e+7 
           2485      7.85826e+7 
           2495      7.61081e+7 
           2505      8.16794e+7 
           2513      7.53081e+7 
           2518      7.62749e+7 
           2525      7.15745e+7 
           2535      7.08409e+7 
           2545      7.13323e+7 
           2555       7.4705e+7 
           2565      7.41237e+7 
           2575      7.83671e+7 
           2585       7.8151e+7 
           2595       7.7175e+7 
           2605      7.40188e+7 
           2615      7.37292e+7 
           2625       7.6345e+7 
           2635      7.66511e+7 
           2645      8.27822e+7 
           2655      8.15398e+7 
           2665      7.62877e+7 
           2675      7.89141e+7 
           2685      7.85678e+7 
           2695      7.57761e+7 
           2705      7.71271e+7 
           2715       7.4025e+7 
           2725      7.44771e+7 
           2735      7.89396e+7 
           2745       6.9661e+7 
           2755       6.9593e+7 
           2765      7.15346e+7 
           2775        7.533e+7 
           2785      7.38623e+7 
           2795      5.64658e+7 
           2805      6.32174e+7 
           2815      7.57764e+7 
           2825      7.60245e+7 
           2835      7.36048e+7 
           2845       7.1287e+7 
           2855      6.97301e+7 
           2865      7.27369e+7 
           2875       7.1065e+7 
           2885      7.25059e+7 
           2895      7.06394e+7 
           2910      7.55452e+7 
           2930      7.26962e+7 
           2950      7.26143e+7 
           2970      7.30148e+7 
           2990      7.29262e+7 
           3010      7.38232e+7 
           3030      7.30529e+7 
           3050      7.19441e+7 
           3070       7.0638e+7 
           3090      7.13443e+7 
           3110      6.97791e+7 
           3130       6.9294e+7 
           3150      6.95103e+7 
           3170      6.88684e+7 
           3190      6.68784e+7 
           3210      6.76125e+7 
           3230      6.62542e+7 
           3250      6.64827e+7 
           3270      6.63977e+7 
           3290      6.65744e+7 
           3310        6.646e+7 
           3330      6.50764e+7 
           3350      6.40331e+7 
           3370      6.40814e+7 
           3390      6.34094e+7 
           3410       6.4048e+7 
           3430      6.36875e+7 
           3450      6.32076e+7 
           3470       6.2431e+7 
           3490      6.20485e+7 
           3510      6.20437e+7 
           3530      6.19352e+7 
           3550      6.16279e+7 
           3570      6.08891e+7 
           3590      6.04551e+7 
           3610      6.01167e+7 
           3630       5.9619e+7 
           3640      5.93488e+7 
           3650      6.04718e+7 
           3670      5.96187e+7 
           3690      5.74829e+7 
           3710      6.55166e+7 
           3730      7.51081e+7 
           3750      1.07317e+8 
           3770      1.12012e+8 
           3790      1.32945e+8 
           3810      1.48625e+8 
           3830      1.19263e+8 
           3850      1.55902e+8 
           3870      1.66253e+8 
           3890      1.07842e+8 
           3910      1.61908e+8 
           3930      1.60959e+8 
           3950      1.60007e+8 
           3970      1.01486e+8 
           3990      1.54266e+8 
           4010      1.56897e+8 
           4030       1.5414e+8 
           4050      1.53241e+8 
           4070      1.49501e+8 
           4090      1.31526e+8 
           4110      1.03089e+8 
           4130      1.41725e+8 
           4150      1.43156e+8 
           4170      1.40562e+8 
           4190       1.3935e+8 
           4210      1.37842e+8 
           4230       1.3538e+8 
           4250       1.3356e+8 
           4270      1.31686e+8 
           4290       1.2958e+8 
           4310       1.2561e+8 
           4330      1.06712e+8 
           4350      9.14125e+7 
           4370      1.21938e+8 
           4390      1.19985e+8 
           4410      1.19692e+8 
           4430      1.18423e+8 
           4450      1.17072e+8 
           4470      1.15223e+8 
           4490      1.12721e+8 
           4510      1.12192e+8 
           4530      1.10552e+8 
           4550      1.08265e+8 
           4570      1.08102e+8 
           4590      1.06288e+8 
           4610      1.06204e+8 
           4630      1.03735e+8 
           4650      1.03484e+8 
           4670      1.02019e+8 
           4690      1.00726e+8 
           4710      9.85293e+7 
           4730      9.83158e+7 
           4750      9.70806e+7 
           4770      9.59966e+7 
           4790      9.47238e+7 
           4810      9.31415e+7 
           4830      9.11848e+7 
           4850       7.8573e+7 
           4870      6.42922e+7 
           4890      8.73523e+7 
           4910      8.75844e+7 
           4930      8.62893e+7 
           4950      8.58656e+7 
           4970      8.49486e+7 
           4990      8.38061e+7 
           5010      8.19916e+7 
           5030      8.15925e+7 
           5050      8.00316e+7 
           5070      7.98573e+7 
           5090      7.89401e+7 
           5110      7.79252e+7 
           5130      7.70926e+7 
           5150      7.60533e+7 
           5170      7.45428e+7 
           5190      7.38029e+7 
           5210       7.3404e+7 
           5230      7.22059e+7 
           5250      7.18345e+7 
           5270      7.04507e+7 
           5290      7.02542e+7 
           5310      6.90512e+7 
           5330      6.84107e+7 
           5350      6.79357e+7 
           5370      6.71301e+7 
           5390      6.63722e+7 
           5410      6.55155e+7 
           5430      6.47949e+7 
           5450      6.42111e+7 
           5470      6.34377e+7 
           5490      6.27876e+7 
           5510      6.20733e+7 
           5530        6.138e+7 
           5550      6.07757e+7 
           5570      6.00972e+7 
           5590       5.9463e+7 
           5610      5.88434e+7 
           5630      5.82086e+7 
           5650       5.7501e+7 
           5670      5.68957e+7 
           5690      5.63382e+7 
           5710      5.57409e+7 
           5730      5.51528e+7 
           5750      5.45521e+7 
           5770        5.398e+7 
           5790      5.33841e+7 
           5810      5.28241e+7 
           5830       5.2275e+7 
           5850      5.17321e+7 
           5870      5.10533e+7 
           5890      5.05421e+7 
           5910      5.01165e+7 
           5930      4.96076e+7 
           5950      4.89852e+7 
           5970      4.85635e+7 
           5990      4.79667e+7 
           6010       4.7574e+7 
           6030      4.70993e+7 
           6050       4.6595e+7 
           6070      4.61381e+7 
           6090       4.5668e+7 
           6110       4.5207e+7 
           6130      4.47431e+7 
           6150      4.39804e+7 
           6170      4.38422e+7 
           6190      4.34178e+7 
           6210      4.29822e+7 
           6230      4.25417e+7 
           6250      4.19777e+7 
           6270      4.17122e+7 
           6290      4.13017e+7 
           6310      4.08624e+7 
           6330      4.04852e+7 
           6350      3.97531e+7 
           6370      3.94751e+7 
           6390      3.92994e+7 
           6410      3.88951e+7 
           6430      3.85414e+7 
           6450      3.80184e+7 
           6470      3.78071e+7 
           6490      3.73527e+7 
           6510      3.69075e+7 
           6530      3.62762e+7 
           6550      3.30958e+7 
           6570      2.68612e+7 
           6590      3.47989e+7 
           6610      3.51284e+7 
           6630      3.49168e+7 
           6650       3.4673e+7 
           6670      3.43324e+7 
           6690      3.40163e+7 
           6710      3.37168e+7 
           6730      3.33662e+7 
           6750      3.30827e+7 
           6770      3.27848e+7 
           6790      3.24727e+7 
           6810      3.21766e+7 
           6830      3.18665e+7 
           6850      3.15811e+7 
           6870      3.12937e+7 
           6890        3.101e+7 
           6910      3.07226e+7 
           6930      3.04357e+7 
           6950      3.01672e+7 
           6970      2.98927e+7 
           6990      2.96271e+7 
           7010      2.93065e+7 
           7030      2.90919e+7 
           7050      2.88165e+7 
           7070      2.85617e+7 
           7090      2.83199e+7 
           7110      2.80318e+7 
           7130      2.78081e+7 
           7150      2.75488e+7 
           7170      2.73206e+7 
           7190      2.70792e+7 
           7210      2.68429e+7 
           7230      2.65973e+7 
           7250      2.63526e+7 
           7270      2.61422e+7 
           7290      2.59054e+7 
           7310      2.56778e+7 
           7330      2.54629e+7 
           7350       2.5245e+7 
           7370      2.50298e+7 
           7390       2.4811e+7 
           7410      2.45908e+7 
           7430      2.43412e+7 
           7450      2.41571e+7 
           7470      2.39321e+7 
           7490        2.375e+7 
           7510      2.35482e+7 
           7530      2.33622e+7 
           7550      2.31659e+7 
           7570      2.29674e+7 
           7590      2.27732e+7 
           7610       2.2586e+7 
           7630      2.23934e+7 
           7650      2.22005e+7 
           7670      2.20176e+7 
           7690      2.18331e+7 
           7710      2.16471e+7 
           7730      2.14747e+7 
           7750      2.12969e+7 
           7770      2.07556e+7 
           7790      2.09466e+7 
           7810      2.07752e+7 
           7830      2.06022e+7 
           7850      2.04136e+7 
           7870       2.0195e+7 
           7890      1.99881e+7 
           7910      1.99317e+7 
           7930      1.97732e+7 
           7950      1.95504e+7 
           7970      1.94583e+7 
           7990      1.91333e+7 
           8010      1.91441e+7 
           8030       1.8991e+7 
           8050      1.88375e+7 
           8070       1.8687e+7 
           8090      1.85383e+7 
           8110      1.83851e+7 
           8130       1.8244e+7 
           8150      1.81001e+7 
           8170      1.79574e+7 
           8190      1.77856e+7 
           8210      1.77169e+7 
           8230      1.75553e+7 
           8250      1.74836e+7 
           8270      1.74074e+7 
           8290      1.72676e+7 
           8310      1.71453e+7 
           8330      1.69811e+7 
           8350      1.68447e+7 
           8370      1.66411e+7 
           8390      1.64575e+7 
           8410      1.62425e+7 
           8430      1.62148e+7 
           8450      1.59856e+7 
           8470      1.54208e+7 
           8490      1.63753e+7 
           8510      1.49771e+7 
           8530      1.65441e+7 
           8550      1.42544e+7 
           8570      1.67834e+7 
           8590      1.53636e+7 
           8610      1.48833e+7 
           8630      1.70385e+7 
           8650      1.64337e+7 
           8670      1.32491e+7 
           8690      1.68429e+7 
           8710      1.72762e+7 
           8730      1.67018e+7 
           8750      1.28751e+7 
           8770      1.58954e+7 
           8790      1.68612e+7 
           8810      1.68061e+7 
           8830      1.65155e+7 
           8850      1.50831e+7 
           8870      1.25056e+7 
           8890      1.58734e+7 
           8910      1.61206e+7 
           8930      1.60419e+7 
           8950      1.60027e+7 
           8970      1.58233e+7 
           8990      1.53791e+7 
           9010      1.23163e+7 
           9030      1.35896e+7 
           9050      1.51823e+7 
           9070      1.51608e+7 
           9090      1.50367e+7 
           9110      1.50493e+7 
           9130      1.49667e+7 
           9150      1.48532e+7 
           9170      1.47016e+7 
