# Kurucz ODFNEW /NOVER (2003)
# teff = 19000 K (value for the effective temperature for the model. Temperatures are given in K)
# logg = 2.5 log(cm/s2) (value for Log(G) for the model.)
# meta = 0  (value for the Metallicity for the model.)
# lh = 1.25  (l/Hp where l is the  mixing length of the convective element and Hp is the pressure scale height)
# vtur = 2 km/s (Microturbulence velocity)
# alpha = 0.4  (Alpha)
#
# column 1: WAVELENGTH (ANGSTROM), Wavelength in Angstrom
# column 2: FLUX (ERG/CM2/S/A), Flux in erg/cm2/s/A
          147.2     2.69214e-22 
            151     1.92718e-21 
          155.2     1.45852e-20 
          158.8     7.59362e-20 
            162     3.11372e-19 
            166     1.68965e-18 
          170.3     9.55317e-18 
          173.4     3.18185e-17 
          176.8     1.13464e-16 
          180.2     3.86776e-16 
          181.7      6.5502e-16 
          186.1     2.93828e-15 
            191     1.44791e-14 
          193.9     3.58741e-14 
          198.4     1.39446e-13 
          201.8     3.74239e-13 
            205     9.20735e-13 
          210.5     4.06808e-12 
          216.2     1.75556e-11 
          219.8     4.25427e-11 
            223     9.12638e-11 
          226.8     2.19769e-10 
            230      4.17023e-9 
            234       1.1388e-8 
            240      3.67272e-8 
          246.5      1.22116e-7 
          252.4      3.48245e-7 
          256.8      7.12713e-7 
            260       1.2621e-6 
            264      2.38223e-6 
          268.5      4.76711e-6 
          273.5      9.97296e-6 
          278.5        2.055e-5 
            284       4.5696e-5 
            290     0.000100866 
            296     0.000215978 
            301     0.000397449 
            308     0.000923913 
            318      0.00288422 
            328      0.00799443 
            338       0.0218346 
            348       0.0548775 
            357        0.173415 
            366        0.372466 
            375        0.723803 
            385         1.49263 
            395         2.99911 
            405         5.70222 
            414         10.0132 
            422         15.8607 
            430         25.1873 
            441         45.8299 
            451         76.6105 
            460         118.346 
            470         190.565 
            480         297.361 
            490          460.94 
            500         698.471 
            506         5350.57 
            512         79397.4 
            520          100207 
            530          148653 
            540          161583 
            550          280573 
            560          350121 
            570          467114 
            580          439544 
            590          658330 
            600          870088 
            610      1.12796e+6 
            620      1.30003e+6 
            630      1.51802e+6 
            640      1.59715e+6 
            650      1.60126e+6 
            658      2.29258e+6 
            665      2.51607e+6 
            675      2.66102e+6 
            685      2.86611e+6 
            695      3.82575e+6 
            705      4.11729e+6 
            716       4.8483e+6 
            726      5.17574e+6 
            735      5.75284e+6 
            745      6.85345e+6 
            755      7.69618e+6 
            765      8.62668e+6 
            775      9.69633e+6 
            785      1.07225e+7 
            795      1.15339e+7 
            805      1.25008e+7 
            815      1.34215e+7 
            825      1.50935e+7 
            835      1.35038e+7 
            845      1.67422e+7 
            855      1.78592e+7 
            865      1.96475e+7 
            875      2.15707e+7 
            885      2.42096e+7 
            895      2.61642e+7 
            905      2.58841e+7 
            915      7.46957e+7 
            925      1.53739e+9 
            935      2.65685e+9 
            945       3.6114e+9 
            955      4.29633e+9 
            965      3.67734e+9 
            975      6.58803e+8 
            985      2.33922e+9 
            995       3.2205e+9 
           1005      4.62359e+9 
           1015      4.69931e+9 
           1025      3.72669e+9 
           1035      3.14339e+9 
           1045      6.20727e+9 
           1055      5.65555e+9 
           1065       4.0492e+9 
           1075      5.42686e+9 
           1085      4.52469e+9 
           1095      5.75734e+9 
           1105      4.52498e+9 
           1115      3.74722e+9 
           1125      3.20315e+9 
           1135      5.41454e+9 
           1145       4.8994e+9 
           1155      5.28202e+9 
           1165      5.30942e+9 
           1175      3.05395e+9 
           1185      5.15237e+9 
           1195      3.41451e+9 
           1205      8.30373e+8 
           1215      2.20981e+9 
           1225      4.51887e+9 
           1235      5.64887e+9 
           1245      5.61148e+9 
           1255      5.54537e+9 
           1265      5.34057e+9 
           1275      5.69535e+9 
           1285      5.57306e+9 
           1295      2.46072e+9 
           1305      2.84766e+9 
           1315      5.42363e+9 
           1325      5.12062e+9 
           1335      4.51574e+9 
           1345      5.22562e+9 
           1355      5.14733e+9 
           1365      4.51717e+9 
           1375      4.45968e+9 
           1385        4.162e+9 
           1395      2.56002e+9 
           1405      3.08288e+9 
           1415      3.83799e+9 
           1425      4.10008e+9 
           1435      4.27859e+9 
           1442      4.45184e+9 
           1447      4.34592e+9 
           1455      4.21605e+9 
           1465      3.87994e+9 
           1475      3.99807e+9 
           1485      3.96234e+9 
           1495       3.8871e+9 
           1505      3.54039e+9 
           1512      3.11417e+9 
           1517      3.28635e+9 
           1525      3.43582e+9 
           1535      2.91378e+9 
           1545      2.92053e+9 
           1555      2.83604e+9 
           1565      3.05447e+9 
           1575      3.27444e+9 
           1585      3.31603e+9 
           1595      3.31145e+9 
           1605      3.36084e+9 
           1615       3.3598e+9 
           1625      3.24624e+9 
           1635      3.50274e+9 
           1645      3.50302e+9 
           1655      3.38723e+9 
           1665      3.54154e+9 
           1672       3.3943e+9 
           1677      3.62272e+9 
           1685      3.60313e+9 
           1695      3.35067e+9 
           1705      3.26379e+9 
           1715      3.03128e+9 
           1725      3.05663e+9 
           1735      3.23938e+9 
           1745      3.13159e+9 
           1755      3.18835e+9 
           1765      3.11834e+9 
           1775      2.93157e+9 
           1785      3.00073e+9 
           1795      3.18008e+9 
           1805      3.23617e+9 
           1815      2.76181e+9 
           1825      2.97119e+9 
           1835      2.85566e+9 
           1845      2.59669e+9 
           1855       2.4698e+9 
           1865      2.55267e+9 
           1875      2.85653e+9 
           1885       2.4972e+9 
           1895      2.29257e+9 
           1905      2.60013e+9 
           1915      2.35372e+9 
           1925      2.26437e+9 
           1935      2.45725e+9 
           1945      2.47497e+9 
           1955      2.23483e+9 
           1967      2.52001e+9 
           1976      2.61433e+9 
           1984      2.43346e+9 
           1995      2.37016e+9 
           2005      2.53026e+9 
           2015      2.46429e+9 
           2025      2.58342e+9 
           2035      2.31666e+9 
           2045       2.4154e+9 
           2055      2.32156e+9 
           2065       2.2971e+9 
           2074      2.51271e+9 
           2078      2.16279e+9 
           2085      2.37084e+9 
           2095      2.22526e+9 
           2105      2.29369e+9 
           2115      2.33336e+9 
           2125      2.35092e+9 
           2135       2.3201e+9 
           2145      2.17881e+9 
           2155      2.31407e+9 
           2165      2.32569e+9 
           2175      2.30507e+9 
           2185      2.19351e+9 
           2195      2.26076e+9 
           2205      2.25789e+9 
           2215      2.20007e+9 
           2225      2.14069e+9 
           2235      2.14413e+9 
           2245      2.17784e+9 
           2255        2.085e+9 
           2265      2.14653e+9 
           2275      2.12384e+9 
           2285      2.14043e+9 
           2295      1.94959e+9 
           2305      2.06686e+9 
           2315      1.98845e+9 
           2325      1.95988e+9 
           2335      1.86795e+9 
           2345       1.8935e+9 
           2355      1.91611e+9 
           2365      1.88957e+9 
           2375      1.87135e+9 
           2385      1.84642e+9 
           2395      1.85822e+9 
           2405      1.80242e+9 
           2415      1.80522e+9 
           2425      1.81714e+9 
           2435      1.75085e+9 
           2445      1.78098e+9 
           2455      1.78863e+9 
           2465      1.74147e+9 
           2475      1.71033e+9 
           2485      1.68641e+9 
           2495      1.42793e+9 
           2505      1.63419e+9 
           2513      1.58055e+9 
           2518      1.64956e+9 
           2525      1.61413e+9 
           2535      1.59703e+9 
           2545      1.51395e+9 
           2555      1.58632e+9 
           2565      1.55754e+9 
           2575      1.59109e+9 
           2585      1.56697e+9 
           2595      1.55788e+9 
           2605      1.55194e+9 
           2615      1.52764e+9 
           2625      1.51875e+9 
           2635      1.51213e+9 
           2645      1.51757e+9 
           2655      1.51648e+9 
           2665      1.45308e+9 
           2675      1.47362e+9 
           2685      1.46392e+9 
           2695      1.41682e+9 
           2705      1.39833e+9 
           2715      1.39868e+9 
           2725      1.38787e+9 
           2735      1.38807e+9 
           2745      1.33757e+9 
           2755      1.33786e+9 
           2765      1.33628e+9 
           2775      1.34956e+9 
           2785      1.32706e+9 
           2795      1.27293e+9 
           2805      1.30083e+9 
           2815      1.29955e+9 
           2825      1.28975e+9 
           2835      1.23361e+9 
           2845      1.24547e+9 
           2855      1.23011e+9 
           2865      1.24182e+9 
           2875      1.22691e+9 
           2885      1.21996e+9 
           2895      1.19775e+9 
           2910      1.18022e+9 
           2930      1.16246e+9 
           2950      1.13237e+9 
           2970      1.12127e+9 
           2990      1.09933e+9 
           3010       1.0634e+9 
           3030      1.06606e+9 
           3050      1.05031e+9 
           3070      1.03555e+9 
           3090      9.97131e+8 
           3110      9.93734e+8 
           3130      9.74423e+8 
           3150       9.6038e+8 
           3170      9.37503e+8 
           3190      9.18491e+8 
           3210      9.08946e+8 
           3230      8.90791e+8 
           3250      8.79719e+8 
           3270      8.62191e+8 
           3290      8.46694e+8 
           3310      8.34189e+8 
           3330      8.18423e+8 
           3350      8.04853e+8 
           3370      7.90784e+8 
           3390      7.80104e+8 
           3410      7.67999e+8 
           3430      7.51672e+8 
           3450      7.37095e+8 
           3470       7.2587e+8 
           3490      7.13893e+8 
           3510      7.04191e+8 
           3530       6.9575e+8 
           3550      6.83927e+8 
           3570      6.74542e+8 
           3590      6.56611e+8 
           3610      6.44933e+8 
           3630      6.38532e+8 
           3640      6.38071e+8 
           3650      6.28471e+8 
           3670      6.20438e+8 
           3690      5.99537e+8 
           3710      6.10908e+8 
           3730      6.20377e+8 
           3750      6.64223e+8 
           3770      6.54225e+8 
           3790      6.52689e+8 
           3810      6.69342e+8 
           3830      6.14164e+8 
           3850      6.55836e+8 
           3870      6.39139e+8 
           3890      5.94343e+8 
           3910       6.3325e+8 
           3930      6.08503e+8 
           3950      6.10131e+8 
           3970      5.52704e+8 
           3990      5.91286e+8 
           4010      5.83857e+8 
           4030      5.65318e+8 
           4050       5.6634e+8 
           4070      5.47256e+8 
           4090      5.34237e+8 
           4110      4.98876e+8 
           4130      5.21686e+8 
           4150      5.17392e+8 
           4170      5.14282e+8 
           4190       5.0962e+8 
           4210      5.05087e+8 
           4230      4.94996e+8 
           4250       4.8455e+8 
           4270      4.71405e+8 
           4290      4.67859e+8 
           4310      4.58335e+8 
           4330      4.44928e+8 
           4350      4.15323e+8 
           4370      4.38399e+8 
           4390      4.34843e+8 
           4410      4.29823e+8 
           4430      4.24319e+8 
           4450      4.19487e+8 
           4470      4.08011e+8 
           4490      4.06664e+8 
           4510      4.04454e+8 
           4530      3.97476e+8 
           4550      3.92552e+8 
           4570      3.86508e+8 
           4590      3.80983e+8 
           4610      3.73679e+8 
           4630       3.6935e+8 
           4650      3.59507e+8 
           4670      3.58835e+8 
           4690      3.56466e+8 
           4710      3.43868e+8 
           4730      3.43677e+8 
           4750      3.38718e+8 
           4770      3.38997e+8 
           4790       3.3343e+8 
           4810      3.26706e+8 
           4830      3.22585e+8 
           4850      3.16566e+8 
           4870      2.92544e+8 
           4890      3.11283e+8 
           4910       3.0697e+8 
           4930      2.98843e+8 
           4950      2.97878e+8 
           4970      2.96065e+8 
           4990      2.91442e+8 
           5010      2.80475e+8 
           5030      2.83192e+8 
           5050      2.76271e+8 
           5070      2.76294e+8 
           5090      2.72367e+8 
           5110      2.68349e+8 
           5130      2.63269e+8 
           5150      2.60745e+8 
           5170      2.58845e+8 
           5190      2.55581e+8 
           5210      2.50278e+8 
           5230      2.49138e+8 
           5250      2.46164e+8 
           5270      2.42509e+8 
           5290      2.40073e+8 
           5310      2.36731e+8 
           5330      2.33645e+8 
           5350      2.30164e+8 
           5370      2.28348e+8 
           5390      2.25269e+8 
           5410      2.22667e+8 
           5430      2.19024e+8 
           5450      2.16493e+8 
           5470       2.1378e+8 
           5490      2.11725e+8 
           5510      2.09298e+8 
           5530      2.06345e+8 
           5550      2.04384e+8 
           5570      2.01595e+8 
           5590       1.9954e+8 
           5610      1.96612e+8 
           5630      1.94873e+8 
           5650      1.90616e+8 
           5670      1.88137e+8 
           5690       1.8613e+8 
           5710      1.85059e+8 
           5730      1.83093e+8 
           5750      1.80477e+8 
           5770       1.7916e+8 
           5790      1.76958e+8 
           5810       1.7486e+8 
           5830       1.7251e+8 
           5850       1.7076e+8 
           5870      1.65301e+8 
           5890      1.65505e+8 
           5910      1.64474e+8 
           5930      1.62412e+8 
           5950      1.60099e+8 
           5970       1.5944e+8 
           5990      1.56897e+8 
           6010      1.55719e+8 
           6030      1.53703e+8 
           6050      1.52092e+8 
           6070      1.50539e+8 
           6090      1.48749e+8 
           6110      1.47182e+8 
           6130      1.45621e+8 
           6150      1.43162e+8 
           6170      1.42017e+8 
           6190      1.40708e+8 
           6210      1.39227e+8 
           6230      1.37732e+8 
           6250      1.35859e+8 
           6270      1.34543e+8 
           6290      1.33108e+8 
           6310      1.31405e+8 
           6330      1.30312e+8 
           6350      1.28157e+8 
           6370      1.27075e+8 
           6390      1.25921e+8 
           6410      1.24595e+8 
           6430      1.23466e+8 
           6450      1.22049e+8 
           6470      1.20441e+8 
           6490      1.19217e+8 
           6510      1.18085e+8 
           6530      1.16701e+8 
           6550      1.14716e+8 
           6570      1.04427e+8 
           6590      1.12165e+8 
           6610      1.11901e+8 
           6630      1.10867e+8 
           6650      1.09613e+8 
           6670      1.07873e+8 
           6690      1.06808e+8 
           6710      1.06373e+8 
           6730      1.05068e+8 
           6750       1.0424e+8 
           6770      1.03181e+8 
           6790      1.01357e+8 
           6810      1.00916e+8 
           6830      9.98256e+7 
           6850      9.89705e+7 
           6870      9.79561e+7 
           6890      9.68803e+7 
           6910      9.58312e+7 
           6930      9.49337e+7 
           6950      9.40683e+7 
           6970      9.31337e+7 
           6990      9.21543e+7 
           7010      9.12229e+7 
           7030      9.03082e+7 
           7050        8.941e+7 
           7070      8.71864e+7 
           7090      8.76845e+7 
           7110       8.6238e+7 
           7130      8.54733e+7 
           7150      8.50547e+7 
           7170      8.42365e+7 
           7190      8.34551e+7 
           7210      8.26377e+7 
           7230      8.05956e+7 
           7250      8.08468e+7 
           7270      8.02244e+7 
           7290      7.88774e+7 
           7310      7.86649e+7 
           7330      7.78927e+7 
           7350      7.71904e+7 
           7370       7.6453e+7 
           7390      7.57155e+7 
           7410      7.49986e+7 
           7430      7.41996e+7 
           7450      7.35438e+7 
           7470      7.25496e+7 
           7490      7.21224e+7 
           7510      7.14516e+7 
           7530      7.07536e+7 
           7550      7.01611e+7 
           7570      6.95082e+7 
           7590      6.88219e+7 
           7610      6.81484e+7 
           7630      6.75651e+7 
           7650      6.69419e+7 
           7670      6.63307e+7 
           7690      6.57058e+7 
           7710      6.50929e+7 
           7730      6.44665e+7 
           7750      6.39084e+7 
           7770      6.27811e+7 
           7790      6.27509e+7 
           7810      6.21396e+7 
           7830      6.16137e+7 
           7850      6.09553e+7 
           7870      6.03929e+7 
           7890      5.96743e+7 
           7910      5.93308e+7 
           7930      5.87545e+7 
           7950      5.80784e+7 
           7970      5.76799e+7 
           7990      5.70274e+7 
           8010      5.66896e+7 
           8030        5.622e+7 
           8050       5.5734e+7 
           8070      5.52846e+7 
           8090      5.47007e+7 
           8110       5.4079e+7 
           8130      5.38355e+7 
           8150      5.32818e+7 
           8170      5.29309e+7 
           8190      5.23133e+7 
           8210      5.17278e+7 
           8230      5.12442e+7 
           8250       5.1031e+7 
           8270      5.01862e+7 
           8290      5.00776e+7 
           8310      4.96415e+7 
           8330      4.92378e+7 
           8350      4.86213e+7 
           8370      4.80999e+7 
           8390      4.78147e+7 
           8410      4.73431e+7 
           8430      4.70317e+7 
           8450      4.62274e+7 
           8470      4.57394e+7 
           8490      4.63296e+7 
           8510       4.4744e+7 
           8530      4.58392e+7 
           8550      4.35048e+7 
           8570      4.56523e+7 
