# Kurucz ODFNEW /NOVER (2003)
# teff = 26000 K (value for the effective temperature for the model. Temperatures are given in K)
# logg = 3.5 log(cm/s2) (value for Log(G) for the model.)
# meta = -2  (value for the Metallicity for the model.)
# lh = 1.25  (l/Hp where l is the  mixing length of the convective element and Hp is the pressure scale height)
# vtur = 2 km/s (Microturbulence velocity)
# alpha = 0.4  (Alpha)
#
# column 1: WAVELENGTH (ANGSTROM), Wavelength in Angstrom
# column 2: FLUX (ERG/CM2/S/A), Flux in erg/cm2/s/A
          147.2     7.79562e-13 
            151     3.36762e-12 
          155.2     1.56001e-11 
          158.8     5.43863e-11 
            162     1.57502e-10 
            166     5.61334e-10 
          170.3      2.05537e-9 
          173.4      5.03282e-9 
          176.8      1.29488e-8 
          180.2      3.21227e-8 
          181.7      4.74351e-8 
          186.1      1.43553e-7 
            191      4.63505e-7 
          193.9      9.01212e-7 
          198.4      2.43174e-6 
          201.8      4.99543e-6 
            205      9.61971e-6 
          210.5      2.82924e-5 
          216.2      8.16043e-5 
          219.8     0.000154732 
            223     0.000268458 
          226.8     0.000505973 
            230       0.0515535 
            234        0.124077 
            240        0.275045 
          246.5        0.629678 
          252.4         1.29567 
          256.8         1.91466 
            260         3.04103 
            264         4.58193 
          268.5         7.36295 
          273.5         12.1008 
          278.5         19.5242 
            284         32.7195 
            290         55.2955 
            296         91.1768 
            301         133.313 
            308         212.077 
            318         490.601 
            328         957.861 
            338         1839.13 
            348         3345.35 
            357         5723.85 
            366         9401.92 
            375         14569.5 
            385         23684.7 
            395         37029.5 
            405         56500.8 
            414         81772.4 
            422          110002 
            430          147310 
            441          217013 
            451          304327 
            460          401922 
            470          545584 
            480          725498 
            490          954423 
            500      1.24381e+6 
            506      9.21136e+6 
            512      2.66354e+7 
            520      2.95866e+7 
            530      3.54922e+7 
            540      3.62776e+7 
            550      4.64255e+7 
            560      5.18664e+7 
            570       5.9094e+7 
            580      5.83102e+7 
            590      7.12918e+7 
            600      7.96427e+7 
            610      8.91961e+7 
            620      9.71666e+7 
            630      1.07428e+8 
            640      1.13672e+8 
            650      1.25734e+8 
            658      1.35851e+8 
            665      1.43587e+8 
            675      1.51147e+8 
            685      1.60704e+8 
            695      1.81359e+8 
            705      1.89219e+8 
            716      2.08758e+8 
            726      2.20737e+8 
            735      2.35567e+8 
            745      2.53619e+8 
            755      2.69118e+8 
            765      2.85438e+8 
            775      3.04332e+8 
            785      3.23551e+8 
            795      3.38709e+8 
            805      3.57618e+8 
            815      3.73176e+8 
            825      3.95225e+8 
            835      3.96405e+8 
            845      4.29773e+8 
            855      4.48272e+8 
            865      4.70292e+8 
            875      4.93383e+8 
            885      5.15918e+8 
            895      5.36811e+8 
            905      5.52336e+8 
            915      9.61639e+8 
            925      9.51262e+9 
            935     1.84507e+10 
            945     3.05079e+10 
            955     3.34177e+10 
            965     3.82161e+10 
            975      2.1278e+10 
            985     3.65735e+10 
            995     3.45673e+10 
           1005     3.55598e+10 
           1015     3.45148e+10 
           1025     2.23131e+10 
           1035     3.24155e+10 
           1045     3.54538e+10 
           1055      3.4416e+10 
           1065     3.17257e+10 
           1075     3.25155e+10 
           1085     3.05656e+10 
           1095      3.2048e+10 
           1105     3.07647e+10 
           1115     3.02705e+10 
           1125     2.82315e+10 
           1135     2.94926e+10 
           1145     2.79743e+10 
           1155     2.83022e+10 
           1165     2.79905e+10 
           1175     2.41693e+10 
           1185     2.66842e+10 
           1195     2.55354e+10 
           1205     2.32489e+10 
           1215     1.53833e+10 
           1225     2.42006e+10 
           1235     2.45702e+10 
           1245     2.39229e+10 
           1255     2.37214e+10 
           1265     2.32155e+10 
           1275     2.30484e+10 
           1285     2.26078e+10 
           1295     2.07832e+10 
           1305     2.10505e+10 
           1315     2.13568e+10 
           1325     2.07222e+10 
           1335     2.00834e+10 
           1345      2.0012e+10 
           1355     1.99007e+10 
           1365     1.92912e+10 
           1375     1.90092e+10 
           1385     1.87567e+10 
           1395     1.72124e+10 
           1405     1.72362e+10 
           1415     1.76127e+10 
           1425     1.72636e+10 
           1435     1.71034e+10 
           1442     1.70067e+10 
           1447     1.68236e+10 
           1455     1.65448e+10 
           1465     1.62273e+10 
           1475     1.59518e+10 
           1485     1.56915e+10 
           1495     1.53788e+10 
           1505     1.49132e+10 
           1512     1.47919e+10 
           1517     1.47032e+10 
           1525     1.44675e+10 
           1535     1.38315e+10 
           1545     1.36033e+10 
           1555     1.32695e+10 
           1565     1.33317e+10 
           1575     1.32619e+10 
           1585     1.30674e+10 
           1595     1.28842e+10 
           1605     1.24318e+10 
           1615     1.22045e+10 
           1625     1.20947e+10 
           1635     1.19729e+10 
           1645     1.15411e+10 
           1655     1.16559e+10 
           1665     1.14525e+10 
           1672     1.13017e+10 
           1677      1.1387e+10 
           1685     1.11972e+10 
           1695     1.09661e+10 
           1705     1.07404e+10 
           1715     1.04768e+10 
           1725      1.0325e+10 
           1735      1.0264e+10 
           1745     1.00849e+10 
           1755      9.96319e+9 
           1765      9.70658e+9 
           1775      9.57121e+9 
           1785      9.46924e+9 
           1795      9.37034e+9 
           1805      9.26784e+9 
           1815      9.05701e+9 
           1825      8.93914e+9 
           1835      8.80987e+9 
           1845      8.47801e+9 
           1855      8.29664e+9 
           1865      8.26856e+9 
           1875      8.24017e+9 
           1885      7.90806e+9 
           1895       7.6642e+9 
           1905      7.77922e+9 
           1915       7.5294e+9 
           1925      7.38255e+9 
           1935      7.40706e+9 
           1945      7.38088e+9 
           1955       7.0552e+9 
           1967      7.12313e+9 
           1976      7.12699e+9 
           1984      6.92253e+9 
           1995      6.71559e+9 
           2005      6.76806e+9 
           2015      6.72963e+9 
           2025      6.67086e+9 
           2035      6.50194e+9 
           2045      6.40914e+9 
           2055      6.07697e+9 
           2065      5.98283e+9 
           2074      6.07106e+9 
           2078      5.95366e+9 
           2085      6.00214e+9 
           2095      5.91202e+9 
           2105      5.91371e+9 
           2115      5.86752e+9 
           2125      5.80917e+9 
           2135      5.72232e+9 
           2145      5.62094e+9 
           2155       5.5702e+9 
           2165      5.49282e+9 
           2175      5.42005e+9 
           2185      5.34459e+9 
           2195      5.28701e+9 
           2205       5.2146e+9 
           2215      5.13821e+9 
           2225      5.07227e+9 
           2235      5.00066e+9 
           2245      4.94231e+9 
           2255      4.86508e+9 
           2265       4.8126e+9 
           2275      4.74986e+9 
           2285      4.68716e+9 
           2295      4.56036e+9 
           2305      4.55746e+9 
           2315      4.50201e+9 
           2325      4.44434e+9 
           2335      4.38189e+9 
           2345      4.33227e+9 
           2355      4.27789e+9 
           2365       4.2236e+9 
           2375      4.16734e+9 
           2385       4.1079e+9 
           2395      4.06092e+9 
           2405      4.01159e+9 
           2415      3.95809e+9 
           2425      3.91232e+9 
           2435      3.85934e+9 
           2445      3.81372e+9 
           2455      3.76753e+9 
           2465      3.72115e+9 
           2475      3.67417e+9 
           2485      3.62904e+9 
           2495      3.45446e+9 
           2505      3.53854e+9 
           2513      3.47972e+9 
           2518      3.47679e+9 
           2525      3.45428e+9 
           2535      3.41319e+9 
           2545      3.35117e+9 
           2555      3.32551e+9 
           2565      3.28853e+9 
           2575      3.25178e+9 
           2585      3.21309e+9 
           2595        3.175e+9 
           2605      3.15478e+9 
           2615       3.1172e+9 
           2625      3.07879e+9 
           2635      3.03723e+9 
           2645      3.00241e+9 
           2655      2.96423e+9 
           2665      2.92595e+9 
           2675      2.89064e+9 
           2685      2.87119e+9 
           2695      2.81952e+9 
           2705      2.80381e+9 
           2715       2.7721e+9 
           2725      2.72283e+9 
           2735      2.70482e+9 
           2745      2.67714e+9 
           2755      2.64722e+9 
           2765      2.59894e+9 
           2775      2.58856e+9 
           2785      2.55864e+9 
           2795      2.50983e+9 
           2805      2.49551e+9 
           2815      2.47415e+9 
           2825      2.42698e+9 
           2835      2.40764e+9 
           2845      2.39265e+9 
           2855      2.36542e+9 
           2865      2.33967e+9 
           2875      2.31408e+9 
           2885       2.2891e+9 
           2895      2.26388e+9 
           2910      2.22649e+9 
           2930      2.17865e+9 
           2950      2.11973e+9 
           2970      2.08671e+9 
           2990      2.04228e+9 
           3010      1.99831e+9 
           3030      1.95749e+9 
           3050      1.91708e+9 
           3070      1.87755e+9 
           3090      1.83443e+9 
           3110       1.8009e+9 
           3130        1.765e+9 
           3150      1.72933e+9 
           3170      1.69408e+9 
           3190      1.64829e+9 
           3210      1.62602e+9 
           3230      1.59392e+9 
           3250      1.56242e+9 
           3270      1.53321e+9 
           3290       1.5013e+9 
           3310      1.47413e+9 
           3330      1.44541e+9 
           3350      1.41537e+9 
           3370      1.39046e+9 
           3390      1.36411e+9 
           3410       1.3383e+9 
           3430      1.30753e+9 
           3450      1.27874e+9 
           3470      1.25829e+9 
           3490      1.23491e+9 
           3510      1.21733e+9 
           3530       1.1958e+9 
           3550      1.17421e+9 
           3570      1.15754e+9 
           3590      1.13062e+9 
           3610      1.11188e+9 
           3630      1.09006e+9 
           3640      1.08675e+9 
           3650      1.07376e+9 
           3670      1.05876e+9 
           3690      1.03046e+9 
           3710       1.0025e+9 
           3730      9.76205e+8 
           3750      1.03963e+9 
           3770      1.03705e+9 
           3790      1.06393e+9 
           3810      1.09587e+9 
           3830      9.81445e+8 
           3850      1.10059e+9 
           3870      1.08794e+9 
           3890      9.36041e+8 
           3910      1.06335e+9 
           3930      1.04129e+9 
           3950      1.02683e+9 
           3970      8.67504e+8 
           3990      9.89571e+8 
           4010      9.73774e+8 
           4030      9.33351e+8 
           4050      9.47009e+8 
           4070      9.26853e+8 
           4090      8.84367e+8 
           4110      7.93687e+8 
           4130      8.74454e+8 
           4150      8.62502e+8 
           4170      8.53057e+8 
           4190      8.40104e+8 
           4210      8.26594e+8 
           4230      8.13111e+8 
           4250      7.99073e+8 
           4270      7.84807e+8 
           4290      7.72901e+8 
           4310      7.58951e+8 
           4330      7.15406e+8 
           4350      6.59428e+8 
           4370      7.22313e+8 
           4390      7.01184e+8 
           4410      7.00533e+8 
           4430      6.88425e+8 
           4450      6.79587e+8 
           4470      6.50593e+8 
           4490      6.58208e+8 
           4510      6.48309e+8 
           4530      6.38209e+8 
           4550      6.27734e+8 
           4570       6.1794e+8 
           4590      6.08508e+8 
           4610      5.99481e+8 
           4630      5.90447e+8 
           4650      5.78985e+8 
           4670      5.72136e+8 
           4690      5.62848e+8 
           4710      5.49095e+8 
           4730      5.47189e+8 
           4750       5.3885e+8 
           4770      5.31179e+8 
           4790      5.23288e+8 
           4810      5.15412e+8 
           4830      5.06808e+8 
           4850      4.83338e+8 
           4870      4.39173e+8 
           4890      4.84459e+8 
           4910      4.78801e+8 
           4930      4.64214e+8 
           4950       4.6496e+8 
           4970      4.58571e+8 
           4990      4.51998e+8 
           5010      4.41087e+8 
           5030      4.39209e+8 
           5050      4.30892e+8 
           5070      4.26898e+8 
           5090      4.20889e+8 
           5110      4.14989e+8 
           5130      4.09183e+8 
           5150      4.03483e+8 
           5170      3.97901e+8 
           5190       3.9242e+8 
           5210      3.86998e+8 
           5230       3.8173e+8 
           5250      3.76518e+8 
           5270      3.71386e+8 
           5290      3.66335e+8 
           5310      3.61376e+8 
           5330      3.56508e+8 
           5350      3.51702e+8 
           5370       3.4701e+8 
           5390      3.42365e+8 
           5410      3.37727e+8 
           5430       3.3334e+8 
           5450      3.28932e+8 
           5470      3.24605e+8 
           5490      3.20344e+8 
           5510      3.16161e+8 
           5530      3.12031e+8 
           5550      3.07976e+8 
           5570      3.03983e+8 
           5590      3.00064e+8 
           5610      2.96192e+8 
           5630      2.92404e+8 
           5650      2.88638e+8 
           5670      2.84941e+8 
           5690      2.81255e+8 
           5710      2.77774e+8 
           5730      2.74278e+8 
           5750      2.70755e+8 
           5770      2.67433e+8 
           5790      2.64094e+8 
           5810      2.60795e+8 
           5830      2.57545e+8 
           5850      2.54356e+8 
           5870      2.45268e+8 
           5890      2.47992e+8 
           5910      2.45065e+8 
           5930      2.42055e+8 
           5950        2.391e+8 
           5970      2.36211e+8 
           5990      2.33334e+8 
           6010      2.30522e+8 
           6030      2.27731e+8 
           6050      2.25003e+8 
           6070      2.22306e+8 
           6090       2.1965e+8 
           6110      2.17034e+8 
           6130      2.14457e+8 
           6150      2.11919e+8 
           6170      2.09419e+8 
           6190      2.06957e+8 
           6210      2.04522e+8 
           6230      2.02134e+8 
           6250      1.99771e+8 
           6270      1.97445e+8 
           6290      1.95163e+8 
           6310      1.92896e+8 
           6330      1.90673e+8 
           6350      1.88474e+8 
           6370      1.86318e+8 
           6390      1.84194e+8 
           6410      1.82093e+8 
           6430      1.80023e+8 
           6450      1.77985e+8 
           6470      1.75959e+8 
           6490      1.73973e+8 
           6510      1.72026e+8 
           6530      1.69931e+8 
           6550      1.65145e+8 
           6570      1.49505e+8 
           6590       1.6378e+8 
           6610      1.62644e+8 
           6630      1.60858e+8 
           6650       1.5916e+8 
           6670        1.562e+8 
           6690       1.5451e+8 
           6710         1.54e+8 
           6730      1.52304e+8 
           6750      1.50667e+8 
           6770       1.4903e+8 
           6790      1.47402e+8 
           6810       1.4583e+8 
           6830      1.44259e+8 
           6850      1.42711e+8 
           6870      1.41187e+8 
           6890       1.3967e+8 
           6910      1.38184e+8 
           6930      1.36729e+8 
           6950       1.3528e+8 
           6970      1.33854e+8 
           6990      1.32433e+8 
           7010      1.31058e+8 
           7030       1.2968e+8 
           7050      1.28324e+8 
           7070      1.25127e+8 
           7090      1.25674e+8 
           7110      1.24371e+8 
           7130      1.23082e+8 
           7150      1.21812e+8 
           7170       1.2054e+8 
           7190      1.19324e+8 
           7210      1.18105e+8 
           7230      1.16796e+8 
           7250      1.15701e+8 
           7270      1.14538e+8 
           7290      1.12521e+8 
           7310      1.12216e+8 
           7330        1.111e+8 
           7350       1.0998e+8 
           7370      1.08878e+8 
           7390      1.07792e+8 
           7410      1.06717e+8 
           7430      1.05652e+8 
           7450      1.04617e+8 
           7470      1.03572e+8 
           7490      1.02563e+8 
           7510      1.01516e+8 
           7530      1.00553e+8 
           7550      9.95646e+7 
           7570      9.85921e+7 
           7590      9.76285e+7 
           7610      9.66737e+7 
           7630      9.57404e+7 
           7650      9.48156e+7 
           7670      9.38991e+7 
           7690      9.29909e+7 
           7710      9.20971e+7 
           7730      9.12177e+7 
           7750      9.03335e+7 
           7770      8.94697e+7 
           7790       8.8626e+7 
           7810       8.7728e+7 
           7830      8.69547e+7 
           7850      8.62126e+7 
           7870      8.53918e+7 
           7890      8.45479e+7 
           7910      8.38018e+7 
           7930      8.30022e+7 
           7950      8.21202e+7 
           7970      8.12519e+7 
           7990      8.05447e+7 
           8010      7.97848e+7 
           8030      7.90665e+7 
           8050      7.83776e+7 
           8070       7.7683e+7 
           8090      7.68447e+7 
           8110      7.61797e+7 
           8130      7.55945e+7 
           8150      7.47702e+7 
           8170      7.42409e+7 
           8190      7.34744e+7 
           8210      7.26809e+7 
           8230      7.22279e+7 
           8250      7.16014e+7 
           8270      7.05945e+7 
           8290      7.02269e+7 
           8310       6.9622e+7 
           8330      6.89786e+7 
           8350      6.80542e+7 
           8370      6.76057e+7 
           8390      6.70857e+7 
           8410      6.64634e+7 
           8430      6.57879e+7 
           8450      6.48648e+7 
           8470      6.43961e+7 
           8490      6.41087e+7 
           8510       6.2991e+7 
           8530      6.31827e+7 
           8550      6.10683e+7 
           8570      6.29072e+7 
