# Kurucz ODFNEW /NOVER (2003)
# teff = 18000 K (value for the effective temperature for the model. Temperatures are given in K)
# logg = 2.5 log(cm/s2) (value for Log(G) for the model.)
# meta = -1.5  (value for the Metallicity for the model.)
# lh = 1.25  (l/Hp where l is the  mixing length of the convective element and Hp is the pressure scale height)
# vtur = 2 km/s (Microturbulence velocity)
# alpha = 0  (Alpha)
#
# column 1: WAVELENGTH (ANGSTROM), Wavelength in Angstrom
# column 2: FLUX (ERG/CM2/S/A), Flux in erg/cm2/s/A
          147.2     6.95289e-23 
            151     8.47472e-22 
          155.2     7.65813e-21 
          158.8     4.54765e-20 
            162      2.0717e-19 
            166     1.26951e-18 
          170.3     8.10196e-18 
          173.4     2.90984e-17 
          176.8     1.12254e-16 
          180.2     4.11279e-16 
          181.7     7.17985e-16 
          186.1     3.49141e-15 
            191      1.8615e-14 
          193.9     4.81257e-14 
          198.4     1.98593e-13 
          201.8     5.55049e-13 
            205     1.41432e-12 
          210.5     6.59132e-12 
          216.2     2.98233e-11 
          219.8     7.42159e-11 
            223     1.62664e-10 
          226.8     4.00853e-10 
            230       1.4894e-9 
            234      3.88639e-9 
            240      1.34151e-8 
          246.5      4.78316e-8 
          252.4      1.43807e-7 
          256.8      3.11147e-7 
            260      5.46977e-7 
            264      1.07031e-6 
          268.5      2.21996e-6 
          273.5      4.84919e-6 
          278.5       1.0301e-5 
            284      2.28492e-5 
            290       5.2545e-5 
            296     0.000116567 
            301     0.000220954 
            308     0.000517018 
            318      0.00165967 
            328      0.00490136 
            338       0.0135432 
            348       0.0351675 
            357       0.0790946 
            366        0.170622 
            375        0.353355 
            385        0.760804 
            395         1.57054 
            405         3.12087 
            414         5.61656 
            422         9.25196 
            430         14.9282 
            441         28.0027 
            451         48.1559 
            460         76.7221 
            470         125.842 
            480          201.74 
            490         316.745 
            500         487.397 
            506         3588.28 
            512         11550.9 
            520         15615.3 
            530         24858.2 
            540         28150.1 
            550         45810.3 
            560         59021.3 
            570           77324 
            580         77955.2 
            590          111276 
            600          154742 
            610          196029 
            620          239396 
            630          294625 
            640          347573 
            650          420519 
            658          498029 
            665          557915 
            675          646242 
            685          759994 
            695          917519 
            705      1.06146e+6 
            716      1.25198e+6 
            726      1.43151e+6 
            735       1.6254e+6 
            745      1.88519e+6 
            755      2.15354e+6 
            765      2.44252e+6 
            775      2.77762e+6 
            785      3.13776e+6 
            795      3.50404e+6 
            805      3.91743e+6 
            815      4.33126e+6 
            825      4.85501e+6 
            835      5.28407e+6 
            845      5.87867e+6 
            855      6.45572e+6 
            865      7.13607e+6 
            875      7.88075e+6 
            885      8.66854e+6 
            895      9.44475e+6 
            905      1.00803e+7 
            915      2.39089e+7 
            925      5.67719e+8 
            935      1.58836e+9 
            945      2.97389e+9 
            955      3.51006e+9 
            965      4.04423e+9 
            975      1.49083e+9 
            985       4.0654e+9 
            995      3.90038e+9 
           1005      4.23269e+9 
           1015      4.14751e+9 
           1025      2.27786e+9 
           1035      3.37589e+9 
           1045      4.68072e+9 
           1055      4.48105e+9 
           1065      4.05186e+9 
           1075      4.49223e+9 
           1085      4.12819e+9 
           1095      4.56622e+9 
           1105      4.27291e+9 
           1115      4.32266e+9 
           1125       3.9994e+9 
           1135      4.42901e+9 
           1145      4.21463e+9 
           1155      4.36083e+9 
           1165      4.43562e+9 
           1175      3.73257e+9 
           1185      4.41352e+9 
           1195      3.98039e+9 
           1205      2.95644e+9 
           1215      1.53925e+9 
           1225      3.67987e+9 
           1235      4.12513e+9 
           1245      4.21395e+9 
           1255      4.10114e+9 
           1265      4.01961e+9 
           1275      4.14405e+9 
           1285      4.07912e+9 
           1295      3.51384e+9 
           1305      3.61505e+9 
           1315      3.99381e+9 
           1325      3.85715e+9 
           1335      3.64253e+9 
           1345      3.81993e+9 
           1355      3.84111e+9 
           1365      3.70295e+9 
           1375      3.65944e+9 
           1385      3.67278e+9 
           1395      3.40523e+9 
           1405      3.50159e+9 
           1415      3.54203e+9 
           1425      3.50677e+9 
           1435      3.52777e+9 
           1442      3.54288e+9 
           1447      3.50063e+9 
           1455      3.45263e+9 
           1465      3.37845e+9 
           1475      3.34769e+9 
           1485       3.3048e+9 
           1495      3.26327e+9 
           1505      3.17248e+9 
           1512      3.03952e+9 
           1517      3.09285e+9 
           1525      3.08544e+9 
           1535      2.92081e+9 
           1545      2.97766e+9 
           1555      2.86579e+9 
           1565      2.92804e+9 
           1575      2.95871e+9 
           1585      2.92869e+9 
           1595      2.93043e+9 
           1605      2.84153e+9 
           1615      2.81252e+9 
           1625      2.79498e+9 
           1635      2.82023e+9 
           1645      2.78465e+9 
           1655       2.7379e+9 
           1665      2.76667e+9 
           1672      2.68911e+9 
           1677      2.74517e+9 
           1685      2.71823e+9 
           1695      2.64941e+9 
           1705      2.58201e+9 
           1715      2.50971e+9 
           1725      2.49653e+9 
           1735      2.51138e+9 
           1745      2.46672e+9 
           1755      2.48908e+9 
           1765      2.37836e+9 
           1775      2.37591e+9 
           1785      2.37514e+9 
           1795      2.38781e+9 
           1805      2.37738e+9 
           1815      2.28058e+9 
           1825       2.2992e+9 
           1835      2.26593e+9 
           1845      2.14759e+9 
           1855      2.09723e+9 
           1865      2.12203e+9 
           1875      2.17221e+9 
           1885      2.03133e+9 
           1895      1.94039e+9 
           1905      2.03707e+9 
           1915      1.96109e+9 
           1925      1.91688e+9 
           1935      1.96453e+9 
           1945      1.98252e+9 
           1955       1.8657e+9 
           1967      1.93871e+9 
           1976      1.97879e+9 
           1984      1.88984e+9 
           1995      1.84265e+9 
           2005      1.87023e+9 
           2015      1.87315e+9 
           2025      1.88979e+9 
           2035      1.80813e+9 
           2045      1.80121e+9 
           2055      1.75509e+9 
           2065      1.76516e+9 
           2074      1.81442e+9 
           2078      1.73093e+9 
           2085      1.74931e+9 
           2095      1.69231e+9 
           2105      1.71351e+9 
           2115      1.70231e+9 
           2125      1.71853e+9 
           2135       1.6909e+9 
           2145      1.63906e+9 
           2155      1.66226e+9 
           2165      1.64445e+9 
           2175      1.62482e+9 
           2185      1.60675e+9 
           2195      1.60363e+9 
           2205      1.58331e+9 
           2215      1.56498e+9 
           2225      1.53816e+9 
           2235      1.52932e+9 
           2245      1.52373e+9 
           2255      1.49558e+9 
           2265        1.494e+9 
           2275      1.47726e+9 
           2285      1.47092e+9 
           2295      1.43338e+9 
           2305      1.43714e+9 
           2315      1.41294e+9 
           2325      1.40207e+9 
           2335      1.37267e+9 
           2345      1.35352e+9 
           2355      1.36148e+9 
           2365      1.33652e+9 
           2375      1.32856e+9 
           2385      1.30678e+9 
           2395      1.30193e+9 
           2405      1.28754e+9 
           2415      1.26999e+9 
           2425      1.27415e+9 
           2435      1.25277e+9 
           2445      1.24475e+9 
           2455      1.23957e+9 
           2465      1.22085e+9 
           2475      1.21113e+9 
           2485      1.19908e+9 
           2495      1.16698e+9 
           2505      1.17725e+9 
           2513      1.14937e+9 
           2518       1.1602e+9 
           2525       1.1481e+9 
           2535      1.13156e+9 
           2545      1.11791e+9 
           2555      1.12251e+9 
           2565       1.1049e+9 
           2575      1.10349e+9 
           2585      1.09187e+9 
           2595       1.0809e+9 
           2605      1.07672e+9 
           2615      1.06641e+9 
           2625        1.056e+9 
           2635      1.04323e+9 
           2645       1.0451e+9 
           2655      1.03553e+9 
           2665      1.02157e+9 
           2675      1.01469e+9 
           2685      1.01033e+9 
           2695      9.92471e+8 
           2705      9.90398e+8 
           2715      9.79845e+8 
           2725      9.63585e+8 
           2735      9.63049e+8 
           2745      9.40446e+8 
           2755      9.35566e+8 
           2765      9.27678e+8 
           2775      9.29468e+8 
           2785      9.19356e+8 
           2795      8.93934e+8 
           2805      8.97052e+8 
           2815      8.96442e+8 
           2825      8.81657e+8 
           2835      8.69074e+8 
           2845      8.70515e+8 
           2855      8.63318e+8 
           2865      8.56981e+8 
           2875      8.48751e+8 
           2885       8.4161e+8 
           2895      8.34007e+8 
           2910      8.22851e+8 
           2930      8.07136e+8 
           2950       7.8913e+8 
           2970       7.8016e+8 
           2990      7.65587e+8 
           3010      7.52619e+8 
           3030       7.4087e+8 
           3050      7.28067e+8 
           3070      7.15614e+8 
           3090      7.02592e+8 
           3110      6.91326e+8 
           3130      6.80327e+8 
           3150      6.68716e+8 
           3170      6.57081e+8 
           3190      6.41759e+8 
           3210      6.35505e+8 
           3230      6.24879e+8 
           3250      6.14644e+8 
           3270       6.0507e+8 
           3290      5.94429e+8 
           3310      5.85617e+8 
           3330      5.76124e+8 
           3350      5.65841e+8 
           3370      5.57685e+8 
           3390      5.48764e+8 
           3410      5.40013e+8 
           3430      5.29219e+8 
           3450      5.19239e+8 
           3470      5.12614e+8 
           3490      5.05673e+8 
           3510      4.99896e+8 
           3530      4.92343e+8 
           3550      4.84749e+8 
           3570      4.78741e+8 
           3590      4.69447e+8 
           3610      4.62323e+8 
           3630      4.55155e+8 
           3640      4.53823e+8 
           3650      4.46335e+8 
           3670      4.39526e+8 
           3690      4.24122e+8 
           3710      4.43237e+8 
           3730      4.59834e+8 
           3750      5.09941e+8 
           3770      5.07938e+8 
           3790      5.12977e+8 
           3810      5.29639e+8 
           3830      4.80026e+8 
           3850      5.29696e+8 
           3870      5.19305e+8 
           3890      4.63465e+8 
           3910      5.10139e+8 
           3930      4.97471e+8 
           3950       4.9462e+8 
           3970      4.32067e+8 
           3990      4.79025e+8 
           4010      4.70206e+8 
           4030      4.55112e+8 
           4050      4.58943e+8 
           4070      4.51237e+8 
           4090      4.38096e+8 
           4110      3.96821e+8 
           4130       4.2784e+8 
           4150      4.22392e+8 
           4170      4.18112e+8 
           4190        4.131e+8 
           4210      4.07186e+8 
           4230      4.01113e+8 
           4250      3.95115e+8 
           4270      3.87889e+8 
           4290      3.83687e+8 
           4310      3.77944e+8 
           4330      3.62967e+8 
           4350      3.35567e+8 
           4370      3.61778e+8 
           4390      3.52644e+8 
           4410      3.51661e+8 
           4430      3.45537e+8 
           4450         3.42e+8 
           4470      3.30066e+8 
           4490      3.31954e+8 
           4510      3.27849e+8 
           4530      3.23162e+8 
           4550      3.18598e+8 
           4570       3.1412e+8 
           4590      3.09887e+8 
           4610       3.0559e+8 
           4630      3.01357e+8 
           4650      2.96819e+8 
           4670      2.93176e+8 
           4690      2.89328e+8 
           4710      2.82393e+8 
           4730      2.80936e+8 
           4750      2.76855e+8 
           4770      2.74025e+8 
           4790       2.7033e+8 
           4810      2.66605e+8 
           4830      2.63045e+8 
           4850       2.5449e+8 
           4870      2.32167e+8 
           4890      2.52612e+8 
           4910      2.49495e+8 
           4930      2.43073e+8 
           4950      2.42989e+8 
           4970      2.39878e+8 
           4990      2.36733e+8 
           5010      2.31245e+8 
           5030      2.30616e+8 
           5050      2.26222e+8 
           5070      2.24734e+8 
           5090      2.21866e+8 
           5110      2.19022e+8 
           5130      2.16144e+8 
           5150      2.13403e+8 
           5170      2.10811e+8 
           5190       2.0814e+8 
           5210      2.05393e+8 
           5230      2.02944e+8 
           5250      2.00417e+8 
           5270      1.97908e+8 
           5290      1.95459e+8 
           5310      1.93027e+8 
           5330       1.9064e+8 
           5350      1.88243e+8 
           5370      1.85994e+8 
           5390      1.83709e+8 
           5410      1.81465e+8 
           5430      1.79198e+8 
           5450      1.77061e+8 
           5470      1.74925e+8 
           5490      1.72827e+8 
           5510      1.70744e+8 
           5530      1.68686e+8 
           5550      1.66677e+8 
           5570      1.64681e+8 
           5590      1.62733e+8 
           5610      1.60773e+8 
           5630      1.58907e+8 
           5650      1.56923e+8 
           5670       1.5508e+8 
           5690      1.53247e+8 
           5710      1.51551e+8 
           5730      1.49783e+8 
           5750      1.48025e+8 
           5770      1.46333e+8 
           5790      1.44639e+8 
           5810      1.42975e+8 
           5830       1.4132e+8 
           5850      1.39706e+8 
           5870      1.35246e+8 
           5890      1.36435e+8 
           5910      1.34963e+8 
           5930      1.33433e+8 
           5950      1.31899e+8 
           5970      1.30446e+8 
           5990      1.28957e+8 
           6010      1.27527e+8 
           6030      1.26091e+8 
           6050      1.24693e+8 
           6070       1.2331e+8 
           6090      1.21933e+8 
           6110      1.20591e+8 
           6130      1.19254e+8 
           6150      1.17922e+8 
           6170      1.16644e+8 
           6190       1.1537e+8 
           6210      1.14111e+8 
           6230      1.12865e+8 
           6250      1.11632e+8 
           6270      1.10433e+8 
           6290      1.09236e+8 
           6310      1.08053e+8 
           6330      1.06901e+8 
           6350      1.05678e+8 
           6370      1.04588e+8 
           6390      1.03501e+8 
           6410      1.02407e+8 
           6430      1.01324e+8 
           6450      1.00253e+8 
           6470      9.91751e+7 
           6490      9.81355e+7 
           6510      9.71156e+7 
           6530      9.60799e+7 
           6550      9.38871e+7 
           6570      8.51918e+7 
           6590      9.27334e+7 
           6610      9.21559e+7 
           6630      9.12065e+7 
           6650      9.03265e+7 
           6670      8.88456e+7 
           6690      8.79449e+7 
           6710       8.7572e+7 
           6730       8.6678e+7 
           6750      8.58013e+7 
           6770      8.49252e+7 
           6790      8.40416e+7 
           6810      8.32156e+7 
           6830      8.23736e+7 
           6850      8.15481e+7 
           6870      8.07308e+7 
           6890      7.99136e+7 
           6910      7.91203e+7 
           6930      7.83262e+7 
           6950       7.7557e+7 
           6970      7.67884e+7 
           6990      7.60196e+7 
           7010       7.5279e+7 
           7030      7.45372e+7 
           7050      7.38027e+7 
           7070      7.20818e+7 
           7090      7.23697e+7 
           7110      7.16636e+7 
           7130      7.09671e+7 
           7150      7.02781e+7 
           7170      6.95854e+7 
           7190       6.8927e+7 
           7210      6.82632e+7 
           7230      6.74003e+7 
           7250       6.6958e+7 
           7270      6.63193e+7 
           7290      6.52364e+7 
           7310      6.50512e+7 
           7330      6.44436e+7 
           7350      6.38332e+7 
           7370      6.32299e+7 
           7390      6.26343e+7 
           7410      6.20448e+7 
           7430      6.14622e+7 
           7450      6.08957e+7 
           7470      6.03257e+7 
           7490      5.97649e+7 
           7510      5.91878e+7 
           7530      5.86599e+7 
           7550      5.81175e+7 
           7570      5.75808e+7 
           7590      5.70495e+7 
           7610      5.65256e+7 
           7630       5.6007e+7 
           7650      5.54938e+7 
           7670      5.49889e+7 
           7690      5.44835e+7 
           7710      5.39863e+7 
           7730      5.35031e+7 
           7750      5.30121e+7 
           7770      5.25087e+7 
           7790      5.20681e+7 
           7810      5.15627e+7 
           7830       5.1138e+7 
           7850      5.07268e+7 
           7870      5.02735e+7 
           7890      4.97908e+7 
           7910      4.93502e+7 
           7930      4.88386e+7 
           7950      4.83941e+7 
           7970      4.79528e+7 
           7990      4.75821e+7 
           8010      4.71316e+7 
           8030      4.67522e+7 
           8050      4.63615e+7 
           8070      4.59758e+7 
           8090      4.54932e+7 
           8110      4.51242e+7 
           8130      4.48073e+7 
           8150      4.43313e+7 
           8170      4.40422e+7 
           8190      4.36454e+7 
           8210      4.30899e+7 
           8230      4.28351e+7 
           8250      4.24666e+7 
           8270      4.19238e+7 
           8290      4.16916e+7 
           8310       4.1346e+7 
           8330      4.09707e+7 
           8350      4.04678e+7 
           8370      4.00633e+7 
           8390      3.97762e+7 
           8410      3.93843e+7 
           8430       3.9151e+7 
           8450      3.87137e+7 
           8470      3.79923e+7 
           8490      3.87255e+7 
           8510       3.7226e+7 
           8530      3.83797e+7 
           8550      3.61772e+7 
           8570      3.83526e+7 
