# Kurucz ODFNEW /NOVER (2003)
# teff = 33000 K (value for the effective temperature for the model. Temperatures are given in K)
# logg = 4 log(cm/s2) (value for Log(G) for the model.)
# meta = -1  (value for the Metallicity for the model.)
# lh = 1.25  (l/Hp where l is the  mixing length of the convective element and Hp is the pressure scale height)
# vtur = 2 km/s (Microturbulence velocity)
# alpha = 0.4  (Alpha)
#
# column 1: WAVELENGTH (ANGSTROM), Wavelength in Angstrom
# column 2: FLUX (ERG/CM2/S/A), Flux in erg/cm2/s/A
          147.2      6.62289e-6 
            151      1.79996e-5 
          155.2      5.14489e-5 
          158.8     0.000121374 
            162     0.000252545 
            166     0.000607667 
          170.3      0.00149252 
          173.4      0.00277878 
          176.8      0.00537237 
          180.2       0.0101121 
          181.7       0.0133131 
          186.1       0.0288324 
            191       0.0654467 
          193.9         0.10426 
          198.4        0.209466 
          201.8        0.347161 
            205        0.550083 
          210.5         1.17575 
          216.2         2.47731 
          219.8         3.89681 
            223          5.7528 
          226.8          9.0714 
            230         7045.55 
            234         18049.4 
            240         29160.6 
          246.5         49633.3 
          252.4         82577.3 
          256.8         98817.8 
            260          177191 
            264          265601 
          268.5          377852 
          273.5          515822 
          278.5          647357 
            284      1.15719e+6 
            290      1.60748e+6 
            296      2.07469e+6 
            301      2.82486e+6 
            308      5.51647e+6 
            318      1.23673e+7 
            328      1.74207e+7 
            338      2.73934e+7 
            348      3.94044e+7 
            357      7.03451e+7 
            366      1.17002e+8 
            375      1.38261e+8 
            385      1.85479e+8 
            395      2.70719e+8 
            405      3.24673e+8 
            414      4.03026e+8 
            422      4.42744e+8 
            430      4.94007e+8 
            441      5.94303e+8 
            451      6.85463e+8 
            460       7.4721e+8 
            470      8.56654e+8 
            480      9.73806e+8 
            490      1.05567e+9 
            500       1.2414e+9 
            506      3.30445e+9 
            512     1.39414e+10 
            520     1.29905e+10 
            530     1.19318e+10 
            540     1.10927e+10 
            550     1.19577e+10 
            560     1.41826e+10 
            570     1.46425e+10 
            580     1.36223e+10 
            590     1.43343e+10 
            600     1.25461e+10 
            610     1.38785e+10 
            620     1.55572e+10 
            630     1.53236e+10 
            640     1.53589e+10 
            650     1.52431e+10 
            658     1.37896e+10 
            665      1.5007e+10 
            675     1.58968e+10 
            685     1.42864e+10 
            695      1.5977e+10 
            705     1.40391e+10 
            716     1.65145e+10 
            726     1.63057e+10 
            735     1.65448e+10 
            745     1.59529e+10 
            755     1.58689e+10 
            765      1.6056e+10 
            775     1.62521e+10 
            785     1.64563e+10 
            795     1.64592e+10 
            805     1.61493e+10 
            815     1.62228e+10 
            825     1.66118e+10 
            835     1.48179e+10 
            845     1.63523e+10 
            855     1.62787e+10 
            865     1.65359e+10 
            875      1.6503e+10 
            885     1.65314e+10 
            895     1.65666e+10 
            905     1.62642e+10 
            915     1.77393e+10 
            925      4.9441e+10 
            935     7.06207e+10 
            945     8.95013e+10 
            955      9.5989e+10 
            965     1.05981e+11 
            975     6.85078e+10 
            985     9.60282e+10 
            995     8.92522e+10 
           1005     9.00025e+10 
           1015      9.0889e+10 
           1025      7.3207e+10 
           1035     8.75299e+10 
           1045     9.15549e+10 
           1055     8.92859e+10 
           1065     8.26647e+10 
           1075     8.28976e+10 
           1085      7.8026e+10 
           1095     8.13015e+10 
           1105     7.80625e+10 
           1115     7.64201e+10 
           1125     6.88256e+10 
           1135     7.38413e+10 
           1145     7.10399e+10 
           1155     6.88521e+10 
           1165     6.78889e+10 
           1175     5.56025e+10 
           1185     6.29928e+10 
           1195     6.16369e+10 
           1205      5.9269e+10 
           1215     4.74336e+10 
           1225     5.77411e+10 
           1235      5.8729e+10 
           1245     5.68949e+10 
           1255     5.65635e+10 
           1265     5.61931e+10 
           1275     5.55422e+10 
           1285     5.47632e+10 
           1295     5.18225e+10 
           1305     5.14583e+10 
           1315     5.17571e+10 
           1325     5.02427e+10 
           1335      4.8939e+10 
           1345     4.85181e+10 
           1355     4.74681e+10 
           1365     4.61079e+10 
           1375     4.52085e+10 
           1385     4.43283e+10 
           1395      3.9347e+10 
           1405     3.91572e+10 
           1415     4.16576e+10 
           1425      3.9357e+10 
           1435     3.99282e+10 
           1442     3.96448e+10 
           1447     3.91949e+10 
           1455      3.8112e+10 
           1465     3.75847e+10 
           1475     3.69193e+10 
           1485     3.66202e+10 
           1495     3.55908e+10 
           1505      3.5013e+10 
           1512     3.47835e+10 
           1517     3.43499e+10 
           1525     3.35823e+10 
           1535     3.13346e+10 
           1545     2.91311e+10 
           1555      2.8795e+10 
           1565     2.94127e+10 
           1575     2.98012e+10 
           1585     2.95598e+10 
           1595     2.91637e+10 
           1605     2.76724e+10 
           1615     2.68772e+10 
           1625     2.67072e+10 
           1635     2.64633e+10 
           1645     2.55118e+10 
           1655     2.62965e+10 
           1665       2.565e+10 
           1672     2.47134e+10 
           1677      2.6084e+10 
           1685     2.54402e+10 
           1695     2.49363e+10 
           1705     2.43751e+10 
           1715     2.36869e+10 
           1725     2.31168e+10 
           1735     2.34681e+10 
           1745     2.30502e+10 
           1755     2.25339e+10 
           1765     2.22672e+10 
           1775     2.19321e+10 
           1785     2.16823e+10 
           1795     2.12239e+10 
           1805     2.10148e+10 
           1815     2.06089e+10 
           1825       2.024e+10 
           1835     2.00984e+10 
           1845     1.95325e+10 
           1855     1.91998e+10 
           1865      1.8949e+10 
           1875      1.8622e+10 
           1885     1.82129e+10 
           1895     1.79541e+10 
           1905     1.79093e+10 
           1915     1.74824e+10 
           1925     1.68976e+10 
           1935     1.70303e+10 
           1945     1.68925e+10 
           1955     1.62726e+10 
           1967     1.62606e+10 
           1976     1.61456e+10 
           1984     1.58415e+10 
           1995     1.54505e+10 
           2005     1.54364e+10 
           2015     1.52381e+10 
           2025     1.50118e+10 
           2035     1.47381e+10 
           2045     1.45016e+10 
           2055     1.19504e+10 
           2065     1.15478e+10 
           2074     1.18165e+10 
           2078     1.19063e+10 
           2085     1.25951e+10 
           2095     1.32443e+10 
           2105     1.32233e+10 
           2115     1.31508e+10 
           2125     1.28896e+10 
           2135     1.27634e+10 
           2145     1.25808e+10 
           2155     1.25341e+10 
           2165     1.20946e+10 
           2175     1.22027e+10 
           2185     1.18277e+10 
           2195      1.1875e+10 
           2205     1.17032e+10 
           2215     1.13221e+10 
           2225     1.13606e+10 
           2235     1.11996e+10 
           2245      1.1035e+10 
           2255     1.06958e+10 
           2265     1.07271e+10 
           2275     1.05806e+10 
           2285     1.03822e+10 
           2295      9.96286e+9 
           2305      9.95815e+9 
           2315      9.96579e+9 
           2325       9.8461e+9 
           2335      9.71012e+9 
           2345      9.57747e+9 
           2355      9.44129e+9 
           2365      9.31043e+9 
           2375      9.17208e+9 
           2385      8.85822e+9 
           2395      8.87241e+9 
           2405       8.8053e+9 
           2415      8.67374e+9 
           2425      8.57096e+9 
           2435      8.44162e+9 
           2445      8.33616e+9 
           2455      8.21275e+9 
           2465      8.11711e+9 
           2475      8.00922e+9 
           2485      7.87961e+9 
           2495      6.87249e+9 
           2505      7.63302e+9 
           2513       7.3083e+9 
           2518      7.43676e+9 
           2525      7.49012e+9 
           2535      7.40125e+9 
           2545      7.28387e+9 
           2555       7.1958e+9 
           2565      7.11003e+9 
           2575      7.02253e+9 
           2585      6.93335e+9 
           2595      6.82855e+9 
           2605        6.769e+9 
           2615      6.67491e+9 
           2625      6.59572e+9 
           2635      6.51103e+9 
           2645      6.42527e+9 
           2655      6.34383e+9 
           2665      6.25228e+9 
           2675      6.15771e+9 
           2685      6.10984e+9 
           2695      6.01375e+9 
           2705       5.9601e+9 
           2715      5.88306e+9 
           2725      5.79024e+9 
           2735      5.65329e+9 
           2745      5.67417e+9 
           2755      5.60278e+9 
           2765      5.51108e+9 
           2775      5.47045e+9 
           2785      5.39869e+9 
           2795      5.28828e+9 
           2805      5.26069e+9 
           2815      5.20865e+9 
           2825      5.12369e+9 
           2835       5.0712e+9 
           2845       5.0277e+9 
           2855      4.96388e+9 
           2865      4.90313e+9 
           2875      4.84538e+9 
           2885      4.79058e+9 
           2895      4.73281e+9 
           2910      4.64455e+9 
           2930      4.54406e+9 
           2950      4.42162e+9 
           2970       4.3328e+9 
           2990      4.22741e+9 
           3010      4.13034e+9 
           3030      4.02967e+9 
           3050      3.94735e+9 
           3070      3.86818e+9 
           3090       3.7682e+9 
           3110      3.69621e+9 
           3130      3.61344e+9 
           3150      3.53353e+9 
           3170      3.45823e+9 
           3190      3.37372e+9 
           3210      3.28988e+9 
           3230      3.24323e+9 
           3250      3.17697e+9 
           3270      3.10036e+9 
           3290      3.04109e+9 
           3310      2.97898e+9 
           3330      2.91456e+9 
           3350      2.84948e+9 
           3370      2.79616e+9 
           3390      2.74297e+9 
           3410      2.68668e+9 
           3430      2.62858e+9 
           3450      2.56787e+9 
           3470      2.52237e+9 
           3490      2.47176e+9 
           3510       2.4267e+9 
           3530      2.38009e+9 
           3550      2.33236e+9 
           3570      2.29326e+9 
           3590      2.23993e+9 
           3610      2.19994e+9 
           3630      2.15361e+9 
           3640       2.1286e+9 
           3650      2.03203e+9 
           3670      1.99868e+9 
           3690      1.96094e+9 
           3710      1.91366e+9 
           3730      1.87058e+9 
           3750      1.88741e+9 
           3770      1.86609e+9 
           3790      1.89698e+9 
           3810       1.9257e+9 
           3830      1.77135e+9 
           3850      1.90422e+9 
           3870      1.87803e+9 
           3890      1.67759e+9 
           3910      1.83277e+9 
           3930      1.78878e+9 
           3950      1.76064e+9 
           3970      1.55076e+9 
           3990      1.70308e+9 
           4010      1.67313e+9 
           4030      1.61242e+9 
           4050      1.62369e+9 
           4070      1.58191e+9 
           4090      1.51396e+9 
           4110      1.39709e+9 
           4130      1.49869e+9 
           4150      1.47642e+9 
           4170      1.45911e+9 
           4190      1.43127e+9 
           4210      1.40197e+9 
           4230      1.38696e+9 
           4250      1.36023e+9 
           4270       1.3352e+9 
           4290       1.3138e+9 
           4310      1.28829e+9 
           4330      1.22676e+9 
           4350      1.14937e+9 
           4370      1.22633e+9 
           4390      1.19561e+9 
           4410      1.18622e+9 
           4430      1.16926e+9 
           4450      1.15103e+9 
           4470      1.11132e+9 
           4490      1.11376e+9 
           4510      1.09588e+9 
           4530      1.07905e+9 
           4550      1.05404e+9 
           4570      1.04482e+9 
           4590       1.0266e+9 
           4610      1.01065e+9 
           4630      9.92836e+8 
           4650      9.63284e+8 
           4670      9.62375e+8 
           4690      9.32947e+8 
           4710      9.25822e+8 
           4730      9.21613e+8 
           4750      9.07106e+8 
           4770      8.93637e+8 
           4790      8.79984e+8 
           4810      8.66184e+8 
           4830      8.51516e+8 
           4850      8.17874e+8 
           4870      7.57163e+8 
           4890       8.1304e+8 
           4910      8.02305e+8 
           4930      7.81145e+8 
           4950      7.77844e+8 
           4970      7.67814e+8 
           4990      7.56451e+8 
           5010      7.39512e+8 
           5030      7.33896e+8 
           5050      7.21433e+8 
           5070      7.13143e+8 
           5090      7.02737e+8 
           5110      6.92601e+8 
           5130      6.82631e+8 
           5150      6.72779e+8 
           5170      6.63003e+8 
           5190      6.53736e+8 
           5210      6.44493e+8 
           5230      6.35414e+8 
           5250       6.2629e+8 
           5270      6.17395e+8 
           5290      6.08993e+8 
           5310      6.00486e+8 
           5330      5.92155e+8 
           5350      5.83959e+8 
           5370      5.75894e+8 
           5390      5.67893e+8 
           5410      5.56236e+8 
           5430       5.5253e+8 
           5450      5.44994e+8 
           5470      5.37566e+8 
           5490      5.30319e+8 
           5510      5.23089e+8 
           5530      5.16134e+8 
           5550      5.09228e+8 
           5570      5.02397e+8 
           5590        4.953e+8 
           5610      4.89153e+8 
           5630      4.82689e+8 
           5650      4.76327e+8 
           5670      4.69996e+8 
           5690      4.61241e+8 
           5710      4.49026e+8 
           5730      4.43349e+8 
           5750      4.37547e+8 
           5770        4.322e+8 
           5790      4.26758e+8 
           5810      4.21437e+8 
           5830      4.16411e+8 
           5850      4.11928e+8 
           5870      4.00314e+8 
           5890      4.02693e+8 
           5910      3.98591e+8 
           5930      3.94375e+8 
           5950      3.90292e+8 
           5970      3.86296e+8 
           5990      3.82388e+8 
           6010       3.7798e+8 
           6030       3.7327e+8 
           6050      3.68665e+8 
           6070      3.64134e+8 
           6090      3.59653e+8 
           6110      3.55244e+8 
           6130      3.50895e+8 
           6150      3.46564e+8 
           6170      3.42273e+8 
           6190      3.38255e+8 
           6210      3.34175e+8 
           6230      3.30082e+8 
           6250       3.2616e+8 
           6270      3.22271e+8 
           6290      3.18425e+8 
           6310      3.14404e+8 
           6330      3.10897e+8 
           6350      3.07204e+8 
           6370      3.03598e+8 
           6390      3.00021e+8 
           6410       2.9618e+8 
           6430      2.93038e+8 
           6450      2.89611e+8 
           6470      2.86204e+8 
           6490      2.82886e+8 
           6510      2.79631e+8 
           6530      2.75464e+8 
           6550      2.69236e+8 
           6570      2.47761e+8 
           6590      2.66229e+8 
           6610      2.63965e+8 
           6630      2.60987e+8 
           6650      2.58056e+8 
           6670      2.53403e+8 
           6690      2.50165e+8 
           6710       2.4927e+8 
           6730      2.46551e+8 
           6750      2.43868e+8 
           6770      2.41197e+8 
           6790      2.38471e+8 
           6810      2.35878e+8 
           6830      2.33247e+8 
           6850       2.3069e+8 
           6870      2.28144e+8 
           6890      2.25075e+8 
           6910      2.23088e+8 
           6930      2.20759e+8 
           6950      2.18359e+8 
           6970      2.15991e+8 
           6990      2.13654e+8 
           7010      2.11318e+8 
           7030      2.09012e+8 
           7050      2.06781e+8 
           7070      2.02425e+8 
           7090      2.02431e+8 
           7110      2.00266e+8 
           7130      1.98143e+8 
           7150      1.96056e+8 
           7170      1.93608e+8 
           7190      1.91797e+8 
           7210      1.89922e+8 
           7230      1.87778e+8 
           7250      1.85926e+8 
           7270      1.84035e+8 
           7290      1.81141e+8 
           7310      1.80207e+8 
           7330      1.78363e+8 
           7350      1.76522e+8 
           7370      1.74705e+8 
           7390      1.72912e+8 
           7410      1.71143e+8 
           7430      1.69397e+8 
           7450      1.67668e+8 
           7470      1.65927e+8 
           7490      1.64236e+8 
           7510      1.62601e+8 
           7530      1.60988e+8 
           7550      1.59376e+8 
           7570      1.57772e+8 
           7590      1.55745e+8 
           7610      1.54596e+8 
           7630      1.53088e+8 
           7650      1.51561e+8 
           7670      1.50073e+8 
           7690      1.48529e+8 
           7710      1.47107e+8 
           7730      1.45596e+8 
           7750      1.44244e+8 
           7770      1.42828e+8 
           7790      1.41438e+8 
           7810      1.40016e+8 
           7830      1.38694e+8 
           7850      1.37419e+8 
           7870      1.36047e+8 
           7890       1.3471e+8 
           7910      1.33482e+8 
           7930      1.32198e+8 
           7950      1.30932e+8 
           7970      1.29618e+8 
           7990      1.28432e+8 
           8010      1.27211e+8 
           8030      1.25988e+8 
           8050      1.24775e+8 
           8070       1.2362e+8 
           8090      1.22341e+8 
           8110      1.21137e+8 
           8130       1.2016e+8 
           8150      1.18924e+8 
           8170      1.17925e+8 
           8190      1.16631e+8 
           8210      1.14577e+8 
           8230      1.13398e+8 
           8250      1.12622e+8 
           8270      1.11323e+8 
           8290      1.10567e+8 
           8310      1.09588e+8 
           8330      1.08541e+8 
           8350      1.07293e+8 
           8370      1.06506e+8 
           8390       1.0563e+8 
           8410      1.04686e+8 
           8430      1.03707e+8 
           8450      1.02447e+8 
           8470      1.01832e+8 
           8490      1.00893e+8 
           8510       9.9842e+7 
           8530       9.9188e+7 
           8550      9.76835e+7 
           8570      9.80231e+7 
           8590      9.55556e+7 
