# Kurucz ODFNEW /NOVER (2003)
# teff = 35000 K (value for the effective temperature for the model. Temperatures are given in K)
# logg = 5 log(cm/s2) (value for Log(G) for the model.)
# meta = 0.5  (value for the Metallicity for the model.)
# lh = 1.25  (l/Hp where l is the  mixing length of the convective element and Hp is the pressure scale height)
# vtur = 2 km/s (Microturbulence velocity)
# alpha = 0  (Alpha)
#
# column 1: WAVELENGTH (ANGSTROM), Wavelength in Angstrom
# column 2: FLUX (ERG/CM2/S/A), Flux in erg/cm2/s/A
          147.2     0.000238092 
            151     0.000587821 
          155.2      0.00151198 
          158.8      0.00326751 
            162      0.00629275 
            166       0.0138423 
          170.3       0.0308052 
          173.4       0.0538778 
          176.8       0.0976768 
          180.2        0.171588 
          181.7        0.221018 
          186.1        0.439568 
            191        0.912243 
          193.9         1.37757 
          198.4         2.56812 
          201.8         4.00965 
            205         6.01673 
          210.5         11.7618 
          216.2         22.4503 
          219.8         33.7116 
            223         47.4576 
          226.8         73.0048 
            230         11419.4 
            234         23733.8 
            240         35382.5 
          246.5         55177.4 
          252.4           85883 
          256.8          119583 
            260          197042 
            264          346335 
          268.5          507093 
          273.5          660516 
          278.5          773885 
            284      1.52269e+6 
            290      2.09723e+6 
            296      2.62127e+6 
            301      5.15066e+6 
            308      1.10016e+7 
            318       2.1787e+7 
            328      2.94779e+7 
            338      5.19304e+7 
            348      7.70326e+7 
            357      1.52543e+8 
            366      3.23138e+8 
            375      3.60508e+8 
            385      4.89589e+8 
            395       9.5558e+8 
            405      1.15684e+9 
            414      1.38193e+9 
            422       1.5801e+9 
            430      1.69157e+9 
            441      2.00722e+9 
            451      2.10497e+9 
            460      2.02091e+9 
            470      2.34462e+9 
            480      2.72769e+9 
            490      2.69014e+9 
            500      3.19662e+9 
            506      3.75691e+9 
            512     2.28012e+10 
            520     2.12816e+10 
            530     1.91154e+10 
            540      1.7073e+10 
            550     1.95638e+10 
            560     2.58185e+10 
            570     2.76118e+10 
            580     2.56599e+10 
            590     2.66579e+10 
            600     1.99572e+10 
            610     2.45325e+10 
            620     2.99306e+10 
            630     2.85001e+10 
            640     2.85987e+10 
            650     2.77157e+10 
            658     2.18565e+10 
            665      2.6804e+10 
            675     3.02624e+10 
            685     2.24548e+10 
            695     3.08902e+10 
            705     2.36069e+10 
            716     3.26564e+10 
            726      3.1615e+10 
            735     3.13999e+10 
            745     2.91297e+10 
            755     2.90532e+10 
            765     2.89494e+10 
            775     3.00186e+10 
            785     3.03309e+10 
            795     3.07207e+10 
            805      2.8896e+10 
            815     2.85032e+10 
            825     3.01489e+10 
            835     2.37582e+10 
            845     2.81223e+10 
            855     2.74493e+10 
            865     2.83378e+10 
            875     2.82745e+10 
            885     2.85559e+10 
            895     2.84862e+10 
            905     2.73003e+10 
            915     2.55396e+10 
            925     5.37647e+10 
            935     8.34711e+10 
            945     1.12733e+11 
            955     1.25338e+11 
            965     1.46816e+11 
            975     5.91869e+10 
            985     1.17291e+11 
            995      1.0246e+11 
           1005     1.07063e+11 
           1015     1.14135e+11 
           1025     8.58145e+10 
           1035     1.10885e+11 
           1045      1.2933e+11 
           1055     1.21258e+11 
           1065     1.01597e+11 
           1075     1.06728e+11 
           1085     9.60396e+10 
           1095     1.03367e+11 
           1105     9.79692e+10 
           1115     9.69531e+10 
           1125     7.74727e+10 
           1135      9.1455e+10 
           1145     8.85944e+10 
           1155     8.26756e+10 
           1165     7.87475e+10 
           1175     5.15476e+10 
           1185     7.18542e+10 
           1195     6.93455e+10 
           1205     6.60718e+10 
           1215     5.00979e+10 
           1225     6.34274e+10 
           1235     6.82237e+10 
           1245     6.55426e+10 
           1255     6.50787e+10 
           1265     6.71802e+10 
           1275     6.96647e+10 
           1285     6.98075e+10 
           1295      6.4371e+10 
           1305     6.41382e+10 
           1315     6.82338e+10 
           1325     6.55426e+10 
           1335     6.35075e+10 
           1345     6.27686e+10 
           1355     6.13367e+10 
           1365     5.87732e+10 
           1375     5.66063e+10 
           1385     5.43091e+10 
           1395     4.34298e+10 
           1405     4.40524e+10 
           1415     5.18519e+10 
           1425     4.58986e+10 
           1435     4.95073e+10 
           1442     4.84481e+10 
           1447     4.82686e+10 
           1455     4.56981e+10 
           1465     4.42848e+10 
           1475     4.46993e+10 
           1485     4.47382e+10 
           1495     4.31051e+10 
           1505     4.13283e+10 
           1512     4.03138e+10 
           1517     4.07033e+10 
           1525     3.91386e+10 
           1535     3.35315e+10 
           1545     2.76697e+10 
           1555     2.79693e+10 
           1565     3.19875e+10 
           1575     3.35417e+10 
           1585     3.37482e+10 
           1595     3.37706e+10 
           1605     3.21328e+10 
           1615     3.03365e+10 
           1625     3.12783e+10 
           1635     3.14704e+10 
           1645     3.14718e+10 
           1655     3.14062e+10 
           1665     3.08847e+10 
           1672      2.8302e+10 
           1677     3.35802e+10 
           1685     3.17402e+10 
           1695     3.05406e+10 
           1705       3.012e+10 
           1715     2.85439e+10 
           1725     2.71391e+10 
           1735     2.82276e+10 
           1745      2.8025e+10 
           1755     2.75879e+10 
           1765     2.70827e+10 
           1775     2.59031e+10 
           1785     2.64366e+10 
           1795     2.57617e+10 
           1805     2.55557e+10 
           1815     2.47533e+10 
           1825     2.42634e+10 
           1835     2.41876e+10 
           1845     2.29356e+10 
           1855     2.33875e+10 
           1865     2.34125e+10 
           1875     2.27733e+10 
           1885     2.15325e+10 
           1895     2.11349e+10 
           1905     2.16548e+10 
           1915     2.09988e+10 
           1925     1.94961e+10 
           1935     2.08879e+10 
           1945     2.11039e+10 
           1955     1.89734e+10 
           1967     1.99714e+10 
           1976     2.04257e+10 
           1984     1.96535e+10 
           1995      1.9161e+10 
           2005     1.94895e+10 
           2015     1.93727e+10 
           2025     1.93407e+10 
           2035     1.84224e+10 
           2045     1.81932e+10 
           2055     1.46195e+10 
           2065     1.40692e+10 
           2074     1.44431e+10 
           2078     1.41825e+10 
           2085     1.47261e+10 
           2095     1.53498e+10 
           2105     1.65229e+10 
           2115     1.68109e+10 
           2125     1.64403e+10 
           2135     1.62891e+10 
           2145     1.59518e+10 
           2155      1.5942e+10 
           2165     1.51689e+10 
           2175     1.55522e+10 
           2185     1.49761e+10 
           2195     1.53342e+10 
           2205     1.50931e+10 
           2215     1.43874e+10 
           2225     1.45863e+10 
           2235     1.43437e+10 
           2245      1.4072e+10 
           2255     1.35222e+10 
           2265     1.37335e+10 
           2275      1.3605e+10 
           2285     1.31529e+10 
           2295     1.17803e+10 
           2305      1.2464e+10 
           2315     1.24992e+10 
           2325     1.24888e+10 
           2335     1.22826e+10 
           2345     1.21116e+10 
           2355     1.17997e+10 
           2365     1.15911e+10 
           2375     1.12779e+10 
           2385     1.07405e+10 
           2395     1.08835e+10 
           2405     1.08824e+10 
           2415     1.07705e+10 
           2425     1.07286e+10 
           2435     1.05098e+10 
           2445     1.04044e+10 
           2455      1.0258e+10 
           2465     1.01315e+10 
           2475     1.00006e+10 
           2485      9.66832e+9 
           2495      7.43168e+9 
           2505      9.21798e+9 
           2513      8.78296e+9 
           2518      8.98519e+9 
           2525       9.2687e+9 
           2535      9.22386e+9 
           2545      9.01134e+9 
           2555      8.90516e+9 
           2565      8.78719e+9 
           2575      8.68782e+9 
           2585      8.59255e+9 
           2595       8.4196e+9 
           2605      8.39005e+9 
           2615      8.19654e+9 
           2625      8.16592e+9 
           2635      8.08236e+9 
           2645      7.92389e+9 
           2655      7.85362e+9 
           2665      7.64097e+9 
           2675      7.42969e+9 
           2685      7.51136e+9 
           2695      7.31049e+9 
           2705       7.2416e+9 
           2715      7.14236e+9 
           2725      7.09054e+9 
           2735      6.87913e+9 
           2745       6.9501e+9 
           2755        6.863e+9 
           2765      6.74496e+9 
           2775      6.74487e+9 
           2785      6.61054e+9 
           2795        6.355e+9 
           2805      6.40744e+9 
           2815      6.40336e+9 
           2825       6.3076e+9 
           2835      6.15725e+9 
           2845      6.17222e+9 
           2855      6.07082e+9 
           2865      5.95875e+9 
           2875      5.90415e+9 
           2885      5.83614e+9 
           2895      5.75723e+9 
           2910      5.61039e+9 
           2930      5.55161e+9 
           2950      5.38222e+9 
           2970      5.26043e+9 
           2990      5.08832e+9 
           3010      4.92903e+9 
           3030      4.80755e+9 
           3050      4.74997e+9 
           3070      4.67109e+9 
           3090      4.51889e+9 
           3110      4.47732e+9 
           3130      4.34837e+9 
           3150      4.27586e+9 
           3170       4.1606e+9 
           3190      4.08305e+9 
           3210      3.95811e+9 
           3230      3.89624e+9 
           3250      3.83595e+9 
           3270      3.71096e+9 
           3290      3.65588e+9 
           3310       3.5692e+9 
           3330      3.48161e+9 
           3350      3.38947e+9 
           3370      3.32614e+9 
           3390      3.28734e+9 
           3410      3.21319e+9 
           3430      3.15911e+9 
           3450      3.06828e+9 
           3470      3.01981e+9 
           3490      2.95928e+9 
           3510      2.90052e+9 
           3530      2.84927e+9 
           3550      2.78718e+9 
           3570      2.73574e+9 
           3590      2.66509e+9 
           3610      2.60991e+9 
           3630      2.56219e+9 
           3640      2.53235e+9 
           3650      2.40476e+9 
           3670      2.36595e+9 
           3690      2.32062e+9 
           3710      2.23616e+9 
           3730      2.21255e+9 
           3750      2.18309e+9 
           3770      2.12182e+9 
           3790      2.17069e+9 
           3810      2.21528e+9 
           3830      2.00583e+9 
           3850      2.20789e+9 
           3870      2.15178e+9 
           3890      1.86486e+9 
           3910      2.16411e+9 
           3930      2.10833e+9 
           3950      2.03814e+9 
           3970      1.71459e+9 
           3990      1.99469e+9 
           4010      1.97203e+9 
           4030      1.88366e+9 
           4050      1.91042e+9 
           4070      1.82371e+9 
           4090      1.69858e+9 
           4110      1.55582e+9 
           4130      1.74098e+9 
           4150      1.72135e+9 
           4170      1.71684e+9 
           4190      1.68433e+9 
           4210      1.64998e+9 
           4230      1.63595e+9 
           4250      1.58544e+9 
           4270      1.55166e+9 
           4290      1.52304e+9 
           4310      1.47401e+9 
           4330      1.36627e+9 
           4350      1.27751e+9 
           4370      1.40645e+9 
           4390       1.3812e+9 
           4410       1.3693e+9 
           4430      1.36332e+9 
           4450      1.33644e+9 
           4470      1.28439e+9 
           4490      1.29708e+9 
           4510      1.26498e+9 
           4530      1.25272e+9 
           4550      1.22217e+9 
           4570      1.21948e+9 
           4590      1.19443e+9 
           4610      1.17005e+9 
           4630       1.1397e+9 
           4650      1.07997e+9 
           4670      1.10943e+9 
           4690      1.08579e+9 
           4710       1.0712e+9 
           4730      1.07926e+9 
           4750      1.06114e+9 
           4770      1.05164e+9 
           4790      1.03388e+9 
           4810      1.01306e+9 
           4830      9.90475e+8 
           4850      9.26797e+8 
           4870      8.41478e+8 
           4890      9.43159e+8 
           4910      9.33256e+8 
           4930      9.06572e+8 
           4950       9.0495e+8 
           4970      8.99695e+8 
           4990      8.85598e+8 
           5010       8.5187e+8 
           5030      8.53076e+8 
           5050      8.40069e+8 
           5070      8.33923e+8 
           5090      8.20374e+8 
           5110      8.07198e+8 
           5130      7.93158e+8 
           5150      7.82023e+8 
           5170      7.71221e+8 
           5190      7.61414e+8 
           5210      7.51027e+8 
           5230      7.40253e+8 
           5250      7.26218e+8 
           5270      7.15386e+8 
           5290      7.08761e+8 
           5310      6.98262e+8 
           5330      6.88576e+8 
           5350      6.78791e+8 
           5370      6.69315e+8 
           5390      6.59248e+8 
           5410      6.41885e+8 
           5430      6.41675e+8 
           5450      6.32573e+8 
           5470      6.23536e+8 
           5490      6.14927e+8 
           5510      6.06463e+8 
           5530      5.97834e+8 
           5550      5.90561e+8 
           5570      5.82066e+8 
           5590      5.72748e+8 
           5610      5.66828e+8 
           5630      5.59195e+8 
           5650      5.51089e+8 
           5670      5.42239e+8 
           5690      5.27182e+8 
           5710      5.15511e+8 
           5730      5.09509e+8 
           5750      5.01755e+8 
           5770      4.96936e+8 
           5790      4.90115e+8 
           5810      4.82406e+8 
           5830       4.7551e+8 
           5850      4.71725e+8 
           5870      4.55265e+8 
           5890      4.58411e+8 
           5910      4.54764e+8 
           5930      4.49655e+8 
           5950       4.4485e+8 
           5970      4.41652e+8 
           5990      4.35852e+8 
           6010      4.32195e+8 
           6030      4.26877e+8 
           6050      4.22793e+8 
           6070      4.18294e+8 
           6090      4.13306e+8 
           6110        4.078e+8 
           6130      4.03158e+8 
           6150      3.96625e+8 
           6170      3.92277e+8 
           6190       3.8833e+8 
           6210      3.83879e+8 
           6230      3.79138e+8 
           6250      3.73841e+8 
           6270      3.69697e+8 
           6290      3.65435e+8 
           6310      3.60407e+8 
           6330      3.56732e+8 
           6350      3.51929e+8 
           6370       3.4832e+8 
           6390      3.44012e+8 
           6410      3.39705e+8 
           6430      3.35982e+8 
           6450      3.31583e+8 
           6470       3.2663e+8 
           6490       3.2309e+8 
           6510      3.18797e+8 
           6530      3.13817e+8 
           6550      3.01726e+8 
           6570      2.71029e+8 
           6590      3.01431e+8 
           6610      3.00878e+8 
           6630      2.98354e+8 
           6650      2.94849e+8 
           6670      2.87842e+8 
           6690      2.84474e+8 
           6710      2.84069e+8 
           6730      2.80396e+8 
           6750      2.77852e+8 
           6770      2.75308e+8 
           6790      2.71164e+8 
           6810      2.69135e+8 
           6830      2.66059e+8 
           6850      2.63135e+8 
           6870      2.59952e+8 
           6890      2.56073e+8 
           6910      2.53551e+8 
           6930      2.51807e+8 
           6950       2.4898e+8 
           6970      2.46265e+8 
           6990      2.43447e+8 
           7010      2.40511e+8 
           7030      2.37384e+8 
           7050      2.35145e+8 
           7070      2.29686e+8 
           7090      2.30498e+8 
           7110      2.27452e+8 
           7130      2.25088e+8 
           7150       2.2316e+8 
           7170      2.20165e+8 
           7190      2.18031e+8 
           7210      2.16077e+8 
           7230      2.11871e+8 
           7250      2.11155e+8 
           7270      2.09253e+8 
           7290      2.05675e+8 
           7310      2.04728e+8 
           7330       2.0263e+8 
           7350      2.00539e+8 
           7370      1.98439e+8 
           7390      1.96415e+8 
           7410      1.94334e+8 
           7430      1.92354e+8 
           7450       1.9023e+8 
           7470      1.87808e+8 
           7490       1.8549e+8 
           7510      1.84423e+8 
           7530      1.82448e+8 
           7550      1.80756e+8 
           7570      1.78842e+8 
           7590      1.76037e+8 
           7610      1.74795e+8 
           7630      1.73316e+8 
           7650       1.7162e+8 
           7670      1.69996e+8 
           7690      1.67762e+8 
           7710      1.66303e+8 
           7730      1.64215e+8 
           7750      1.63255e+8 
           7770      1.61692e+8 
           7790      1.60118e+8 
           7810      1.58508e+8 
           7830      1.56962e+8 
           7850      1.55252e+8 
           7870      1.53552e+8 
           7890      1.52012e+8 
           7910      1.50799e+8 
           7930      1.49314e+8 
           7950      1.48021e+8 
           7970      1.46467e+8 
           7990      1.45121e+8 
           8010      1.43698e+8 
           8030      1.42206e+8 
           8050      1.41012e+8 
           8070      1.39637e+8 
           8090      1.38246e+8 
           8110      1.36236e+8 
           8130      1.35697e+8 
           8150      1.34323e+8 
           8170      1.33085e+8 
           8190      1.31155e+8 
           8210      1.28891e+8 
           8230       1.2713e+8 
           8250       1.2657e+8 
           8270      1.24796e+8 
           8290       1.2431e+8 
           8310      1.23374e+8 
           8330      1.21876e+8 
           8350      1.20379e+8 
           8370      1.19719e+8 
           8390      1.18951e+8 
           8410      1.17752e+8 
           8430       1.1678e+8 
           8450      1.15294e+8 
           8470      1.14698e+8 
           8490      1.13541e+8 
           8510      1.12062e+8 
           8530       1.1148e+8 
           8550      1.10485e+8 
           8570      1.09713e+8 
           8590      1.07768e+8 
