# Kurucz ODFNEW /NOVER (2003)
# teff = 6750 K (value for the effective temperature for the model. Temperatures are given in K)
# logg = 1 log(cm/s2) (value for Log(G) for the model.)
# meta = -2.5  (value for the Metallicity for the model.)
# lh = 1.25  (l/Hp where l is the  mixing length of the convective element and Hp is the pressure scale height)
# vtur = 2 km/s (Microturbulence velocity)
# alpha = 0  (Alpha)
#
# column 1: WAVELENGTH (ANGSTROM), Wavelength in Angstrom
# column 2: FLUX (ERG/CM2/S/A), Flux in erg/cm2/s/A
            385     5.03263e-23 
            395     4.11632e-22 
            405     2.81654e-21 
            414     1.46222e-20 
            422     5.94507e-20 
            430     2.29012e-19 
            441     1.34673e-18 
            451     6.23786e-18 
            460     2.33658e-17 
            470     9.53062e-17 
            480     3.65823e-16 
            490     1.32632e-15 
            500     4.55797e-15 
            506     8.86293e-15 
            512     1.84525e-14 
            520     4.56408e-14 
            530     1.38326e-13 
            540     3.95178e-13 
            550     1.08489e-12 
            560     2.86824e-12 
            570     7.31729e-12 
            580     1.77457e-11 
            590     4.31047e-11 
            600     9.98689e-11 
            610     2.24792e-10 
            620     4.92257e-10 
            630      1.05008e-9 
            640      2.18505e-9 
            650      4.43997e-9 
            658      7.70202e-9 
            665      1.23295e-8 
            675      2.37188e-8 
            685      4.47178e-8 
            705     7.57969e-37 
            716     1.88462e-23 
            726     1.76458e-23 
            735     6.97357e-37 
            755     5.96568e-23 
            765     6.43734e-37 
            775     6.27229e-37 
            795     5.96067e-37 
            805     6.94074e-22 
            815     5.67171e-37 
            825     5.53505e-37 
            855     8.36919e-21 
            875     4.92055e-37 
            885     1.42428e-20 
            905     2.54457e-20 
            915       0.0176084 
            925       0.0950646 
            935        0.125323 
            945        0.196046 
            955        0.301507 
            965        0.311303 
            975        0.225536 
            985        0.693953 
            995        0.831333 
           1005        0.930424 
           1015        0.682463 
           1025         1.02528 
           1035         1.32243 
           1045         2.53545 
           1055         3.56548 
           1065         4.49461 
           1075         5.65245 
           1085          6.9232 
           1095         8.11224 
           1105         15.1195 
           1115         24.0484 
           1125         25.3052 
           1135         27.5815 
           1145         27.0453 
           1155         23.8343 
           1165         22.0091 
           1175          17.847 
           1185         86.4541 
           1195         11.6879 
           1205         7.05525 
           1215         3.39158 
           1225           8.681 
           1235          20.948 
           1245         22.7018 
           1255         39.4041 
           1265         56.5886 
           1275         75.6089 
           1285         106.008 
           1295          138.19 
           1305         175.326 
           1315         229.015 
           1325         300.225 
           1335         377.675 
           1345         493.511 
           1355         613.018 
           1365         785.355 
           1375         992.543 
           1385         1259.97 
           1395         1610.78 
           1405         1750.45 
           1415         2046.19 
           1425         2417.19 
           1435         2817.39 
           1442          3230.9 
           1447         3481.02 
           1455         4050.91 
           1465         4664.92 
           1475         5508.54 
           1485         6592.01 
           1495         7921.34 
           1505         9537.72 
           1512         10482.7 
           1517         10309.4 
           1525         11635.5 
           1535         14021.9 
           1545         15196.5 
           1555         15844.9 
           1565         15233.1 
           1575         17092.8 
           1585         18800.3 
           1595         20702.1 
           1605         22432.4 
           1615         29393.3 
           1625         47134.2 
           1635         86004.9 
           1645          171893 
           1655          167182 
           1665          363558 
           1672          285729 
           1677          454367 
           1685          557314 
           1695          603640 
           1705          640940 
           1715          756117 
           1725          793953 
           1735          899840 
           1745          909562 
           1755      1.03199e+6 
           1765          945432 
           1775      1.06883e+6 
           1785      1.11882e+6 
           1795      1.26721e+6 
           1805      1.22777e+6 
           1815      1.29525e+6 
           1825      1.24863e+6 
           1835      1.34962e+6 
           1845      1.28556e+6 
           1855      1.37903e+6 
           1865      1.44801e+6 
           1875      1.51265e+6 
           1885      1.57044e+6 
           1895      1.62535e+6 
           1905      1.58601e+6 
           1915      1.72317e+6 
           1925      1.81521e+6 
           1935      1.74328e+6 
           1945      1.95414e+6 
           1955      1.98486e+6 
           1967      2.09441e+6 
           1976       2.0691e+6 
           1984      2.09973e+6 
           1995      2.12207e+6 
           2005      2.10892e+6 
           2015      2.14436e+6 
           2025      2.09246e+6 
           2035      2.28527e+6 
           2045      2.39351e+6 
           2055       2.3568e+6 
           2065      2.36954e+6 
           2074        2.584e+6 
           2078      2.60983e+6 
           2085      2.61634e+6 
           2095      2.58645e+6 
           2105      2.60079e+6 
           2115      2.66468e+6 
           2125      2.73619e+6 
           2135       2.4549e+6 
           2145      2.73396e+6 
           2155      2.77646e+6 
           2165      2.72226e+6 
           2175      2.75884e+6 
           2185      2.86164e+6 
           2195      3.07207e+6 
           2205      3.01467e+6 
           2215      2.85836e+6 
           2225      2.94969e+6 
           2235      3.26205e+6 
           2245      3.05635e+6 
           2255      3.00641e+6 
           2265      2.97963e+6 
           2275      3.24771e+6 
           2285      3.33472e+6 
           2295      3.20508e+6 
           2305      3.31255e+6 
           2315      3.35148e+6 
           2325      3.37324e+6 
           2335      3.28885e+6 
           2345      2.98573e+6 
           2355      3.52029e+6 
           2365      3.15765e+6 
           2375      3.46452e+6 
           2385      2.95239e+6 
           2395      3.33958e+6 
           2405      3.28764e+6 
           2415      3.40006e+6 
           2425      3.75306e+6 
           2435      3.70889e+6 
           2445      3.86754e+6 
           2455      3.82991e+6 
           2465      3.82289e+6 
           2475      3.71986e+6 
           2485      3.87709e+6 
           2495      3.85418e+6 
           2505      4.18111e+6 
           2513      3.90177e+6 
           2518      3.94013e+6 
           2525      3.75918e+6 
           2535      3.74125e+6 
           2545      3.82742e+6 
           2555      4.08716e+6 
           2565      4.11153e+6 
           2575      4.34908e+6 
           2585      4.36331e+6 
           2595      4.33349e+6 
           2605      4.21673e+6 
           2615       4.1705e+6 
           2625      4.44107e+6 
           2635      4.54638e+6 
           2645      5.02347e+6 
           2655      5.04358e+6 
           2665      4.81819e+6 
           2675      4.96297e+6 
           2685      5.06769e+6 
           2695      4.90867e+6 
           2705      4.99024e+6 
           2715      4.83023e+6 
           2725      4.90392e+6 
           2735      5.14764e+6 
           2745      4.55329e+6 
           2755      4.76787e+6 
           2765      5.01437e+6 
           2775      5.28699e+6 
           2785      5.27386e+6 
           2795      4.02157e+6 
           2805      4.47856e+6 
           2815      5.57852e+6 
           2825      5.57403e+6 
           2835      5.49306e+6 
           2845      5.46661e+6 
           2855      5.30313e+6 
           2865      5.49107e+6 
           2875      5.47527e+6 
           2885      5.64015e+6 
           2895      5.61384e+6 
           2910      5.92892e+6 
           2930      5.87766e+6 
           2950      5.88914e+6 
           2970      6.00955e+6 
           2990      6.10598e+6 
           3010      6.21389e+6 
           3030      6.29011e+6 
           3050      6.32978e+6 
           3070      6.33792e+6 
           3090      6.48893e+6 
           3110      6.46572e+6 
           3130       6.4941e+6 
           3150      6.63097e+6 
           3170       6.6814e+6 
           3190      6.56864e+6 
           3210      6.71189e+6 
           3230      6.66297e+6 
           3250      6.80199e+6 
           3270      6.90683e+6 
           3290      7.02463e+6 
           3310      7.09164e+6 
           3330      7.04748e+6 
           3350      6.99983e+6 
           3370      7.07954e+6 
           3390      7.10836e+6 
           3410      7.26497e+6 
           3430      7.31659e+6 
           3450      7.32822e+6 
           3470       7.3244e+6 
           3490      7.37153e+6 
           3510       7.4804e+6 
           3530      7.54825e+6 
           3550      7.60902e+6 
           3570      7.54056e+6 
           3590      7.57399e+6 
           3610      7.62559e+6 
           3630      7.68389e+6 
           3640      7.67044e+6 
           3650      7.76533e+6 
           3670      7.80875e+6 
           3690      8.71568e+6 
           3710      1.16535e+7 
           3730      1.60406e+7 
           3750      2.21885e+7 
           3770      2.30492e+7 
           3790      2.66468e+7 
           3810      2.98376e+7 
           3830      2.44913e+7 
           3850       3.1554e+7 
           3870       3.3309e+7 
           3890      2.27958e+7 
           3910      3.27985e+7 
           3930      3.13313e+7 
           3950      3.27316e+7 
           3970      2.16734e+7 
           3990      3.19177e+7 
           4010      3.27153e+7 
           4030      3.24424e+7 
           4050      3.21457e+7 
           4070       3.1328e+7 
           4090      2.82568e+7 
           4110      2.28887e+7 
           4130      3.06342e+7 
           4150       3.0729e+7 
           4170      3.04262e+7 
           4190      3.01687e+7 
           4210      2.97658e+7 
           4230      2.94008e+7 
           4250      2.91956e+7 
           4270      2.89455e+7 
           4290      2.86332e+7 
           4310      2.77841e+7 
           4330      2.44818e+7 
           4350      2.14461e+7 
           4370       2.7486e+7 
           4390      2.72439e+7 
           4410      2.70516e+7 
           4430      2.71362e+7 
           4450      2.68072e+7 
           4470      2.65867e+7 
           4490      2.63672e+7 
           4510       2.6082e+7 
           4530      2.58045e+7 
           4550      2.54071e+7 
           4570      2.54197e+7 
           4590      2.51879e+7 
           4610      2.51453e+7 
           4630      2.48213e+7 
           4650      2.47076e+7 
           4670      2.44947e+7 
           4690      2.42828e+7 
           4710      2.39785e+7 
           4730      2.38856e+7 
           4750      2.36966e+7 
           4770      2.34867e+7 
           4790      2.32778e+7 
           4810      2.30244e+7 
           4830      2.26581e+7 
           4850      2.03431e+7 
           4870      1.71361e+7 
           4890      2.19558e+7 
           4910      2.20664e+7 
           4930      2.17932e+7 
           4950      2.17743e+7 
           4970      2.16329e+7 
           4990      2.14342e+7 
           5010      2.11583e+7 
           5030      2.10991e+7 
           5050      2.09219e+7 
           5070      2.07719e+7 
           5090      2.06002e+7 
           5110      2.04407e+7 
           5130      2.02616e+7 
           5150      2.00918e+7 
           5170      1.97196e+7 
           5190      1.96238e+7 
           5210      1.95984e+7 
           5230      1.93813e+7 
           5250      1.93391e+7 
           5270      1.90732e+7 
           5290      1.90343e+7 
           5310      1.88471e+7 
           5330      1.86913e+7 
           5350      1.86058e+7 
           5370      1.84374e+7 
           5390      1.83047e+7 
           5410      1.81542e+7 
           5430      1.80156e+7 
           5450      1.78887e+7 
           5470      1.77669e+7 
           5490      1.76377e+7 
           5510      1.75037e+7 
           5530      1.73576e+7 
           5550      1.72486e+7 
           5570      1.71129e+7 
           5590      1.69822e+7 
           5610      1.68589e+7 
           5630      1.67405e+7 
           5650      1.66104e+7 
           5670      1.64876e+7 
           5690      1.63719e+7 
           5710      1.62493e+7 
           5730      1.61338e+7 
           5750      1.60138e+7 
           5770      1.58973e+7 
           5790      1.57809e+7 
           5810      1.56669e+7 
           5830      1.55529e+7 
           5850      1.54391e+7 
           5870      1.53275e+7 
           5890      1.51541e+7 
           5910      1.51077e+7 
           5930      1.49996e+7 
           5950      1.48925e+7 
           5970      1.47866e+7 
           5990      1.46796e+7 
           6010      1.45748e+7 
           6030       1.4471e+7 
           6050      1.43693e+7 
           6070      1.42686e+7 
           6090      1.41669e+7 
           6110      1.40663e+7 
           6130      1.39626e+7 
           6150       1.3857e+7 
           6170      1.37683e+7 
           6190      1.36765e+7 
           6210      1.35827e+7 
           6230      1.34859e+7 
           6250      1.33785e+7 
           6270       1.3301e+7 
           6290      1.32089e+7 
           6310      1.31149e+7 
           6330      1.30265e+7 
           6350      1.29353e+7 
           6370      1.28467e+7 
           6390        1.276e+7 
           6410      1.26686e+7 
           6430      1.25844e+7 
           6450      1.24893e+7 
           6470       1.2414e+7 
           6490      1.23117e+7 
           6510      1.22032e+7 
           6530      1.20473e+7 
           6550      1.12731e+7 
           6570      9.23738e+6 
           6590      1.16901e+7 
           6610       1.1779e+7 
           6630      1.17389e+7 
           6650      1.16812e+7 
           6670      1.16036e+7 
           6690      1.15268e+7 
           6710      1.14498e+7 
           6730      1.13735e+7 
           6750       1.1298e+7 
           6770      1.12231e+7 
           6790      1.11489e+7 
           6810      1.10754e+7 
           6830      1.10017e+7 
           6850      1.09295e+7 
           6870       1.0858e+7 
           6890      1.07871e+7 
           6910      1.07161e+7 
           6930      1.06457e+7 
           6950       1.0576e+7 
           6970      1.05076e+7 
           6990      1.04391e+7 
           7010      1.03704e+7 
           7030      1.03031e+7 
           7050      1.02371e+7 
           7070      1.01702e+7 
           7090      1.01047e+7 
           7110      1.00353e+7 
           7130      9.97386e+6 
           7150      9.91003e+6 
           7170      9.84676e+6 
           7190      9.78259e+6 
           7210      9.71969e+6 
           7230      9.65734e+6 
           7250      9.59697e+6 
           7270      9.53569e+6 
           7290      9.47422e+6 
           7310      9.41328e+6 
           7330      9.35357e+6 
           7350      9.29506e+6 
           7370      9.23706e+6 
           7390      9.17816e+6 
           7410      9.11907e+6 
           7430      9.06186e+6 
           7450      9.00512e+6 
           7470      8.94752e+6 
           7490      8.89174e+6 
           7510      8.83643e+6 
           7530      8.78158e+6 
           7550      8.72718e+6 
           7570      8.67258e+6 
           7590      8.61844e+6 
           7610      8.56474e+6 
           7630      8.51148e+6 
           7650      8.45867e+6 
           7670      8.40565e+6 
           7690      8.35434e+6 
           7710      8.30091e+6 
           7730      8.25108e+6 
           7750      8.20039e+6 
           7770      8.13327e+6 
           7790      8.10025e+6 
           7810      8.05079e+6 
           7830       8.0005e+6 
           7850      7.95122e+6 
           7870      7.90296e+6 
           7890      7.85447e+6 
           7910      7.80757e+6 
           7930      7.75925e+6 
           7950      7.71192e+6 
           7970      7.66615e+6 
           7990      7.61896e+6 
           8010      7.57274e+6 
           8030      7.52747e+6 
           8050      7.48198e+6 
           8070      7.43684e+6 
           8090      7.39205e+6 
           8110      7.34762e+6 
           8130      7.30354e+6 
           8150      7.25979e+6 
           8170      7.21639e+6 
           8190       7.1694e+6 
           8210      7.13898e+6 
           8230      7.09876e+6 
           8250      7.05719e+6 
           8270      7.01759e+6 
           8290      6.97061e+6 
           8310      6.91037e+6 
           8330      6.84574e+6 
           8350      6.83622e+6 
           8370      6.69711e+6 
           8390      6.71392e+6 
           8410      6.66551e+6 
           8430      6.78183e+6 
           8450      6.73657e+6 
           8470      6.51208e+6 
           8490      6.93196e+6 
           8510      6.41147e+6 
           8530      6.98152e+6 
           8550      6.26658e+6 
           8570       7.0432e+6 
           8590      6.74291e+6 
           8610      6.55053e+6 
           8630      7.11708e+6 
           8650      7.00969e+6 
           8670      6.09281e+6 
           8690      7.04159e+6 
           8710       7.0808e+6 
           8730      6.97474e+6 
           8750      6.03112e+6 
           8770      6.80007e+6 
           8790      6.92617e+6 
           8810      6.89524e+6 
           8830       6.8365e+6 
           8850      6.58438e+6 
           8870      5.86472e+6 
           8890      6.67351e+6 
           8910      6.69151e+6 
           8930      6.66818e+6 
           8950      6.63794e+6 
           8970      6.58122e+6 
           8990      6.49557e+6 
           9010      5.72704e+6 
           9030      6.14292e+6 
           9050      6.40558e+6 
           9070      6.37828e+6 
           9090      6.32471e+6 
           9110       6.3233e+6 
           9130      6.29744e+6 
           9150      6.26094e+6 
           9170      6.22201e+6 
           9190      6.16552e+6 
           9210      6.03795e+6 
           9230      5.23751e+6 
           9250       5.9264e+6 
           9270      6.01528e+6 
           9290      6.00861e+6 
           9310      5.97805e+6 
           9330      5.94379e+6 
           9350      5.90977e+6 
           9370      5.87598e+6 
           9390      5.84201e+6 
           9410      5.78614e+6 
           9430      5.77518e+6 
           9450      5.74317e+6 
           9470      5.71096e+6 
           9490       5.6752e+6 
           9510      5.62136e+6 
           9530      5.47916e+6 
           9550      4.79573e+6 
           9570       5.4536e+6 
           9590      5.50011e+6 
           9610      5.48458e+6 
           9630      5.45045e+6 
