# Kurucz ODFNEW /NOVER (2003)
# teff = 7250 K (value for the effective temperature for the model. Temperatures are given in K)
# logg = 2 log(cm/s2) (value for Log(G) for the model.)
# meta = -1.5  (value for the Metallicity for the model.)
# lh = 1.25  (l/Hp where l is the  mixing length of the convective element and Hp is the pressure scale height)
# vtur = 2 km/s (Microturbulence velocity)
# alpha = 0  (Alpha)
#
# column 1: WAVELENGTH (ANGSTROM), Wavelength in Angstrom
# column 2: FLUX (ERG/CM2/S/A), Flux in erg/cm2/s/A
            366      8.8133e-25 
            375     6.31405e-23 
            385     3.72269e-23 
            395     2.42131e-22 
            405     1.42839e-21 
            414     6.53247e-21 
            422     2.38053e-20 
            430     8.24465e-20 
            441     4.20777e-19 
            451     1.71978e-18 
            460     5.77592e-18 
            470     2.09478e-17 
            480     7.17094e-17 
            490     2.32753e-16 
            500     7.17579e-16 
            506     1.83041e-15 
            512       3.895e-15 
            520     8.85063e-15 
            530     2.39516e-14 
            540     6.12857e-14 
            550     1.52996e-13 
            560     3.66518e-13 
            570     8.49143e-13 
            580     1.88454e-12 
            590     4.15171e-12 
            600     8.79025e-12 
            610     1.81166e-11 
            620     3.63901e-11 
            630     7.13347e-11 
            640     1.36693e-10 
            650     2.56265e-10 
            658     4.17256e-10 
            665      6.3243e-10 
            675      1.12674e-9 
            685      1.96994e-9 
            695      3.38345e-9 
            705      5.71145e-9 
            716      9.97202e-9 
            726      1.62792e-8 
            735      2.49891e-8 
            745      3.96919e-8 
            755      6.21801e-8 
            765      9.61224e-8 
            775      1.46734e-7 
            785       2.2126e-7 
            795       3.2956e-7 
            805      4.85869e-7 
            815       7.0834e-7 
            825      1.02205e-6 
            835      1.46013e-6 
            845      2.06592e-6 
            855      2.89592e-6 
            865      4.02315e-6 
            875      5.54004e-6 
            885       7.5685e-6 
            895      1.02556e-5 
            905      1.37845e-5 
            915       0.0555358 
            925         0.24481 
            935        0.326645 
            945        0.460669 
            955        0.653599 
            965        0.822334 
            975        0.844349 
            985          1.3789 
            995          1.6756 
           1005         2.17934 
           1015         2.39719 
           1025         2.54625 
           1035         3.92019 
           1045          5.2803 
           1055         6.58195 
           1065         7.90975 
           1075         9.79684 
           1085         11.9622 
           1095         14.1423 
           1105         36.6879 
           1115         92.5259 
           1125         117.237 
           1135         146.203 
           1145         160.384 
           1155         151.177 
           1165         161.112 
           1175         144.741 
           1185         272.388 
           1195         61.2175 
           1205          37.815 
           1215         10.3582 
           1225          44.413 
           1235         112.686 
           1245         174.948 
           1255          307.43 
           1265         463.571 
           1275         671.827 
           1285         1014.38 
           1295         1403.52 
           1305         1688.02 
           1315         2271.41 
           1325         2887.87 
           1335         3541.06 
           1345         4475.71 
           1355         5183.24 
           1365         6311.63 
           1375         7485.07 
           1385         8741.93 
           1395         10439.5 
           1405         13045.3 
           1415         16926.1 
           1425         20524.5 
           1435         22701.9 
           1442         30205.5 
           1447         30499.2 
           1455         39884.4 
           1465         40754.8 
           1475           47998 
           1485         57381.7 
           1495         68732.5 
           1505         82633.4 
           1512         84279.2 
           1517           85396 
           1525          103135 
           1535          223170 
           1545          285377 
           1555          265811 
           1565          198438 
           1575          228912 
           1585          224698 
           1595          226420 
           1605          231169 
           1615          373072 
           1625          624923 
           1635      1.06845e+6 
           1645       1.8239e+6 
           1655      1.33192e+6 
           1665      2.67644e+6 
           1672      1.66414e+6 
           1677      3.01415e+6 
           1685      3.69972e+6 
           1695      3.70183e+6 
           1705      3.72087e+6 
           1715      4.28896e+6 
           1725      4.36876e+6 
           1735      4.91626e+6 
           1745      4.77422e+6 
           1755      5.43599e+6 
           1765      4.54365e+6 
           1775       5.2569e+6 
           1785      5.35767e+6 
           1795      6.17039e+6 
           1805      5.64569e+6 
           1815      5.94034e+6 
           1825      5.40816e+6 
           1835      5.64564e+6 
           1845      5.11016e+6 
           1855      5.46029e+6 
           1865      5.71361e+6 
           1875      5.84936e+6 
           1885      5.97862e+6 
           1895      6.19139e+6 
           1905      5.82676e+6 
           1915      6.37884e+6 
           1925       6.5795e+6 
           1935      5.88997e+6 
           1945      6.89093e+6 
           1955      6.91593e+6 
           1967      7.28797e+6 
           1976      7.10354e+6 
           1984      7.02139e+6 
           1995      6.87934e+6 
           2005      6.65757e+6 
           2015      6.69419e+6 
           2025      6.25928e+6 
           2035      6.93532e+6 
           2045      7.40843e+6 
           2055       7.1323e+6 
           2065      6.96144e+6 
           2074      7.78003e+6 
           2078      7.92251e+6 
           2085      7.77849e+6 
           2095      7.52785e+6 
           2105      7.28816e+6 
           2115      7.42574e+6 
           2125      7.62915e+6 
           2135      6.36036e+6 
           2145      7.33034e+6 
           2155      7.38326e+6 
           2165      7.00714e+6 
           2175      6.98936e+6 
           2185       7.3005e+6 
           2195      7.91456e+6 
           2205      7.62745e+6 
           2215      6.98123e+6 
           2225      7.09379e+6 
           2235       8.0931e+6 
           2245      7.27899e+6 
           2255      7.02654e+6 
           2265      6.96221e+6 
           2275      7.61302e+6 
           2285      7.84885e+6 
           2295         7.34e+6 
           2305      7.59341e+6 
           2315       7.5884e+6 
           2325       7.5156e+6 
           2335      6.97529e+6 
           2345      6.07539e+6 
           2355      7.63373e+6 
           2365      6.37983e+6 
           2375      7.27061e+6 
           2385       5.6992e+6 
           2395      6.56844e+6 
           2405      6.36106e+6 
           2415      6.64354e+6 
           2425      7.67537e+6 
           2435      7.50508e+6 
           2445      7.92591e+6 
           2455      7.76333e+6 
           2465      7.78541e+6 
           2475      7.39298e+6 
           2485       7.6667e+6 
           2495      7.48372e+6 
           2505      8.50414e+6 
           2513      7.54393e+6 
           2518      7.72434e+6 
           2525      7.14327e+6 
           2535      6.94222e+6 
           2545       7.0297e+6 
           2555      7.64767e+6 
           2565      7.63396e+6 
           2575      8.25715e+6 
           2585      8.25146e+6 
           2595      8.04309e+6 
           2605      7.68556e+6 
           2615      7.45776e+6 
           2625      8.32721e+6 
           2635      8.55441e+6 
           2645      9.85438e+6 
           2655      9.86099e+6 
           2665      9.07633e+6 
           2675      9.46664e+6 
           2685      9.60162e+6 
           2695      9.02892e+6 
           2705      9.24701e+6 
           2715      8.72824e+6 
           2725        8.851e+6 
           2735      9.53379e+6 
           2745      7.80055e+6 
           2755      8.33219e+6 
           2765      8.80274e+6 
           2775      9.55445e+6 
           2785      9.31742e+6 
           2795      6.03382e+6 
           2805      7.00931e+6 
           2815      1.00522e+7 
           2825      1.01459e+7 
           2835      9.87381e+6 
           2845      9.62859e+6 
           2855      9.18919e+6 
           2865      9.84757e+6 
           2875      9.67527e+6 
           2885      9.97041e+6 
           2895      9.67015e+6 
           2910      1.06384e+7 
           2930      1.03884e+7 
           2950       1.0351e+7 
           2970      1.05807e+7 
           2990      1.07089e+7 
           3010      1.08631e+7 
           3030      1.09142e+7 
           3050      1.09457e+7 
           3070      1.09491e+7 
           3090      1.11731e+7 
           3110      1.10069e+7 
           3130      1.10201e+7 
           3150      1.12964e+7 
           3170       1.1335e+7 
           3190      1.09323e+7 
           3210      1.12093e+7 
           3230      1.09965e+7 
           3250      1.12796e+7 
           3270      1.14235e+7 
           3290      1.16237e+7 
           3310      1.17347e+7 
           3330      1.15683e+7 
           3350      1.14447e+7 
           3370      1.14897e+7 
           3390      1.15188e+7 
           3410      1.17511e+7 
           3430       1.1847e+7 
           3450      1.17999e+7 
           3470      1.17165e+7 
           3490      1.17398e+7 
           3510      1.19507e+7 
           3530      1.20254e+7 
           3550      1.21462e+7 
           3570      1.19065e+7 
           3590      1.19083e+7 
           3610      1.19753e+7 
           3630      1.20845e+7 
           3640      1.20042e+7 
           3650      1.22468e+7 
           3670      1.21042e+7 
           3690      1.26022e+7 
           3710      1.58713e+7 
           3730      1.96822e+7 
           3750      2.70924e+7 
           3770      2.87194e+7 
           3790      3.44179e+7 
           3810      3.94089e+7 
           3830       3.1471e+7 
           3850      4.24397e+7 
           3870      4.60495e+7 
           3890      2.88495e+7 
           3910        4.543e+7 
           3930      4.26564e+7 
           3950      4.53669e+7 
           3970      2.70986e+7 
           3990      4.42299e+7 
           4010       4.6709e+7 
           4030      4.63416e+7 
           4050      4.58598e+7 
           4070      4.43845e+7 
           4090      3.79722e+7 
           4110      2.97978e+7 
           4130      4.29165e+7 
           4150       4.3637e+7 
           4170      4.31436e+7 
           4190       4.2664e+7 
           4210      4.22809e+7 
           4230      4.15577e+7 
           4250      4.12718e+7 
           4270      4.07208e+7 
           4290      4.02458e+7 
           4310      3.83156e+7 
           4330      3.21856e+7 
           4350       2.7817e+7 
           4370      3.82018e+7 
           4390      3.82025e+7 
           4410      3.77037e+7 
           4430      3.79707e+7 
           4450      3.75255e+7 
           4470      3.71735e+7 
           4490      3.68188e+7 
           4510       3.6593e+7 
           4530      3.59695e+7 
           4550      3.52773e+7 
           4570      3.55356e+7 
           4590      3.50066e+7 
           4610      3.51768e+7 
           4630      3.44817e+7 
           4650      3.44697e+7 
           4670      3.41388e+7 
           4690       3.3689e+7 
           4710      3.28924e+7 
           4730      3.31806e+7 
           4750      3.29234e+7 
           4770      3.25502e+7 
           4790      3.21657e+7 
           4810      3.17457e+7 
           4830      3.09262e+7 
           4850      2.63955e+7 
           4870      2.17188e+7 
           4890      2.96426e+7 
           4910      3.02095e+7 
           4930       2.9737e+7 
           4950      2.98047e+7 
           4970      2.97178e+7 
           4990      2.93076e+7 
           5010      2.87349e+7 
           5030      2.88329e+7 
           5050      2.85237e+7 
           5070      2.83695e+7 
           5090      2.80903e+7 
           5110      2.78578e+7 
           5130      2.75308e+7 
           5150      2.72336e+7 
           5170      2.65793e+7 
           5190       2.6407e+7 
           5210      2.64281e+7 
           5230      2.60474e+7 
           5250      2.61677e+7 
           5270      2.55314e+7 
           5290      2.56833e+7 
           5310      2.53339e+7 
           5330      2.50314e+7 
           5350      2.50618e+7 
           5370      2.47396e+7 
           5390      2.45615e+7 
           5410      2.42811e+7 
           5430      2.41051e+7 
           5450      2.39476e+7 
           5470      2.37866e+7 
           5490      2.36199e+7 
           5510      2.34177e+7 
           5530      2.31599e+7 
           5550      2.30557e+7 
           5570      2.28224e+7 
           5590      2.26148e+7 
           5610      2.24478e+7 
           5630       2.2297e+7 
           5650      2.20922e+7 
           5670      2.18991e+7 
           5690      2.17466e+7 
           5710      2.15656e+7 
           5730      2.14119e+7 
           5750      2.12267e+7 
           5770      2.10595e+7 
           5790      2.08839e+7 
           5810      2.07192e+7 
           5830      2.05529e+7 
           5850      2.03784e+7 
           5870       2.0219e+7 
           5890        1.988e+7 
           5910      1.98977e+7 
           5930       1.9738e+7 
           5950      1.95811e+7 
           5970       1.9429e+7 
           5990      1.92659e+7 
           6010      1.91097e+7 
           6030      1.89634e+7 
           6050      1.88197e+7 
           6070      1.86765e+7 
           6090      1.85256e+7 
           6110      1.83752e+7 
           6130      1.82054e+7 
           6150      1.80284e+7 
           6170      1.79197e+7 
           6190      1.78168e+7 
           6210      1.76827e+7 
           6230      1.75325e+7 
           6250      1.73346e+7 
           6270      1.72788e+7 
           6290      1.71463e+7 
           6310       1.6998e+7 
           6330      1.68795e+7 
           6350      1.67331e+7 
           6370      1.66106e+7 
           6390      1.64985e+7 
           6410      1.63508e+7 
           6430      1.62419e+7 
           6450      1.60707e+7 
           6470       1.5994e+7 
           6490      1.58026e+7 
           6510      1.56745e+7 
           6530      1.54108e+7 
           6550      1.41138e+7 
           6570      1.14359e+7 
           6590        1.484e+7 
           6610      1.50702e+7 
           6630      1.50334e+7 
           6650      1.49584e+7 
           6670      1.48579e+7 
           6690      1.47557e+7 
           6710      1.46469e+7 
           6730      1.45409e+7 
           6750      1.44292e+7 
           6770      1.43317e+7 
           6790       1.4227e+7 
           6810      1.41241e+7 
           6830      1.40181e+7 
           6850      1.39179e+7 
           6870      1.38202e+7 
           6890      1.37218e+7 
           6910      1.36228e+7 
           6930      1.35238e+7 
           6950      1.34282e+7 
           6970      1.33318e+7 
           6990      1.32379e+7 
           7010      1.31357e+7 
           7030      1.30466e+7 
           7050      1.29575e+7 
           7070      1.28662e+7 
           7090      1.27757e+7 
           7110      1.26525e+7 
           7130       1.2589e+7 
           7150      1.25025e+7 
           7170       1.2416e+7 
           7190      1.23244e+7 
           7210      1.22395e+7 
           7230      1.21546e+7 
           7250      1.20733e+7 
           7270      1.19912e+7 
           7290      1.19029e+7 
           7310      1.18188e+7 
           7330      1.17382e+7 
           7350      1.16619e+7 
           7370      1.15848e+7 
           7390      1.15001e+7 
           7410      1.14141e+7 
           7430      1.13377e+7 
           7450       1.1262e+7 
           7470      1.11768e+7 
           7490      1.11038e+7 
           7510      1.10333e+7 
           7530      1.09622e+7 
           7550      1.08916e+7 
           7570      1.08157e+7 
           7590      1.07438e+7 
           7610      1.06718e+7 
           7630      1.05997e+7 
           7650      1.05263e+7 
           7670       1.0451e+7 
           7690      1.03853e+7 
           7710      1.03086e+7 
           7730      1.02484e+7 
           7750      1.01787e+7 
           7770      1.00296e+7 
           7790      1.00465e+7 
           7810      9.97964e+6 
           7830      9.90968e+6 
           7850      9.84152e+6 
           7870      9.77514e+6 
           7890      9.70931e+6 
           7910      9.64943e+6 
           7930      9.58285e+6 
           7950      9.51979e+6 
           7970      9.46614e+6 
           7990      9.39698e+6 
           8010      9.34013e+6 
           8030      9.27905e+6 
           8050      9.21963e+6 
           8070      9.15953e+6 
           8090      9.09933e+6 
           8110      9.04248e+6 
           8130      8.98436e+6 
           8150      8.92614e+6 
           8170      8.86838e+6 
           8190      8.78862e+6 
           8210       8.7615e+6 
           8230      8.70451e+6 
           8250       8.6452e+6 
           8270      8.61335e+6 
           8290      8.55649e+6 
           8310       8.4908e+6 
           8330       8.3871e+6 
           8350      8.37128e+6 
           8370      8.24152e+6 
           8390      8.19425e+6 
           8410       8.1175e+6 
           8430      8.18612e+6 
           8450      8.11206e+6 
           8470      7.80861e+6 
           8490      8.31699e+6 
           8510      7.59752e+6 
           8530      8.37224e+6 
           8550      7.29676e+6 
           8570      8.45584e+6 
           8590      7.94782e+6 
           8610      7.69598e+6 
           8630      8.54708e+6 
           8650      8.34396e+6 
           8670      6.99343e+6 
           8690      8.42347e+6 
           8710      8.57155e+6 
           8730      8.37414e+6 
           8750       6.9301e+6 
           8770      8.09465e+6 
           8790      8.41282e+6 
           8810      8.38098e+6 
           8830      8.27637e+6 
           8850      7.78206e+6 
           8870      6.73955e+6 
           8890      8.02251e+6 
           8910      8.11656e+6 
           8930      8.08827e+6 
           8950      8.07286e+6 
           8970       7.9957e+6 
           8990      7.81612e+6 
           9010       6.6097e+6 
           9030      7.19446e+6 
           9050      7.73261e+6 
           9070      7.69076e+6 
           9090      7.60178e+6 
           9110      7.66195e+6 
           9130       7.6578e+6 
           9150      7.59961e+6 
           9170      7.53917e+6 
           9190      7.44929e+6 
           9210      7.16693e+6 
           9230      5.95034e+6 
           9250      6.98972e+6 
           9270      7.21781e+6 
           9290       7.2649e+6 
           9310      7.23937e+6 
           9330      7.20361e+6 
           9350      7.16162e+6 
           9370      7.11906e+6 
           9390      7.07253e+6 
           9410      6.96167e+6 
           9430      6.98173e+6 
           9450      6.94335e+6 
