# Kurucz ODFNEW /NOVER (2003)
# teff = 29000 K (value for the effective temperature for the model. Temperatures are given in K)
# logg = 4 log(cm/s2) (value for Log(G) for the model.)
# meta = 0  (value for the Metallicity for the model.)
# lh = 1.25  (l/Hp where l is the  mixing length of the convective element and Hp is the pressure scale height)
# vtur = 2 km/s (Microturbulence velocity)
# alpha = 0  (Alpha)
#
# column 1: WAVELENGTH (ANGSTROM), Wavelength in Angstrom
# column 2: FLUX (ERG/CM2/S/A), Flux in erg/cm2/s/A
          147.2     5.22675e-10 
            151      1.75898e-9 
          155.2      6.30571e-9 
          158.8      1.79286e-8 
            162      4.37522e-8 
            166      1.27453e-7 
          170.3      3.80833e-7 
          173.4         8.14e-7 
          176.8       1.8159e-6 
          180.2       3.9354e-6 
          181.7      5.48579e-6 
          186.1      1.41323e-5 
            191      3.86085e-5 
          193.9      6.83734e-5 
          198.4     0.000160722 
          201.8     0.000299158 
            205     0.000527045 
          210.5      0.00134256 
          216.2      0.00336613 
          219.8      0.00587567 
            223      0.00949608 
          226.8       0.0166832 
            230         3.67749 
            234         8.05665 
            240          15.219 
          246.5         30.4169 
          252.4         55.6711 
          256.8         80.5659 
            260         132.881 
            264         199.338 
          268.5         307.634 
          273.5         468.269 
          278.5         683.689 
            284         1348.37 
            290          2112.1 
            296         3171.65 
            301         4388.89 
            308            8207 
            318         17832.1 
            328         30287.8 
            338         55541.2 
            348         93930.4 
            357          315013 
            366          634013 
            375          849634 
            385      1.31787e+6 
            395      2.48674e+6 
            405      3.31747e+6 
            414      4.65823e+6 
            422      5.65505e+6 
            430      7.31474e+6 
            441      9.80348e+6 
            451      1.20056e+7 
            460      1.42457e+7 
            470      1.83555e+7 
            480       2.2903e+7 
            490      2.81519e+7 
            500      3.44783e+7 
            506      1.07581e+8 
            512      7.52628e+8 
            520      7.33508e+8 
            530      7.12178e+8 
            540       6.8372e+8 
            550      9.10502e+8 
            560      1.08184e+9 
            570      1.15777e+9 
            580       1.0606e+9 
            590      1.22478e+9 
            600      1.14086e+9 
            610      1.35191e+9 
            620      1.52887e+9 
            630      1.52239e+9 
            640      1.41871e+9 
            650      1.31271e+9 
            658      1.42377e+9 
            665      1.65574e+9 
            675      1.75844e+9 
            685      1.57869e+9 
            695      2.08782e+9 
            705      1.86369e+9 
            716      2.27872e+9 
            726      2.24661e+9 
            735      2.28168e+9 
            745      2.42596e+9 
            755      2.46443e+9 
            765      2.56992e+9 
            775      2.68579e+9 
            785      2.82316e+9 
            795      2.84849e+9 
            805      2.82501e+9 
            815      2.82451e+9 
            825      3.02347e+9 
            835      2.52587e+9 
            845      2.96593e+9 
            855       2.9656e+9 
            865      3.09631e+9 
            875      3.19983e+9 
            885      3.34981e+9 
            895      3.42818e+9 
            905      3.36401e+9 
            915      4.20982e+9 
            925      2.0749e+10 
            935      3.6841e+10 
            945     5.28081e+10 
            955     5.74786e+10 
            965     6.46111e+10 
            975     1.88451e+10 
            985     5.08894e+10 
            995     4.84409e+10 
           1005     5.30355e+10 
           1015     5.52172e+10 
           1025      3.9906e+10 
           1035     4.98859e+10 
           1045     6.24384e+10 
           1055      5.8187e+10 
           1065     4.89551e+10 
           1075     5.28179e+10 
           1085     4.82774e+10 
           1095     5.20843e+10 
           1105     4.92114e+10 
           1115     4.83054e+10 
           1125      3.8458e+10 
           1135     4.69397e+10 
           1145     4.40113e+10 
           1155     4.33033e+10 
           1165     4.21856e+10 
           1175     2.57048e+10 
           1185     3.84637e+10 
           1195     3.72845e+10 
           1205     3.29918e+10 
           1215     2.59051e+10 
           1225     3.47752e+10 
           1235     3.75241e+10 
           1245     3.58446e+10 
           1255     3.57253e+10 
           1265     3.65282e+10 
           1275     3.74615e+10 
           1285      3.7232e+10 
           1295     3.21013e+10 
           1305     3.31309e+10 
           1315     3.62302e+10 
           1325     3.43957e+10 
           1335     3.32926e+10 
           1345     3.32055e+10 
           1355     3.27048e+10 
           1365     3.10608e+10 
           1375     3.00706e+10 
           1385     2.90252e+10 
           1395     2.11845e+10 
           1405     2.26416e+10 
           1415      2.6624e+10 
           1425     2.46394e+10 
           1435     2.59767e+10 
           1442     2.61527e+10 
           1447     2.58265e+10 
           1455     2.47122e+10 
           1465      2.3451e+10 
           1475     2.38284e+10 
           1485     2.36213e+10 
           1495     2.29288e+10 
           1505     2.14708e+10 
           1512     2.00481e+10 
           1517     2.04679e+10 
           1525     2.02828e+10 
           1535     1.72614e+10 
           1545     1.58408e+10 
           1555     1.54817e+10 
           1565     1.71258e+10 
           1575     1.81772e+10 
           1585      1.8211e+10 
           1595     1.80129e+10 
           1605     1.74704e+10 
           1615     1.67174e+10 
           1625     1.69203e+10 
           1635     1.74439e+10 
           1645     1.73731e+10 
           1655     1.73261e+10 
           1665     1.72096e+10 
           1672     1.60996e+10 
           1677     1.83976e+10 
           1685     1.74258e+10 
           1695     1.66058e+10 
           1705     1.63183e+10 
           1715     1.54933e+10 
           1725     1.50128e+10 
           1735     1.55023e+10 
           1745     1.52744e+10 
           1755     1.51755e+10 
           1765     1.50088e+10 
           1775     1.42364e+10 
           1785     1.44698e+10 
           1795     1.44049e+10 
           1805     1.44435e+10 
           1815     1.34694e+10 
           1825     1.36185e+10 
           1835     1.33978e+10 
           1845     1.22967e+10 
           1855     1.26024e+10 
           1865     1.27211e+10 
           1875     1.27122e+10 
           1885     1.16203e+10 
           1895     1.09818e+10 
           1905     1.16122e+10 
           1915     1.11348e+10 
           1925     1.04562e+10 
           1935     1.11452e+10 
           1945     1.14074e+10 
           1955     1.02018e+10 
           1967     1.08878e+10 
           1976     1.13571e+10 
           1984     1.06054e+10 
           1995     1.03988e+10 
           2005     1.06346e+10 
           2015     1.06026e+10 
           2025     1.07416e+10 
           2035      9.96036e+9 
           2045       9.9803e+9 
           2055      8.92263e+9 
           2065      8.77652e+9 
           2074       9.2232e+9 
           2078      8.70238e+9 
           2085      9.11834e+9 
           2095      9.01519e+9 
           2105      9.33444e+9 
           2115      9.34154e+9 
           2125       9.3456e+9 
           2135      9.17892e+9 
           2145      8.82906e+9 
           2155       9.0288e+9 
           2165      8.83387e+9 
           2175      8.79185e+9 
           2185      8.57504e+9 
           2195      8.64565e+9 
           2205      8.54804e+9 
           2215      8.36967e+9 
           2225      8.23449e+9 
           2235      8.06821e+9 
           2245      8.05031e+9 
           2255      7.83905e+9 
           2265      7.84415e+9 
           2275      7.74695e+9 
           2285      7.62734e+9 
           2295      6.84383e+9 
           2305      7.33389e+9 
           2315      7.22005e+9 
           2325       7.1518e+9 
           2335      7.01191e+9 
           2345      7.02074e+9 
           2355      6.90894e+9 
           2365      6.82369e+9 
           2375      6.67178e+9 
           2385      6.54369e+9 
           2395      6.48135e+9 
           2405      6.42482e+9 
           2415      6.33116e+9 
           2425      6.28597e+9 
           2435      6.14117e+9 
           2445      6.10131e+9 
           2455      6.05015e+9 
           2465      5.96445e+9 
           2475      5.86383e+9 
           2485      5.72364e+9 
           2495      4.53641e+9 
           2505      5.49038e+9 
           2513      5.31613e+9 
           2518      5.44578e+9 
           2525      5.49061e+9 
           2535      5.44456e+9 
           2545      5.28082e+9 
           2555         5.26e+9 
           2565        5.204e+9 
           2575      5.15582e+9 
           2585      5.09549e+9 
           2595      5.03374e+9 
           2605      4.99162e+9 
           2615      4.90581e+9 
           2625      4.86451e+9 
           2635      4.80785e+9 
           2645      4.72919e+9 
           2655       4.6823e+9 
           2665      4.54305e+9 
           2675      4.50135e+9 
           2685      4.50488e+9 
           2695      4.35979e+9 
           2705       4.2996e+9 
           2715       4.2753e+9 
           2725      4.24778e+9 
           2735      4.18706e+9 
           2745      4.15131e+9 
           2755      4.11507e+9 
           2765      4.04244e+9 
           2775      4.04917e+9 
           2785      3.98056e+9 
           2795      3.84695e+9 
           2805      3.86371e+9 
           2815      3.85947e+9 
           2825      3.79504e+9 
           2835      3.69313e+9 
           2845      3.71883e+9 
           2855      3.65345e+9 
           2865      3.62124e+9 
           2875       3.5805e+9 
           2885      3.54002e+9 
           2895      3.49376e+9 
           2910      3.41441e+9 
           2930      3.36563e+9 
           2950      3.26145e+9 
           2970      3.20593e+9 
           2990      3.12349e+9 
           3010      3.02079e+9 
           3030      2.97784e+9 
           3050      2.92928e+9 
           3070      2.88008e+9 
           3090      2.76961e+9 
           3110       2.7519e+9 
           3130      2.67878e+9 
           3150      2.62976e+9 
           3170       2.5659e+9 
           3190      2.50965e+9 
           3210      2.46484e+9 
           3230      2.40592e+9 
           3250      2.36905e+9 
           3270      2.30993e+9 
           3290      2.26446e+9 
           3310      2.22016e+9 
           3330      2.16717e+9 
           3350      2.12486e+9 
           3370      2.08117e+9 
           3390       2.0497e+9 
           3410      2.00879e+9 
           3430      1.96618e+9 
           3450      1.91971e+9 
           3470      1.88423e+9 
           3490      1.84556e+9 
           3510      1.81367e+9 
           3530      1.78637e+9 
           3550      1.75004e+9 
           3570      1.72144e+9 
           3590      1.67463e+9 
           3610      1.64653e+9 
           3630      1.61606e+9 
           3640      1.60969e+9 
           3650      1.56715e+9 
           3670       1.5467e+9 
           3690      1.51454e+9 
           3710      1.45898e+9 
           3730      1.40958e+9 
           3750      1.44319e+9 
           3770      1.42182e+9 
           3790      1.46848e+9 
           3810      1.50613e+9 
           3830      1.35032e+9 
           3850      1.50699e+9 
           3870        1.474e+9 
           3890      1.27884e+9 
           3910      1.46462e+9 
           3930      1.41904e+9 
           3950      1.39604e+9 
           3970      1.18218e+9 
           3990      1.35522e+9 
           4010      1.33813e+9 
           4030      1.28113e+9 
           4050      1.29548e+9 
           4070      1.24036e+9 
           4090      1.17446e+9 
           4110      1.07166e+9 
           4130      1.18364e+9 
           4150      1.17257e+9 
           4170      1.16492e+9 
           4190      1.14645e+9 
           4210       1.1319e+9 
           4230      1.11085e+9 
           4250      1.08121e+9 
           4270       1.0543e+9 
           4290      1.03872e+9 
           4310       1.0101e+9 
           4330      9.49976e+8 
           4350      8.81096e+8 
           4370      9.62611e+8 
           4390      9.49912e+8 
           4410      9.41916e+8 
           4430      9.34409e+8 
           4450      9.17239e+8 
           4470      8.81975e+8 
           4490       8.8972e+8 
           4510      8.77197e+8 
           4530       8.6521e+8 
           4550       8.5005e+8 
           4570      8.37449e+8 
           4590      8.22335e+8 
           4610      8.05288e+8 
           4630      7.91475e+8 
           4650      7.59923e+8 
           4670      7.67748e+8 
           4690      7.57754e+8 
           4710      7.35149e+8 
           4730      7.37903e+8 
           4750      7.25224e+8 
           4770      7.21109e+8 
           4790      7.09189e+8 
           4810      6.95976e+8 
           4830       6.8215e+8 
           4850      6.48892e+8 
           4870      5.89519e+8 
           4890       6.5283e+8 
           4910      6.45257e+8 
           4930       6.2526e+8 
           4950      6.23723e+8 
           4970      6.19598e+8 
           4990      6.09815e+8 
           5010      5.88131e+8 
           5030        5.907e+8 
           5050      5.79648e+8 
           5070      5.75319e+8 
           5090      5.66052e+8 
           5110      5.57359e+8 
           5130      5.47338e+8 
           5150      5.40212e+8 
           5170      5.33644e+8 
           5190      5.26966e+8 
           5210        5.195e+8 
           5230      5.12077e+8 
           5250      5.04588e+8 
           5270      4.96886e+8 
           5290      4.90915e+8 
           5310      4.83897e+8 
           5330      4.77514e+8 
           5350      4.70713e+8 
           5370      4.64483e+8 
           5390      4.57619e+8 
           5410      4.51023e+8 
           5430      4.45727e+8 
           5450      4.39481e+8 
           5470       4.3349e+8 
           5490      4.27613e+8 
           5510      4.22305e+8 
           5530      4.16115e+8 
           5550      4.11177e+8 
           5570      4.05533e+8 
           5590      4.00093e+8 
           5610      3.95007e+8 
           5630      3.89935e+8 
           5650      3.84206e+8 
           5670      3.77938e+8 
           5690      3.70782e+8 
           5710      3.67704e+8 
           5730      3.63375e+8 
           5750      3.57661e+8 
           5770      3.54552e+8 
           5790      3.49758e+8 
           5810      3.45312e+8 
           5830      3.40242e+8 
           5850      3.36632e+8 
           5870      3.24688e+8 
           5890      3.26548e+8 
           5910      3.23899e+8 
           5930      3.19661e+8 
           5950      3.15685e+8 
           5970      3.13077e+8 
           5990      3.08186e+8 
           6010      3.05044e+8 
           6030      3.00817e+8 
           6050        2.974e+8 
           6070      2.94094e+8 
           6090      2.90571e+8 
           6110      2.86956e+8 
           6130      2.83603e+8 
           6150      2.79291e+8 
           6170      2.76197e+8 
           6190      2.73245e+8 
           6210      2.70159e+8 
           6230      2.66972e+8 
           6250      2.63453e+8 
           6270      2.60462e+8 
           6290      2.57523e+8 
           6310      2.54322e+8 
           6330      2.51514e+8 
           6350      2.48288e+8 
           6370      2.45663e+8 
           6390      2.42698e+8 
           6410      2.39884e+8 
           6430      2.37182e+8 
           6450      2.34373e+8 
           6470      2.31037e+8 
           6490      2.28533e+8 
           6510      2.26188e+8 
           6530      2.22923e+8 
           6550      2.16234e+8 
           6570      1.94435e+8 
           6590      2.13964e+8 
           6610      2.13378e+8 
           6630      2.11235e+8 
           6650      2.08748e+8 
           6670      2.04814e+8 
           6690      2.02573e+8 
           6710      2.01928e+8 
           6730      1.99249e+8 
           6750      1.97541e+8 
           6770      1.95422e+8 
           6790      1.92278e+8 
           6810      1.90964e+8 
           6830      1.88829e+8 
           6850      1.86909e+8 
           6870      1.84841e+8 
           6890      1.82579e+8 
           6910      1.80411e+8 
           6930      1.78932e+8 
           6950      1.77007e+8 
           6970      1.75101e+8 
           6990      1.73198e+8 
           7010      1.71322e+8 
           7030      1.69403e+8 
           7050      1.67655e+8 
           7070      1.63542e+8 
           7090      1.64157e+8 
           7110      1.61789e+8 
           7130      1.60186e+8 
           7150      1.59019e+8 
           7170      1.57312e+8 
           7190       1.5571e+8 
           7210      1.54086e+8 
           7230      1.50864e+8 
           7250      1.50591e+8 
           7270      1.49315e+8 
           7290      1.46696e+8 
           7310      1.46212e+8 
           7330      1.44693e+8 
           7350      1.43244e+8 
           7370      1.41802e+8 
           7390      1.40352e+8 
           7410      1.38923e+8 
           7430      1.37501e+8 
           7450      1.36112e+8 
           7470      1.34277e+8 
           7490      1.33272e+8 
           7510      1.31982e+8 
           7530      1.30624e+8 
           7550      1.29417e+8 
           7570      1.28116e+8 
           7590      1.26788e+8 
           7610      1.25407e+8 
           7630      1.24304e+8 
           7650      1.23082e+8 
           7670      1.21897e+8 
           7690      1.20658e+8 
           7710      1.19463e+8 
           7730      1.18246e+8 
           7750      1.17185e+8 
           7770      1.15952e+8 
           7790      1.14923e+8 
           7810      1.13761e+8 
           7830      1.12707e+8 
           7850      1.11688e+8 
           7870      1.10452e+8 
           7890      1.09293e+8 
           7910      1.08398e+8 
           7930      1.07337e+8 
           7950      1.06368e+8 
           7970      1.05283e+8 
           7990      1.04326e+8 
           8010      1.03254e+8 
           8030      1.02279e+8 
           8050      1.01382e+8 
           8070      1.00452e+8 
           8090        9.938e+7 
           8110      9.80485e+7 
           8130      9.76864e+7 
           8150       9.6663e+7 
           8170      9.59138e+7 
           8190      9.46203e+7 
           8210      9.35954e+7 
           8230      9.26738e+7 
           8250      9.21807e+7 
           8270      9.06172e+7 
           8290      9.03998e+7 
           8310      8.96542e+7 
           8330      8.88062e+7 
           8350      8.76302e+7 
           8370      8.70345e+7 
           8390      8.64113e+7 
           8410      8.55747e+7 
           8430      8.47874e+7 
           8450      8.35318e+7 
           8470      8.31746e+7 
           8490      8.23702e+7 
           8510      8.13541e+7 
           8530      8.09834e+7 
           8550      7.93681e+7 
           8570      8.02497e+7 
           8590      7.74922e+7 
