# Kurucz ODFNEW /NOVER (2003)
# teff = 21000 K (value for the effective temperature for the model. Temperatures are given in K)
# logg = 4.5 log(cm/s2) (value for Log(G) for the model.)
# meta = -0.5  (value for the Metallicity for the model.)
# lh = 1.25  (l/Hp where l is the  mixing length of the convective element and Hp is the pressure scale height)
# vtur = 2 km/s (Microturbulence velocity)
# alpha = 0  (Alpha)
#
# column 1: WAVELENGTH (ANGSTROM), Wavelength in Angstrom
# column 2: FLUX (ERG/CM2/S/A), Flux in erg/cm2/s/A
          147.2     2.66901e-18 
            151     1.48146e-17 
          155.2     8.95175e-17 
          158.8     3.88062e-16 
            162     1.35632e-15 
            166     6.07011e-15 
          170.3      2.8163e-14 
          173.4     8.13887e-14 
          176.8      2.5001e-13 
          180.2     7.37401e-13 
          181.7      1.1735e-12 
          186.1     4.40427e-12 
            191     1.79293e-11 
          193.9      3.9814e-11 
          198.4     1.31359e-10 
          201.8     3.13099e-10 
            205     6.91578e-10 
          210.5      2.55488e-9 
          216.2      9.24688e-9 
          219.8      2.01496e-8 
            223      3.94328e-8 
          226.8      8.54628e-8 
            230      5.71974e-7 
            234      1.40747e-6 
            240      4.10498e-6 
          246.5      1.22451e-5 
          252.4      3.16105e-5 
          256.8      6.10057e-5 
            260      9.99949e-5 
            264     0.000178343 
          268.5     0.000334212 
          273.5     0.000654774 
          278.5      0.00125508 
            284      0.00249973 
            290      0.00512818 
            296       0.0101939 
            301        0.017714 
            308       0.0367123 
            318        0.101466 
            328        0.258031 
            338        0.624662 
            348         1.42848 
            357         2.90038 
            366         5.67614 
            375           10.64 
            385         20.7207 
            395         38.8331 
            405         70.4951 
            414           117.6 
            422         181.024 
            430         273.613 
            441         473.873 
            451         760.123 
            460         1138.13 
            470         1751.31 
            480         2638.09 
            490          3908.2 
            500         5685.75 
            506         43439.9 
            512          157651 
            520          201642 
            530          282232 
            540          325827 
            550          472089 
            560          578212 
            570          737214 
            580          770974 
            590      1.04477e+6 
            600      1.30369e+6 
            610      1.60128e+6 
            620      1.87688e+6 
            630      2.23048e+6 
            640      2.50209e+6 
            650        2.773e+6 
            658      3.39607e+6 
            665      3.75115e+6 
            675      4.22284e+6 
            685       4.8012e+6 
            695       5.7008e+6 
            705      6.39908e+6 
            716      7.34792e+6 
            726      8.17678e+6 
            735      9.05587e+6 
            745      1.03002e+7 
            755      1.15122e+7 
            765      1.27865e+7 
            775      1.42325e+7 
            785      1.57637e+7 
            795      1.71584e+7 
            805      1.87741e+7 
            815      2.03649e+7 
            825      2.24563e+7 
            835      2.37884e+7 
            845      2.60203e+7 
            855      2.80765e+7 
            865      3.05573e+7 
            875      3.32176e+7 
            885      3.60743e+7 
            895      3.86848e+7 
            905      4.03498e+7 
            915       5.9797e+7 
            925      2.36884e+8 
            935      6.95951e+8 
            945      2.86458e+9 
            955      6.21752e+9 
            965      8.67482e+9 
            975      1.76364e+9 
            985     1.21718e+10 
            995     1.20977e+10 
           1005     1.35067e+10 
           1015     1.08606e+10 
           1025      1.77492e+9 
           1035      7.58119e+9 
           1045     1.48722e+10 
           1055     1.44196e+10 
           1065     1.21805e+10 
           1075     1.39875e+10 
           1085     1.25446e+10 
           1095     1.38265e+10 
           1105     1.25133e+10 
           1115     1.22286e+10 
           1125     1.11085e+10 
           1135     1.27095e+10 
           1145     1.13448e+10 
           1155     1.19136e+10 
           1165     1.21005e+10 
           1175      9.28654e+9 
           1185     1.17516e+10 
           1195      9.48376e+9 
           1205      5.91678e+9 
           1215      1.56541e+9 
           1225       6.3568e+9 
           1235     1.00343e+10 
           1245       1.053e+10 
           1255     1.02725e+10 
           1265      9.83361e+9 
           1275     1.02547e+10 
           1285     1.01904e+10 
           1295      7.91524e+9 
           1305      7.70636e+9 
           1315      9.64184e+9 
           1325      9.10738e+9 
           1335      8.44638e+9 
           1345      8.93913e+9 
           1355      8.78982e+9 
           1365      8.20556e+9 
           1375      8.11374e+9 
           1385      8.14272e+9 
           1395      7.26676e+9 
           1405      7.51255e+9 
           1415      7.48275e+9 
           1425      7.45157e+9 
           1435      7.43863e+9 
           1442      7.56624e+9 
           1447      7.42984e+9 
           1455      7.27042e+9 
           1465      6.91347e+9 
           1475      6.84308e+9 
           1485      6.64394e+9 
           1495      6.59261e+9 
           1505      6.19825e+9 
           1512       5.7338e+9 
           1517       5.9007e+9 
           1525      5.96012e+9 
           1535      5.45566e+9 
           1545       5.5565e+9 
           1555      5.27353e+9 
           1565      5.37694e+9 
           1575      5.55445e+9 
           1585      5.48563e+9 
           1595      5.50532e+9 
           1605      5.37156e+9 
           1615      5.29874e+9 
           1625      5.17709e+9 
           1635      5.28124e+9 
           1645      5.20455e+9 
           1655       4.9944e+9 
           1665      5.19265e+9 
           1672      4.98783e+9 
           1677      5.10508e+9 
           1685      5.07596e+9 
           1695       4.8817e+9 
           1705      4.67882e+9 
           1715      4.49031e+9 
           1725      4.41611e+9 
           1735      4.51866e+9 
           1745      4.38438e+9 
           1755      4.45369e+9 
           1765      4.17662e+9 
           1775      4.18972e+9 
           1785      4.17648e+9 
           1795      4.24583e+9 
           1805      4.21557e+9 
           1815       3.9523e+9 
           1825      4.02618e+9 
           1835      3.89694e+9 
           1845      3.63358e+9 
           1855      3.55892e+9 
           1865      3.59332e+9 
           1875      3.73255e+9 
           1885      3.42661e+9 
           1895      3.24199e+9 
           1905      3.42802e+9 
           1915      3.26698e+9 
           1925      3.17385e+9 
           1935      3.25704e+9 
           1945       3.3048e+9 
           1955      3.07315e+9 
           1967      3.22993e+9 
           1976      3.32079e+9 
           1984      3.11853e+9 
           1995      3.03881e+9 
           2005      3.08935e+9 
           2015       3.0493e+9 
           2025      3.12491e+9 
           2035      2.93971e+9 
           2045      2.93833e+9 
           2055      2.84664e+9 
           2065      2.87851e+9 
           2074       2.9451e+9 
           2078      2.79523e+9 
           2085      2.84149e+9 
           2095      2.71872e+9 
           2105      2.76326e+9 
           2115      2.74124e+9 
           2125      2.77298e+9 
           2135      2.70508e+9 
           2145      2.61728e+9 
           2155      2.66362e+9 
           2165      2.62042e+9 
           2175       2.5846e+9 
           2185      2.54048e+9 
           2195      2.54733e+9 
           2205      2.49754e+9 
           2215        2.456e+9 
           2225      2.39524e+9 
           2235      2.40138e+9 
           2245       2.3819e+9 
           2255      2.32008e+9 
           2265      2.33187e+9 
           2275      2.30261e+9 
           2285      2.29693e+9 
           2295      2.21924e+9 
           2305      2.21853e+9 
           2315       2.1703e+9 
           2325      2.14937e+9 
           2335      2.08505e+9 
           2345      2.04628e+9 
           2355      2.06154e+9 
           2365      2.01074e+9 
           2375      2.00326e+9 
           2385      1.96146e+9 
           2395      1.97079e+9 
           2405      1.92682e+9 
           2415      1.90928e+9 
           2425      1.91503e+9 
           2435      1.86267e+9 
           2445      1.86051e+9 
           2455      1.85576e+9 
           2465      1.81451e+9 
           2475      1.79612e+9 
           2485      1.79073e+9 
           2495      1.73476e+9 
           2505      1.75444e+9 
           2513      1.69288e+9 
           2518      1.72651e+9 
           2525      1.68977e+9 
           2535      1.66151e+9 
           2545       1.6386e+9 
           2555      1.65753e+9 
           2565      1.63003e+9 
           2575      1.63217e+9 
           2585      1.62047e+9 
           2595      1.60286e+9 
           2605      1.58791e+9 
           2615      1.57336e+9 
           2625      1.55621e+9 
           2635      1.54024e+9 
           2645      1.54789e+9 
           2655      1.53128e+9 
           2665      1.49669e+9 
           2675      1.49331e+9 
           2685      1.48518e+9 
           2695      1.45162e+9 
           2705      1.44894e+9 
           2715      1.42857e+9 
           2725      1.40269e+9 
           2735      1.40705e+9 
           2745      1.35977e+9 
           2755      1.35438e+9 
           2765      1.34535e+9 
           2775      1.35352e+9 
           2785      1.33479e+9 
           2795      1.28889e+9 
           2805      1.30217e+9 
           2815      1.30188e+9 
           2825      1.27488e+9 
           2835       1.2434e+9 
           2845      1.25129e+9 
           2855      1.24379e+9 
           2865      1.23879e+9 
           2875       1.2229e+9 
           2885      1.21249e+9 
           2895      1.20107e+9 
           2910      1.18387e+9 
           2930      1.15614e+9 
           2950      1.12731e+9 
           2970      1.11606e+9 
           2990      1.09107e+9 
           3010      1.07275e+9 
           3030      1.05585e+9 
           3050      1.03536e+9 
           3070       1.0158e+9 
           3090       9.9504e+8 
           3110      9.77609e+8 
           3130      9.60964e+8 
           3150      9.43143e+8 
           3170      9.24831e+8 
           3190      8.99795e+8 
           3210      8.91616e+8 
           3230      8.75698e+8 
           3250      8.60209e+8 
           3270      8.45808e+8 
           3290      8.29779e+8 
           3310      8.16583e+8 
           3330      8.02116e+8 
           3350      7.86592e+8 
           3370      7.74198e+8 
           3390      7.60992e+8 
           3410      7.48009e+8 
           3430      7.32491e+8 
           3450      7.17788e+8 
           3470      7.07347e+8 
           3490      6.95397e+8 
           3510      6.84926e+8 
           3530       6.7492e+8 
           3550      6.63779e+8 
           3570      6.56067e+8 
           3590      6.40798e+8 
           3610      6.31809e+8 
           3630       6.2052e+8 
           3640      6.19476e+8 
           3650      6.10939e+8 
           3670      6.03767e+8 
           3690       5.9262e+8 
           3710      5.72425e+8 
           3730      5.47809e+8 
           3750      5.72039e+8 
           3770      5.73991e+8 
           3790      6.17754e+8 
           3810      6.53043e+8 
           3830      5.59178e+8 
           3850      6.82345e+8 
           3870      7.01521e+8 
           3890      5.24634e+8 
           3910      6.95742e+8 
           3930      6.88679e+8 
           3950      6.75107e+8 
           3970      4.90174e+8 
           3990      6.44341e+8 
           4010      6.52455e+8 
           4030      6.06538e+8 
           4050      6.40526e+8 
           4070       6.2217e+8 
           4090      5.52276e+8 
           4110      4.71935e+8 
           4130      5.80657e+8 
           4150      5.81702e+8 
           4170      5.78952e+8 
           4190      5.73095e+8 
           4210      5.64772e+8 
           4230      5.54938e+8 
           4250      5.45264e+8 
           4270      5.30912e+8 
           4290      5.25912e+8 
           4310      5.11835e+8 
           4330      4.44306e+8 
           4350      4.01387e+8 
           4370      4.84975e+8 
           4390      4.68309e+8 
           4410      4.78387e+8 
           4430      4.69796e+8 
           4450      4.65259e+8 
           4470      4.31918e+8 
           4490      4.47981e+8 
           4510      4.45053e+8 
           4530      4.37516e+8 
           4550      4.30966e+8 
           4570      4.24551e+8 
           4590      4.18374e+8 
           4610      4.11685e+8 
           4630      4.05078e+8 
           4650      3.98482e+8 
           4670      3.93746e+8 
           4690      3.88477e+8 
           4710      3.75726e+8 
           4730      3.74997e+8 
           4750      3.69224e+8 
           4770      3.66399e+8 
           4790      3.60358e+8 
           4810       3.5328e+8 
           4830       3.4487e+8 
           4850      3.07117e+8 
           4870      2.70861e+8 
           4890      3.28266e+8 
           4910      3.28301e+8 
           4930      3.15211e+8 
           4950      3.21402e+8 
           4970      3.17311e+8 
           4990      3.12684e+8 
           5010      3.02388e+8 
           5030      3.03666e+8 
           5050      2.95992e+8 
           5070      2.95742e+8 
           5090      2.91634e+8 
           5110      2.87408e+8 
           5130      2.83081e+8 
           5150      2.79182e+8 
           5170      2.76082e+8 
           5190      2.72364e+8 
           5210      2.67626e+8 
           5230      2.65101e+8 
           5250      2.61582e+8 
           5270      2.58027e+8 
           5290      2.54773e+8 
           5310      2.51348e+8 
           5330      2.47927e+8 
           5350      2.44339e+8 
           5370      2.41674e+8 
           5390      2.38496e+8 
           5410      2.35346e+8 
           5430      2.31941e+8 
           5450      2.29126e+8 
           5470      2.26182e+8 
           5490      2.23462e+8 
           5510      2.20565e+8 
           5530      2.17777e+8 
           5550      2.15073e+8 
           5570      2.12305e+8 
           5590      2.09679e+8 
           5610      2.06906e+8 
           5630      2.04512e+8 
           5650      2.01249e+8 
           5670      1.98836e+8 
           5690      1.96533e+8 
           5710      1.94442e+8 
           5730      1.92077e+8 
           5750      1.89672e+8 
           5770      1.87443e+8 
           5790      1.85139e+8 
           5810      1.82862e+8 
           5830      1.80623e+8 
           5850      1.78466e+8 
           5870      1.70243e+8 
           5890      1.73324e+8 
           5910      1.72056e+8 
           5930      1.70019e+8 
           5950      1.67803e+8 
           5970      1.66036e+8 
           5990      1.63952e+8 
           6010      1.62164e+8 
           6030       1.6023e+8 
           6050       1.5837e+8 
           6070       1.5652e+8 
           6090      1.54661e+8 
           6110      1.52903e+8 
           6130      1.51135e+8 
           6150      1.49168e+8 
           6170      1.47638e+8 
           6190      1.45978e+8 
           6210      1.44306e+8 
           6230      1.42644e+8 
           6250      1.40912e+8 
           6270      1.39411e+8 
           6290      1.37831e+8 
           6310      1.36221e+8 
           6330      1.34759e+8 
           6350      1.32809e+8 
           6370      1.31503e+8 
           6390      1.30257e+8 
           6410      1.28794e+8 
           6430       1.2743e+8 
           6450      1.25988e+8 
           6470      1.24527e+8 
           6490      1.23152e+8 
           6510      1.21455e+8 
           6530      1.19351e+8 
           6550      1.11765e+8 
           6570      9.80206e+7 
           6590      1.13883e+8 
           6610      1.14807e+8 
           6630      1.13987e+8 
           6650      1.12978e+8 
           6670       1.1049e+8 
           6690      1.09367e+8 
           6710      1.09427e+8 
           6730      1.08254e+8 
           6750      1.07134e+8 
           6770         1.06e+8 
           6790      1.04699e+8 
           6810      1.03743e+8 
           6830       1.0266e+8 
           6850      1.01604e+8 
           6870       1.0055e+8 
           6890      9.94991e+7 
           6910      9.84664e+7 
           6930      9.74125e+7 
           6950      9.64471e+7 
           6970      9.54601e+7 
           6990      9.44674e+7 
           7010      9.34999e+7 
           7030      9.25417e+7 
           7050      9.15702e+7 
           7070      8.92063e+7 
           7090      8.97605e+7 
           7110      8.88389e+7 
           7130      8.79484e+7 
           7150      8.70591e+7 
           7170      8.61858e+7 
           7190      8.53426e+7 
           7210      8.44857e+7 
           7230      8.30676e+7 
           7250      8.28034e+7 
           7270      8.19992e+7 
           7290      8.05504e+7 
           7310      8.03781e+7 
           7330      7.95965e+7 
           7350      7.88222e+7 
           7370      7.80482e+7 
           7390      7.72883e+7 
           7410      7.65355e+7 
           7430      7.57691e+7 
           7450      7.50642e+7 
           7470      7.43185e+7 
           7490      7.36132e+7 
           7510      7.28877e+7 
           7530      7.22153e+7 
           7550      7.15292e+7 
           7570      7.08493e+7 
           7590      7.01691e+7 
           7610       6.9508e+7 
           7630      6.88529e+7 
           7650      6.81972e+7 
           7670      6.75538e+7 
           7690      6.69226e+7 
           7710      6.62907e+7 
           7730      6.56707e+7 
           7750      6.50625e+7 
           7770      6.42163e+7 
           7790      6.38559e+7 
           7810      6.32328e+7 
           7830      6.26829e+7 
           7850      6.20949e+7 
           7870      6.15303e+7 
           7890      6.08919e+7 
           7910      6.04519e+7 
           7930      5.99138e+7 
           7950      5.93039e+7 
           7970      5.87635e+7 
           7990      5.81906e+7 
           8010      5.77036e+7 
           8030      5.71642e+7 
           8050      5.66345e+7 
           8070      5.61517e+7 
           8090      5.55607e+7 
           8110      5.51238e+7 
           8130      5.46631e+7 
           8150      5.41263e+7 
           8170      5.37126e+7 
           8190      5.31636e+7 
           8210       5.2583e+7 
           8230      5.22143e+7 
           8250      5.18236e+7 
           8270      5.11612e+7 
           8290      5.08955e+7 
           8310      5.04756e+7 
           8330      5.00218e+7 
           8350       4.9381e+7 
           8370      4.90872e+7 
           8390      4.87427e+7 
           8410      4.83114e+7 
           8430      4.78476e+7 
           8450      4.70832e+7 
           8470      4.69709e+7 
           8490      4.64906e+7 
           8510      4.60273e+7 
           8530      4.57128e+7 
           8550      4.47808e+7 
           8570       4.5363e+7 
