# Kurucz ODFNEW /NOVER (2003)
# teff = 26000 K (value for the effective temperature for the model. Temperatures are given in K)
# logg = 4.5 log(cm/s2) (value for Log(G) for the model.)
# meta = -2  (value for the Metallicity for the model.)
# lh = 1.25  (l/Hp where l is the  mixing length of the convective element and Hp is the pressure scale height)
# vtur = 2 km/s (Microturbulence velocity)
# alpha = 0.4  (Alpha)
#
# column 1: WAVELENGTH (ANGSTROM), Wavelength in Angstrom
# column 2: FLUX (ERG/CM2/S/A), Flux in erg/cm2/s/A
          147.2     4.20564e-13 
            151     1.88406e-12 
          155.2     9.09501e-12 
          158.8     3.28499e-11 
            162     9.81587e-11 
            166      3.6355e-10 
          170.3      1.38769e-9 
          173.4      3.49847e-9 
          176.8      9.27595e-9 
          180.2      2.37022e-8 
          181.7      3.54548e-8 
          186.1      1.11235e-7 
            191      3.73074e-7 
          193.9       7.4128e-7 
          198.4      2.06355e-6 
          201.8      4.33491e-6 
            205      8.51924e-6 
          210.5      2.59016e-5 
          216.2      7.70377e-5 
          219.8     0.000148658 
            223     0.000261761 
          226.8     0.000501571 
            230      0.00793696 
            234       0.0180707 
            240       0.0420387 
          246.5        0.100026 
          252.4        0.213605 
          256.8        0.347331 
            260        0.528536 
            264        0.831501 
          268.5          1.3628 
          273.5         2.30946 
          278.5          3.8448 
            284         6.59286 
            290         11.5572 
            296         19.7528 
            301         30.2515 
            308         51.8646 
            318         117.999 
            328         243.146 
            338         482.206 
            348         913.422 
            357         1575.33 
            366         2645.09 
            375         4279.91 
            385         7150.81 
            395         11558.9 
            405         18226.6 
            414         26965.1 
            422         37405.5 
            430         51165.1 
            441         77718.4 
            451          111392 
            460          151117 
            470          209410 
            480          285294 
            490          383492 
            500          508750 
            506       3.0062e+6 
            512      9.75969e+6 
            520       1.1409e+7 
            530       1.4589e+7 
            540      1.53444e+7 
            550      2.00208e+7 
            560      2.26698e+7 
            570      2.62876e+7 
            580      2.63419e+7 
            590         3.27e+7 
            600      3.75693e+7 
            610      4.25742e+7 
            620      4.70089e+7 
            630      5.27079e+7 
            640      5.70346e+7 
            650      6.38942e+7 
            658      6.95119e+7 
            665      7.39743e+7 
            675      7.92593e+7 
            685      8.56347e+7 
            695      9.64471e+7 
            705      1.03114e+8 
            716      1.13286e+8 
            726      1.21708e+8 
            735      1.31145e+8 
            745      1.41705e+8 
            755      1.52007e+8 
            765      1.62176e+8 
            775      1.74106e+8 
            785      1.85802e+8 
            795      1.96488e+8 
            805      2.09024e+8 
            815      2.20817e+8 
            825      2.34315e+8 
            835      2.41591e+8 
            845      2.59412e+8 
            855      2.72004e+8 
            865      2.87114e+8 
            875      3.02053e+8 
            885      3.17127e+8 
            895      3.31662e+8 
            905      3.42846e+8 
            915      4.71078e+8 
            925      2.70554e+9 
            935      7.41931e+9 
            945     2.13283e+10 
            955     2.96898e+10 
            965     3.95122e+10 
            975     1.57849e+10 
            985     4.41215e+10 
            995     4.19225e+10 
           1005     4.35317e+10 
           1015     3.90982e+10 
           1025     1.29912e+10 
           1035      3.4955e+10 
           1045     4.19982e+10 
           1055     4.08808e+10 
           1065     3.76323e+10 
           1075      3.8435e+10 
           1085     3.54224e+10 
           1095     3.73548e+10 
           1105     3.55278e+10 
           1115      3.4854e+10 
           1125     3.25316e+10 
           1135     3.35313e+10 
           1145       3.152e+10 
           1155      3.1852e+10 
           1165     3.13019e+10 
           1175     2.72678e+10 
           1185      2.9597e+10 
           1195     2.75683e+10 
           1205     2.35296e+10 
           1215      8.93575e+9 
           1225     2.32328e+10 
           1235     2.61004e+10 
           1245     2.56536e+10 
           1255     2.52704e+10 
           1265     2.46252e+10 
           1275     2.44884e+10 
           1285     2.39217e+10 
           1295      2.1905e+10 
           1305     2.19325e+10 
           1315     2.23372e+10 
           1325     2.15679e+10 
           1335      2.0798e+10 
           1345     2.07078e+10 
           1355     2.05331e+10 
           1365     1.98134e+10 
           1375     1.95141e+10 
           1385     1.91825e+10 
           1395     1.78902e+10 
           1405     1.77963e+10 
           1415     1.78798e+10 
           1425     1.75535e+10 
           1435     1.72623e+10 
           1442     1.71189e+10 
           1447     1.69223e+10 
           1455     1.66307e+10 
           1465     1.62614e+10 
           1475     1.59459e+10 
           1485      1.5623e+10 
           1495      1.5305e+10 
           1505     1.47843e+10 
           1512     1.46477e+10 
           1517     1.45546e+10 
           1525     1.43038e+10 
           1535     1.37389e+10 
           1545     1.35517e+10 
           1555     1.31929e+10 
           1565     1.31911e+10 
           1575     1.30306e+10 
           1585     1.27937e+10 
           1595     1.25898e+10 
           1605     1.21946e+10 
           1615      1.1959e+10 
           1625     1.18485e+10 
           1635     1.16826e+10 
           1645      1.1282e+10 
           1655     1.12908e+10 
           1665     1.11106e+10 
           1672     1.09319e+10 
           1677     1.09398e+10 
           1685     1.07656e+10 
           1695     1.05395e+10 
           1705     1.03221e+10 
           1715     1.00833e+10 
           1725      9.92217e+9 
           1735        9.806e+9 
           1745      9.62724e+9 
           1755      9.49974e+9 
           1765      9.21233e+9 
           1775      9.10416e+9 
           1785      8.98565e+9 
           1795      8.88733e+9 
           1805      8.76288e+9 
           1815       8.5719e+9 
           1825      8.45141e+9 
           1835      8.31043e+9 
           1845      8.02879e+9 
           1855       7.8332e+9 
           1865      7.78267e+9 
           1875       7.7556e+9 
           1885       7.4723e+9 
           1895      7.24992e+9 
           1905       7.3184e+9 
           1915      7.09075e+9 
           1925      6.96166e+9 
           1935      6.94664e+9 
           1945      6.90935e+9 
           1955      6.64013e+9 
           1967      6.66754e+9 
           1976      6.64756e+9 
           1984      6.47509e+9 
           1995      6.28784e+9 
           2005      6.31655e+9 
           2015      6.26301e+9 
           2025      6.19772e+9 
           2035      6.05536e+9 
           2045      5.96557e+9 
           2055      5.77803e+9 
           2065      5.70542e+9 
           2074      5.72905e+9 
           2078       5.6086e+9 
           2085      5.60091e+9 
           2095      5.48903e+9 
           2105      5.48112e+9 
           2115      5.42714e+9 
           2125      5.36876e+9 
           2135      5.28643e+9 
           2145      5.19713e+9 
           2155      5.13879e+9 
           2165       5.0711e+9 
           2175      4.99566e+9 
           2185         4.93e+9 
           2195      4.86681e+9 
           2205      4.79874e+9 
           2215      4.73332e+9 
           2225      4.66591e+9 
           2235      4.60019e+9 
           2245      4.54338e+9 
           2255      4.47754e+9 
           2265      4.42223e+9 
           2275      4.36298e+9 
           2285      4.30561e+9 
           2295      4.20523e+9 
           2305       4.1896e+9 
           2315      4.13302e+9 
           2325       4.0795e+9 
           2335      4.02155e+9 
           2345      3.97219e+9 
           2355      3.92338e+9 
           2365      3.87201e+9 
           2375      3.82084e+9 
           2385      3.77039e+9 
           2395      3.72314e+9 
           2405      3.67609e+9 
           2415      3.62711e+9 
           2425      3.58508e+9 
           2435      3.53702e+9 
           2445      3.49365e+9 
           2455      3.45124e+9 
           2465      3.40774e+9 
           2475      3.36507e+9 
           2485      3.32339e+9 
           2495      3.22376e+9 
           2505      3.24016e+9 
           2513      3.19332e+9 
           2518      3.18647e+9 
           2525      3.16162e+9 
           2535      3.12341e+9 
           2545      3.07158e+9 
           2555      3.04528e+9 
           2565       3.0095e+9 
           2575      2.97605e+9 
           2585      2.94056e+9 
           2595       2.9054e+9 
           2605      2.89002e+9 
           2615      2.85601e+9 
           2625      2.82199e+9 
           2635      2.78563e+9 
           2645      2.75201e+9 
           2655      2.71603e+9 
           2665      2.67797e+9 
           2675      2.64398e+9 
           2685      2.63023e+9 
           2695      2.57854e+9 
           2705      2.56908e+9 
           2715      2.53951e+9 
           2725      2.48915e+9 
           2735      2.48085e+9 
           2745      2.45126e+9 
           2755      2.42421e+9 
           2765      2.37611e+9 
           2775      2.37105e+9 
           2785       2.3439e+9 
           2795       2.2948e+9 
           2805      2.28374e+9 
           2815       2.2664e+9 
           2825      2.21564e+9 
           2835      2.19778e+9 
           2845      2.19176e+9 
           2855      2.16733e+9 
           2865       2.1436e+9 
           2875      2.12014e+9 
           2885      2.09714e+9 
           2895      2.07414e+9 
           2910      2.04013e+9 
           2930      1.99601e+9 
           2950      1.93826e+9 
           2970      1.91233e+9 
           2990      1.87162e+9 
           3010      1.83215e+9 
           3030      1.79446e+9 
           3050      1.75731e+9 
           3070      1.72106e+9 
           3090      1.68355e+9 
           3110      1.65125e+9 
           3130      1.61918e+9 
           3150       1.5865e+9 
           3170      1.55432e+9 
           3190      1.50946e+9 
           3210      1.49253e+9 
           3230      1.46266e+9 
           3250       1.4338e+9 
           3270      1.40751e+9 
           3290      1.37806e+9 
           3310      1.35355e+9 
           3330      1.32752e+9 
           3350      1.29963e+9 
           3370      1.27735e+9 
           3390      1.25321e+9 
           3410      1.22964e+9 
           3430      1.20106e+9 
           3450      1.17423e+9 
           3470      1.15598e+9 
           3490      1.13454e+9 
           3510       1.1162e+9 
           3530      1.09812e+9 
           3550      1.07846e+9 
           3570      1.06543e+9 
           3590      1.03866e+9 
           3610      1.02345e+9 
           3630      1.00206e+9 
           3640      1.00085e+9 
           3650      9.89691e+8 
           3670      9.76696e+8 
           3690      9.58251e+8 
           3710      9.25175e+8 
           3730      8.86578e+8 
           3750      9.03829e+8 
           3770      8.95007e+8 
           3790       9.4242e+8 
           3810       9.8386e+8 
           3830      8.54883e+8 
           3850      1.01354e+9 
           3870      1.02842e+9 
           3890      8.05785e+8 
           3910      1.01099e+9 
           3930       1.0018e+9 
           3950       9.7876e+8 
           3970      7.48898e+8 
           3990      9.37038e+8 
           4010      9.36242e+8 
           4030      8.76706e+8 
           4050      9.15795e+8 
           4070      8.94036e+8 
           4090      8.12481e+8 
           4110      7.05884e+8 
           4130      8.37105e+8 
           4150      8.31572e+8 
           4170      8.25932e+8 
           4190      8.14097e+8 
           4210      8.00832e+8 
           4230      7.87319e+8 
           4250      7.73836e+8 
           4270      7.59269e+8 
           4290      7.46475e+8 
           4310      7.29037e+8 
           4330      6.51328e+8 
           4350      5.92494e+8 
           4370      6.91638e+8 
           4390      6.65646e+8 
           4410      6.76843e+8 
           4430      6.64084e+8 
           4450      6.56302e+8 
           4470      6.12884e+8 
           4490      6.34719e+8 
           4510      6.25972e+8 
           4530      6.16087e+8 
           4550       6.0617e+8 
           4570      5.96547e+8 
           4590      5.87372e+8 
           4610      5.78422e+8 
           4630      5.69534e+8 
           4650      5.59506e+8 
           4670      5.51942e+8 
           4690       5.4346e+8 
           4710      5.27782e+8 
           4730      5.27269e+8 
           4750      5.19114e+8 
           4770       5.1174e+8 
           4790      5.04028e+8 
           4810      4.95025e+8 
           4830      4.84313e+8 
           4850      4.41617e+8 
           4870      3.93298e+8 
           4890      4.61032e+8 
           4910      4.58565e+8 
           4930      4.40886e+8 
           4950      4.47494e+8 
           4970      4.41215e+8 
           4990      4.34841e+8 
           5010      4.22731e+8 
           5030      4.22428e+8 
           5050      4.13594e+8 
           5070      4.10527e+8 
           5090      4.04705e+8 
           5110      3.98989e+8 
           5130      3.93365e+8 
           5150      3.87844e+8 
           5170      3.82453e+8 
           5190      3.77148e+8 
           5210       3.7187e+8 
           5230      3.66801e+8 
           5250      3.61756e+8 
           5270      3.56791e+8 
           5290      3.51917e+8 
           5310       3.4712e+8 
           5330      3.42411e+8 
           5350      3.37763e+8 
           5370       3.3324e+8 
           5390      3.28749e+8 
           5410      3.24353e+8 
           5430      3.20013e+8 
           5450      3.15767e+8 
           5470      3.11586e+8 
           5490      3.07482e+8 
           5510       3.0343e+8 
           5530      2.99453e+8 
           5550      2.95537e+8 
           5570      2.91682e+8 
           5590      2.87899e+8 
           5610      2.84162e+8 
           5630      2.80507e+8 
           5650      2.76872e+8 
           5670      2.73305e+8 
           5690      2.69805e+8 
           5710      2.66427e+8 
           5730      2.63045e+8 
           5750       2.5968e+8 
           5770      2.56446e+8 
           5790      2.53227e+8 
           5810      2.50047e+8 
           5830      2.46927e+8 
           5850      2.43854e+8 
           5870      2.32727e+8 
           5890      2.37361e+8 
           5910      2.34916e+8 
           5930      2.32027e+8 
           5950      2.29172e+8 
           5970      2.26391e+8 
           5990      2.23622e+8 
           6010      2.20916e+8 
           6030      2.18241e+8 
           6050      2.15617e+8 
           6070      2.13022e+8 
           6090      2.10467e+8 
           6110      2.07962e+8 
           6130      2.05484e+8 
           6150      2.03034e+8 
           6170      2.00631e+8 
           6190      1.98265e+8 
           6210      1.95935e+8 
           6230      1.93631e+8 
           6250      1.91362e+8 
           6270      1.89137e+8 
           6290      1.86936e+8 
           6310      1.84759e+8 
           6330      1.82625e+8 
           6350      1.80496e+8 
           6370      1.78436e+8 
           6390      1.76398e+8 
           6410      1.74382e+8 
           6430      1.72397e+8 
           6450      1.70442e+8 
           6470      1.68499e+8 
           6490      1.66585e+8 
           6510      1.64479e+8 
           6530      1.61838e+8 
           6550      1.53607e+8 
           6570      1.35986e+8 
           6590      1.55296e+8 
           6610       1.5522e+8 
           6630      1.54002e+8 
           6650      1.52396e+8 
           6670       1.4896e+8 
           6690      1.47363e+8 
           6710       1.4744e+8 
           6730      1.45816e+8 
           6750      1.44242e+8 
           6770      1.42668e+8 
           6790       1.4111e+8 
           6810        1.396e+8 
           6830      1.38097e+8 
           6850      1.36609e+8 
           6870      1.35153e+8 
           6890      1.33702e+8 
           6910      1.32275e+8 
           6930      1.30869e+8 
           6950      1.29485e+8 
           6970      1.28115e+8 
           6990      1.26766e+8 
           7010      1.25438e+8 
           7030      1.24116e+8 
           7050      1.22821e+8 
           7070      1.19444e+8 
           7090      1.20278e+8 
           7110      1.19028e+8 
           7130      1.17798e+8 
           7150       1.1658e+8 
           7170      1.15359e+8 
           7190      1.14193e+8 
           7210      1.13024e+8 
           7230      1.11759e+8 
           7250      1.10727e+8 
           7270      1.09605e+8 
           7290      1.07545e+8 
           7310       1.0738e+8 
           7330      1.06318e+8 
           7350      1.05245e+8 
           7370      1.04189e+8 
           7390       1.0315e+8 
           7410       1.0212e+8 
           7430      1.01101e+8 
           7450       1.0011e+8 
           7470      9.91093e+7 
           7490      9.81375e+7 
           7510      9.71346e+7 
           7530       9.6214e+7 
           7550      9.52687e+7 
           7570      9.43387e+7 
           7590      9.34171e+7 
           7610      9.25039e+7 
           7630      9.16119e+7 
           7650      9.07215e+7 
           7670      8.98455e+7 
           7690      8.89775e+7 
           7710      8.81235e+7 
           7730      8.72772e+7 
           7750      8.64384e+7 
           7770      8.55947e+7 
           7790      8.48018e+7 
           7810      8.39419e+7 
           7830      8.32003e+7 
           7850      8.24956e+7 
           7870      8.17119e+7 
           7890      8.08867e+7 
           7910      8.01891e+7 
           7930      7.94377e+7 
           7950       7.8663e+7 
           7970      7.77646e+7 
           7990      7.70571e+7 
           8010      7.63205e+7 
           8030      7.56077e+7 
           8050      7.49128e+7 
           8070      7.42527e+7 
           8090      7.34658e+7 
           8110      7.28977e+7 
           8130      7.22716e+7 
           8150      7.15373e+7 
           8170      7.09843e+7 
           8190      7.02505e+7 
           8210      6.95342e+7 
           8230      6.90965e+7 
           8250      6.84963e+7 
           8270      6.75374e+7 
           8290      6.72229e+7 
           8310      6.66542e+7 
           8330      6.60196e+7 
           8350      6.50932e+7 
           8370      6.47448e+7 
           8390       6.4276e+7 
           8410      6.37043e+7 
           8430      6.30843e+7 
           8450      6.20738e+7 
           8470       6.1949e+7 
           8490       6.1255e+7 
           8510      6.07438e+7 
           8530      6.01745e+7 
           8550      5.92337e+7 
           8570      5.96551e+7 
