# Kurucz ODFNEW /NOVER (2003)
# teff = 6750 K (value for the effective temperature for the model. Temperatures are given in K)
# logg = 0.5 log(cm/s2) (value for Log(G) for the model.)
# meta = -2.5  (value for the Metallicity for the model.)
# lh = 1.25  (l/Hp where l is the  mixing length of the convective element and Hp is the pressure scale height)
# vtur = 2 km/s (Microturbulence velocity)
# alpha = 0  (Alpha)
#
# column 1: WAVELENGTH (ANGSTROM), Wavelength in Angstrom
# column 2: FLUX (ERG/CM2/S/A), Flux in erg/cm2/s/A
            385     9.99105e-24 
            395     1.16231e-22 
            405     8.31986e-22 
            414     4.44151e-21 
            422     1.84747e-20 
            430     7.27338e-20 
            441     4.40129e-19 
            451     2.08978e-18 
            460     7.99731e-18 
            470     3.33736e-17 
            480      1.3093e-16 
            490     4.84759e-16 
            500      1.6998e-15 
            506     3.34403e-15 
            512     7.16154e-15 
            520     1.79782e-14 
            530     5.45446e-14 
            540     1.58547e-13 
            550     4.42536e-13 
            560     1.18886e-12 
            570     3.08016e-12 
            580     7.71086e-12 
            590      1.8685e-11 
            600     4.38984e-11 
            610      1.0015e-10 
            620     2.22186e-10 
            630     4.80019e-10 
            640      1.01108e-9 
            650      2.07901e-9 
            658      3.63987e-9 
            665      5.87297e-9 
            675      1.14228e-8 
            685      2.17668e-8 
            695      4.06722e-8 
            705      7.45864e-8 
            716      1.42349e-7 
            726      2.51608e-7 
            735      4.14237e-7 
            745       7.1012e-7 
            755      1.19894e-6 
            765      1.99506e-6 
            775      3.27376e-6 
            785      5.30022e-6 
            795      8.47071e-6 
            805      1.33711e-5 
            815      2.08555e-5 
            825      3.21553e-5 
            835      4.90314e-5 
            845      7.39715e-5 
            855     0.000110449 
            865     5.03498e-37 
            905     4.59973e-37 
            915       0.0133822 
            925       0.0655823 
            935       0.0822558 
            945        0.129337 
            955        0.202354 
            965        0.201046 
            975        0.144359 
            985        0.471501 
            995        0.562492 
           1005        0.616851 
           1015        0.438117 
           1025        0.740783 
           1035        0.947112 
           1045         1.77107 
           1055         2.53056 
           1065         3.19911 
           1075          4.0316 
           1085         4.92951 
           1095         5.76551 
           1105         10.9564 
           1115         17.6128 
           1125          18.256 
           1135         19.3967 
           1145         18.7769 
           1155         16.2939 
           1165         14.8269 
           1175          11.845 
           1185         78.2903 
           1195         7.85182 
           1205         4.73706 
           1215         2.26409 
           1225         5.85972 
           1235         14.2242 
           1245         15.0028 
           1255         27.9278 
           1265         42.3361 
           1275         57.8272 
           1285         81.3976 
           1295         106.655 
           1305         134.349 
           1315         175.218 
           1325         226.987 
           1335         283.611 
           1345          367.29 
           1355         451.843 
           1365         572.264 
           1375         714.453 
           1385         892.752 
           1395         1110.23 
           1405         1384.36 
           1415         1572.83 
           1425         1867.11 
           1435          2171.4 
           1442         2522.14 
           1447         2712.92 
           1455         3272.72 
           1465         3729.16 
           1475         4560.32 
           1485         5883.73 
           1495         7443.31 
           1505         9307.53 
           1512         10277.5 
           1517          9701.9 
           1525         11092.6 
           1535         13872.3 
           1545         15655.8 
           1555           16761 
           1565         15910.7 
           1575         18266.8 
           1585         20113.9 
           1595         22231.9 
           1605         24294.1 
           1615           35038 
           1625           55894 
           1635         92603.1 
           1645          158946 
           1655          136859 
           1665          271082 
           1672          194390 
           1677          321844 
           1685          390592 
           1695          414412 
           1705          432283 
           1715          510384 
           1725          536274 
           1735          609605 
           1745          615332 
           1755          703512 
           1765          649875 
           1775          734321 
           1785          770231 
           1795          880876 
           1805          855266 
           1815          907142 
           1825          878429 
           1835          948910 
           1845          910795 
           1855          979971 
           1865      1.02817e+6 
           1875      1.08316e+6 
           1885      1.12927e+6 
           1895      1.16889e+6 
           1905      1.14285e+6 
           1915      1.24661e+6 
           1925      1.31736e+6 
           1935      1.26917e+6 
           1945      1.43083e+6 
           1955       1.4595e+6 
           1967      1.54164e+6 
           1976      1.52918e+6 
           1984      1.55553e+6 
           1995      1.57686e+6 
           2005      1.57579e+6 
           2015      1.60055e+6 
           2025      1.57605e+6 
           2035      1.71689e+6 
           2045      1.80184e+6 
           2055      1.77578e+6 
           2065      1.78955e+6 
           2074      1.96007e+6 
           2078      1.98665e+6 
           2085      1.99508e+6 
           2095       1.9778e+6 
           2105      1.99629e+6 
           2115       2.0466e+6 
           2125      2.10581e+6 
           2135      1.88587e+6 
           2145      2.11061e+6 
           2155      2.15637e+6 
           2165      2.12307e+6 
           2175      2.15671e+6 
           2185      2.23589e+6 
           2195      2.40799e+6 
           2205      2.36737e+6 
           2215      2.24676e+6 
           2225      2.31648e+6 
           2235      2.57318e+6 
           2245       2.4127e+6 
           2255      2.38342e+6 
           2265        2.373e+6 
           2275      2.59493e+6 
           2285      2.67213e+6 
           2295      2.57494e+6 
           2305      2.66319e+6 
           2315       2.6926e+6 
           2325        2.715e+6 
           2335       2.6334e+6 
           2345      2.38978e+6 
           2355      2.84176e+6 
           2365      2.53428e+6 
           2375      2.80452e+6 
           2385      2.36877e+6 
           2395      2.69837e+6 
           2405      2.65644e+6 
           2415      2.76606e+6 
           2425      3.07937e+6 
           2435      3.05134e+6 
           2445      3.19141e+6 
           2455      3.16203e+6 
           2465      3.15899e+6 
           2475      3.08013e+6 
           2485      3.22682e+6 
           2495      3.21263e+6 
           2505      3.48361e+6 
           2513      3.25476e+6 
           2518      3.29859e+6 
           2525      3.14897e+6 
           2535      3.13672e+6 
           2545      3.21885e+6 
           2555      3.43083e+6 
           2565      3.44645e+6 
           2575      3.65223e+6 
           2585       3.6587e+6 
           2595      3.62652e+6 
           2605      3.52956e+6 
           2615       3.4975e+6 
           2625      3.73891e+6 
           2635      3.84178e+6 
           2645      4.26425e+6 
           2655      4.28259e+6 
           2665      4.09684e+6 
           2675      4.22242e+6 
           2685      4.31117e+6 
           2695      4.18654e+6 
           2705      4.26325e+6 
           2715      4.13148e+6 
           2725      4.20197e+6 
           2735      4.42271e+6 
           2745      3.89117e+6 
           2755      4.08708e+6 
           2765      4.30504e+6 
           2775      4.55664e+6 
           2785      4.54957e+6 
           2795      3.41717e+6 
           2805      3.82019e+6 
           2815       4.8169e+6 
           2825      4.82771e+6 
           2835      4.75902e+6 
           2845      4.74517e+6 
           2855       4.6104e+6 
           2865      4.77324e+6 
           2875       4.7638e+6 
           2885      4.90871e+6 
           2895      4.88475e+6 
           2910      5.17441e+6 
           2930      5.14043e+6 
           2950      5.16274e+6 
           2970      5.28179e+6 
           2990      5.37782e+6 
           3010      5.48996e+6 
           3030      5.56381e+6 
           3050      5.60285e+6 
           3070      5.60923e+6 
           3090      5.76254e+6 
           3110      5.74553e+6 
           3130      5.77155e+6 
           3150      5.90124e+6 
           3170       5.9556e+6 
           3190       5.8645e+6 
           3210      6.00443e+6 
           3230      5.97003e+6 
           3250        6.099e+6 
           3270      6.19621e+6 
           3290      6.31218e+6 
           3310      6.38158e+6 
           3330      6.34626e+6 
           3350      6.30898e+6 
           3370      6.39321e+6 
           3390      6.42847e+6 
           3410      6.58234e+6 
           3430      6.63613e+6 
           3450       6.6588e+6 
           3470      6.65829e+6 
           3490      6.70375e+6 
           3510      6.81288e+6 
           3530      6.88464e+6 
           3550       6.9421e+6 
           3570      6.89233e+6 
           3590      6.92887e+6 
           3610      6.98326e+6 
           3630      7.03946e+6 
           3640      7.02501e+6 
           3650      7.11325e+6 
           3670      7.23928e+6 
           3690      8.26967e+6 
           3710      1.14422e+7 
           3730      1.73094e+7 
           3750      2.48195e+7 
           3770      2.54857e+7 
           3790      2.92144e+7 
           3810      3.23524e+7 
           3830      2.66144e+7 
           3850      3.38974e+7 
           3870      3.52358e+7 
           3890      2.49259e+7 
           3910      3.45604e+7 
           3930      3.24094e+7 
           3950      3.44338e+7 
           3970      2.34962e+7 
           3990      3.36759e+7 
           4010      3.39992e+7 
           4030       3.3688e+7 
           4050      3.33676e+7 
           4070      3.26038e+7 
           4090      3.01283e+7 
           4110      2.44431e+7 
           4130      3.19218e+7 
           4150      3.18817e+7 
           4170      3.14575e+7 
           4190      3.12223e+7 
           4210      3.07945e+7 
           4230      3.04156e+7 
           4250      3.01738e+7 
           4270      2.99455e+7 
           4290      2.96117e+7 
           4310      2.87676e+7 
           4330      2.58843e+7 
           4350      2.26506e+7 
           4370      2.85059e+7 
           4390      2.81255e+7 
           4410      2.78749e+7 
           4430      2.79751e+7 
           4450      2.76062e+7 
           4470      2.73673e+7 
           4490      2.71259e+7 
           4510      2.68099e+7 
           4530      2.65186e+7 
           4550      2.60767e+7 
           4570      2.61033e+7 
           4590      2.58513e+7 
           4610      2.58349e+7 
           4630      2.54681e+7 
           4650      2.53662e+7 
           4670      2.51304e+7 
           4690      2.49131e+7 
           4710      2.45916e+7 
           4730      2.44901e+7 
           4750      2.42877e+7 
           4770      2.40612e+7 
           4790       2.3846e+7 
           4810      2.36041e+7 
           4830      2.32653e+7 
           4850      2.11375e+7 
           4870      1.77461e+7 
           4890      2.25608e+7 
           4910      2.25805e+7 
           4930      2.22629e+7 
           4950      2.22432e+7 
           4970      2.20829e+7 
           4990      2.18729e+7 
           5010      2.15726e+7 
           5030       2.1513e+7 
           5050      2.13282e+7 
           5070      2.11661e+7 
           5090       2.0987e+7 
           5110       2.0813e+7 
           5130      2.06224e+7 
           5150      2.04454e+7 
           5170      2.00621e+7 
           5190      1.99497e+7 
           5210      1.99259e+7 
           5230       1.9687e+7 
           5250      1.96426e+7 
           5270      1.93662e+7 
           5290      1.93224e+7 
           5310      1.91143e+7 
           5330      1.89645e+7 
           5350      1.88717e+7 
           5370      1.86948e+7 
           5390       1.8555e+7 
           5410      1.84001e+7 
           5430      1.82507e+7 
           5450      1.81195e+7 
           5470      1.79873e+7 
           5490      1.78515e+7 
           5510      1.77097e+7 
           5530      1.75547e+7 
           5550      1.74419e+7 
           5570      1.73011e+7 
           5590      1.71642e+7 
           5610      1.70349e+7 
           5630      1.69081e+7 
           5650      1.67709e+7 
           5670      1.66435e+7 
           5690      1.65232e+7 
           5710      1.63972e+7 
           5730      1.62738e+7 
           5750      1.61494e+7 
           5770      1.60274e+7 
           5790      1.59068e+7 
           5810      1.57874e+7 
           5830      1.56682e+7 
           5850      1.55491e+7 
           5870      1.54335e+7 
           5890      1.52626e+7 
           5910      1.52048e+7 
           5930      1.50917e+7 
           5950      1.49798e+7 
           5970      1.48701e+7 
           5990      1.47583e+7 
           6010      1.46509e+7 
           6030      1.45435e+7 
           6050      1.44372e+7 
           6070       1.4333e+7 
           6090      1.42279e+7 
           6110      1.41238e+7 
           6130      1.40177e+7 
           6150      1.39048e+7 
           6170      1.38158e+7 
           6190      1.37208e+7 
           6210      1.36228e+7 
           6230      1.35228e+7 
           6250      1.34104e+7 
           6270      1.33326e+7 
           6290      1.32365e+7 
           6310      1.31405e+7 
           6330      1.30491e+7 
           6350      1.29539e+7 
           6370      1.28625e+7 
           6390      1.27747e+7 
           6410      1.26805e+7 
           6430      1.25935e+7 
           6450      1.24956e+7 
           6470      1.24185e+7 
           6490      1.23134e+7 
           6510      1.22041e+7 
           6530        1.205e+7 
           6550      1.12652e+7 
           6570      9.13875e+6 
           6590      1.16901e+7 
           6610      1.17695e+7 
           6630      1.17286e+7 
           6650      1.16667e+7 
           6670      1.15867e+7 
           6690      1.15083e+7 
           6710      1.14289e+7 
           6730      1.13511e+7 
           6750      1.12731e+7 
           6770      1.11976e+7 
           6790      1.11211e+7 
           6810      1.10461e+7 
           6830      1.09702e+7 
           6850      1.08966e+7 
           6870      1.08237e+7 
           6890      1.07506e+7 
           6910      1.06782e+7 
           6930      1.06065e+7 
           6950      1.05362e+7 
           6970      1.04657e+7 
           6990      1.03959e+7 
           7010      1.03259e+7 
           7030      1.02573e+7 
           7050      1.01901e+7 
           7070       1.0122e+7 
           7090      1.00552e+7 
           7110      9.98534e+6 
           7130      9.92199e+6 
           7150      9.85698e+6 
           7170      9.79254e+6 
           7190      9.72793e+6 
           7210      9.66389e+6 
           7230      9.60041e+6 
           7250      9.53891e+6 
           7270      9.47652e+6 
           7290      9.41467e+6 
           7310      9.35195e+6 
           7330      9.29187e+6 
           7350       9.2323e+6 
           7370      9.17325e+6 
           7390      9.11331e+6 
           7410      9.05389e+6 
           7430      8.99635e+6 
           7450      8.93793e+6 
           7470      8.87933e+6 
           7490      8.82324e+6 
           7510      8.76696e+6 
           7530      8.71181e+6 
           7550      8.65713e+6 
           7570      8.60158e+6 
           7590      8.54715e+6 
           7610      8.49253e+6 
           7630      8.43901e+6 
           7650      8.38528e+6 
           7670        8.332e+6 
           7690       8.2798e+6 
           7710      8.22549e+6 
           7730      8.17542e+6 
           7750      8.12387e+6 
           7770      8.05402e+6 
           7790      8.02265e+6 
           7810      7.97297e+6 
           7830      7.92246e+6 
           7850      7.87297e+6 
           7870      7.82327e+6 
           7890      7.77459e+6 
           7910      7.72749e+6 
           7930      7.67898e+6 
           7950      7.63145e+6 
           7970      7.58489e+6 
           7990      7.53753e+6 
           8010      7.49113e+6 
           8030      7.44509e+6 
           8050      7.39942e+6 
           8070      7.35412e+6 
           8090      7.30859e+6 
           8110        7.264e+6 
           8130      7.21975e+6 
           8150      7.17585e+6 
           8170      7.13173e+6 
           8190      7.08515e+6 
           8210      7.05738e+6 
           8230      7.01756e+6 
           8250      6.97416e+6 
           8270      6.93111e+6 
           8290      6.88126e+6 
           8310      6.81163e+6 
           8330      6.74692e+6 
           8350      6.76057e+6 
           8370      6.59709e+6 
           8390      6.65773e+6 
           8410       6.6261e+6 
           8430      6.77971e+6 
           8450      6.73552e+6 
           8470      6.52205e+6 
           8490      6.97691e+6 
           8510      6.44684e+6 
           8530      7.05194e+6 
           8550       6.3243e+6 
           8570      7.14425e+6 
           8590      6.85523e+6 
           8610      6.66588e+6 
           8630      7.26327e+6 
           8650      7.16527e+6 
           8670      6.18954e+6 
           8690      7.18627e+6 
           8710      7.20743e+6 
           8730      7.10722e+6 
           8750        6.131e+6 
           8770      6.93526e+6 
           8790      7.03539e+6 
           8810      6.99911e+6 
           8830       6.9428e+6 
           8850      6.71088e+6 
           8870      5.95666e+6 
           8890      6.78362e+6 
           8910      6.78689e+6 
           8930      6.75322e+6 
           8950      6.72166e+6 
           8970      6.67299e+6 
           8990      6.59206e+6 
           9010      5.81243e+6 
           9030      6.24872e+6 
           9050      6.49114e+6 
           9070      6.45568e+6 
           9090      6.39265e+6 
           9110      6.39185e+6 
           9130      6.36478e+6 
           9150      6.32663e+6 
           9170      6.28831e+6 
           9190      6.23689e+6 
           9210      6.12278e+6 
           9230      5.30207e+6 
           9250       6.0105e+6 
           9270      6.07885e+6 
           9290      6.06667e+6 
           9310      6.03151e+6 
           9330      5.99572e+6 
           9350      5.96019e+6 
           9370      5.92533e+6 
           9390      5.88986e+6 
           9410      5.83167e+6 
           9430      5.82051e+6 
           9450      5.78704e+6 
           9470      5.75338e+6 
           9490      5.71996e+6 
           9510      5.66968e+6 
           9530      5.54345e+6 
