# Kurucz ODFNEW /NOVER (2003)
# teff = 18000 K (value for the effective temperature for the model. Temperatures are given in K)
# logg = 5 log(cm/s2) (value for Log(G) for the model.)
# meta = 0.5  (value for the Metallicity for the model.)
# lh = 1.25  (l/Hp where l is the  mixing length of the convective element and Hp is the pressure scale height)
# vtur = 2 km/s (Microturbulence velocity)
# alpha = 0  (Alpha)
#
# column 1: WAVELENGTH (ANGSTROM), Wavelength in Angstrom
# column 2: FLUX (ERG/CM2/S/A), Flux in erg/cm2/s/A
          147.2      2.2839e-22 
            151     1.64052e-21 
          155.2     1.24089e-20 
          158.8     6.46227e-20 
            162     2.65149e-19 
            166     1.44575e-18 
          170.3     8.22523e-18 
          173.4     2.74933e-17 
          176.8     9.83686e-17 
          180.2     3.36262e-16 
          181.7     5.69951e-16 
          186.1     2.56115e-15 
            191      1.2612e-14 
          193.9     3.10895e-14 
          198.4     1.19931e-13 
          201.8     3.20981e-13 
            205     7.89182e-13 
          210.5     3.45125e-12 
          216.2     1.47347e-11 
          219.8     3.54692e-11 
            223     7.53891e-11 
          226.8     1.79905e-10 
            230       3.819e-10 
            234     9.76431e-10 
            240       3.3905e-9 
          246.5      1.21025e-8 
          252.4      3.63136e-8 
          256.8      7.91891e-8 
            260      1.38972e-7 
            264      2.72834e-7 
          268.5      5.67611e-7 
          273.5      1.24347e-6 
          278.5      2.65709e-6 
            284      5.94688e-6 
            290      1.37558e-5 
            296      3.06763e-5 
            301      5.84714e-5 
            308     0.000138716 
            318     0.000450217 
            328      0.00133846 
            338      0.00377112 
            348      0.00992872 
            357        0.023026 
            366       0.0505827 
            375        0.105524 
            385        0.230419 
            395         0.48134 
            405        0.969678 
            414         1.76935 
            422         2.93858 
            430         4.78705 
            441         9.13401 
            451         15.9354 
            460         25.6625 
            470         42.6937 
            480         69.3418 
            490         110.425 
            500          172.15 
            506          1576.6 
            512         8451.64 
            520           10969 
            530         15384.3 
            540         19138.8 
            550         28397.3 
            560         36494.5 
            570         48869.3 
            580           58906 
            590         83319.9 
            600          104992 
            610          135485 
            620          162541 
            630          198198 
            640          226341 
            650          248543 
            658          324258 
            665          360735 
            675          421639 
            685          492412 
            695          597861 
            705          684863 
            716          803347 
            726          920817 
            735      1.02867e+6 
            745      1.20175e+6 
            755      1.37573e+6 
            765      1.56962e+6 
            775      1.78447e+6 
            785      2.02051e+6 
            795      2.22667e+6 
            805      2.48132e+6 
            815       2.7408e+6 
            825      3.08396e+6 
            835      3.29864e+6 
            845      3.67863e+6 
            855      4.06622e+6 
            865      4.50041e+6 
            875      4.97467e+6 
            885      5.54061e+6 
            895      6.04441e+6 
            905      6.31451e+6 
            915      1.19176e+7 
            925      4.73848e+7 
            935      9.11459e+7 
            945      2.58548e+8 
            955      6.56821e+8 
            965      9.59356e+8 
            975      2.79595e+8 
            985      1.57809e+9 
            995       1.5718e+9 
           1005      1.99796e+9 
           1015      1.62017e+9 
           1025      2.73967e+8 
           1035      9.87801e+8 
           1045      2.75789e+9 
           1055      3.03408e+9 
           1065      2.37983e+9 
           1075      3.10133e+9 
           1085      2.81066e+9 
           1095      3.29561e+9 
           1105      2.89687e+9 
           1115      2.98587e+9 
           1125       3.0311e+9 
           1135      3.84326e+9 
           1145      3.23562e+9 
           1155      3.69747e+9 
           1165      4.03286e+9 
           1175       3.2455e+9 
           1185      4.06448e+9 
           1195      1.99885e+9 
           1205      1.33742e+9 
           1215      3.86344e+8 
           1225      1.28118e+9 
           1235      3.78971e+9 
           1245      4.42784e+9 
           1255      4.45036e+9 
           1265      3.77194e+9 
           1275      4.40847e+9 
           1285      4.99104e+9 
           1295       3.1333e+9 
           1305      2.40701e+9 
           1315      4.53563e+9 
           1325      4.39168e+9 
           1335      3.76618e+9 
           1345      4.62044e+9 
           1355      4.42056e+9 
           1365       3.8554e+9 
           1375      4.09902e+9 
           1385      4.20383e+9 
           1395      3.81526e+9 
           1405      3.95007e+9 
           1415      3.78174e+9 
           1425      3.99785e+9 
           1435      3.91068e+9 
           1442      4.24675e+9 
           1447      4.25056e+9 
           1455      4.14166e+9 
           1465      3.83799e+9 
           1475      3.74578e+9 
           1485      3.68901e+9 
           1495      3.83299e+9 
           1505      3.49831e+9 
           1512      3.14366e+9 
           1517       3.4219e+9 
           1525      3.40083e+9 
           1535      3.02778e+9 
           1545      3.21203e+9 
           1555      2.99682e+9 
           1565      2.99525e+9 
           1575      3.19137e+9 
           1585      3.28514e+9 
           1595      3.33456e+9 
           1605      3.22557e+9 
           1615      3.26735e+9 
           1625      3.07518e+9 
           1635      3.24808e+9 
           1645      3.25633e+9 
           1655      2.95549e+9 
           1665      3.26051e+9 
           1672      3.07007e+9 
           1677      3.17503e+9 
           1685      3.30856e+9 
           1695      3.10534e+9 
           1705      2.91778e+9 
           1715       2.6834e+9 
           1725      2.64731e+9 
           1735        2.815e+9 
           1745      2.72406e+9 
           1755       2.8778e+9 
           1765       2.5964e+9 
           1775      2.63479e+9 
           1785      2.70845e+9 
           1795      2.86146e+9 
           1805      2.84395e+9 
           1815      2.56133e+9 
           1825      2.64623e+9 
           1835      2.49506e+9 
           1845       2.2929e+9 
           1855      2.20004e+9 
           1865      2.26131e+9 
           1875      2.52991e+9 
           1885      2.27476e+9 
           1895      2.14035e+9 
           1905      2.31455e+9 
           1915      2.16727e+9 
           1925      2.12122e+9 
           1935      2.21496e+9 
           1945      2.23457e+9 
           1955      2.06076e+9 
           1967      2.27142e+9 
           1976       2.3683e+9 
           1984      2.17716e+9 
           1995      2.10986e+9 
           2005      2.18558e+9 
           2015      2.01808e+9 
           2025      2.23458e+9 
           2035      2.04047e+9 
           2045      2.08875e+9 
           2055      1.98596e+9 
           2065       2.0272e+9 
           2074      2.10248e+9 
           2078       1.9644e+9 
           2085      2.05002e+9 
           2095      1.90467e+9 
           2105      1.94944e+9 
           2115      1.95034e+9 
           2125      1.97541e+9 
           2135      1.85372e+9 
           2145       1.8594e+9 
           2155      1.92452e+9 
           2165      1.86266e+9 
           2175      1.83761e+9 
           2185      1.76906e+9 
           2195      1.81835e+9 
           2205      1.76757e+9 
           2215      1.70672e+9 
           2225      1.61981e+9 
           2235      1.70889e+9 
           2245       1.6422e+9 
           2255      1.56455e+9 
           2265      1.61282e+9 
           2275      1.63943e+9 
           2285      1.64964e+9 
           2295      1.57736e+9 
           2305      1.52506e+9 
           2315      1.45821e+9 
           2325      1.43726e+9 
           2335      1.36521e+9 
           2345      1.34386e+9 
           2355      1.36881e+9 
           2365      1.30176e+9 
           2375      1.31834e+9 
           2385      1.25333e+9 
           2395      1.33654e+9 
           2405      1.26149e+9 
           2415      1.28323e+9 
           2425      1.30515e+9 
           2435       1.2386e+9 
           2445      1.29384e+9 
           2455       1.2617e+9 
           2465      1.25799e+9 
           2475      1.21199e+9 
           2485      1.26705e+9 
           2495      1.21824e+9 
           2505      1.25884e+9 
           2513      1.17681e+9 
           2518      1.22674e+9 
           2525      1.16175e+9 
           2535      1.16497e+9 
           2545      1.12111e+9 
           2555      1.16175e+9 
           2565       1.1463e+9 
           2575      1.18883e+9 
           2585      1.18174e+9 
           2595      1.18188e+9 
           2605      1.14107e+9 
           2615      1.13291e+9 
           2625      1.13112e+9 
           2635      1.13422e+9 
           2645      1.15867e+9 
           2655      1.14579e+9 
           2665      1.08655e+9 
           2675      1.11535e+9 
           2685       1.0976e+9 
           2695      1.07225e+9 
           2705      1.07612e+9 
           2715        1.047e+9 
           2725      1.03573e+9 
           2735      1.06206e+9 
           2745      9.87443e+8 
           2755       9.8262e+8 
           2765      9.92181e+8 
           2775      1.01268e+9 
           2785      1.00805e+9 
           2795      9.31886e+8 
           2805      9.70645e+8 
           2815      9.90384e+8 
           2825      9.73141e+8 
           2835      9.23681e+8 
           2845      9.14778e+8 
           2855      9.21323e+8 
           2865      9.38769e+8 
           2875      9.19351e+8 
           2885      9.16926e+8 
           2895      9.09299e+8 
           2910      9.13207e+8 
           2930      8.87793e+8 
           2950       8.6796e+8 
           2970      8.59684e+8 
           2990      8.41522e+8 
           3010      8.36696e+8 
           3030      8.27205e+8 
           3050      8.07564e+8 
           3070        7.918e+8 
           3090      7.81031e+8 
           3110      7.62176e+8 
           3130      7.51928e+8 
           3150      7.39601e+8 
           3170      7.24112e+8 
           3190      6.99512e+8 
           3210      6.97696e+8 
           3230      6.87205e+8 
           3250      6.76561e+8 
           3270       6.6669e+8 
           3290       6.5572e+8 
           3310      6.46651e+8 
           3330      6.34049e+8 
           3350       6.2123e+8 
           3370      6.11556e+8 
           3390      6.01575e+8 
           3410      5.92952e+8 
           3430       5.8151e+8 
           3450      5.70989e+8 
           3470      5.61735e+8 
           3490      5.53243e+8 
           3510      5.45183e+8 
           3530       5.3739e+8 
           3550      5.28871e+8 
           3570      5.21898e+8 
           3590      5.09434e+8 
           3610      5.03083e+8 
           3630      4.95038e+8 
           3640      4.93829e+8 
           3650      4.89572e+8 
           3670      4.83803e+8 
           3690      4.76304e+8 
           3710      4.60836e+8 
           3730      4.38063e+8 
           3750      4.47039e+8 
           3770       4.4321e+8 
           3790       4.8591e+8 
           3810      5.24994e+8 
           3830       4.4158e+8 
           3850      5.52291e+8 
           3870      5.88026e+8 
           3890      4.04511e+8 
           3910      5.87515e+8 
           3930      5.90624e+8 
           3950      5.71619e+8 
           3970        3.796e+8 
           3990      5.40196e+8 
           4010       5.6652e+8 
           4030      5.24191e+8 
           4050      5.59519e+8 
           4070      5.35157e+8 
           4090      4.52217e+8 
           4110      3.75389e+8 
           4130       4.9558e+8 
           4150      5.05383e+8 
           4170      5.05161e+8 
           4190       5.0123e+8 
           4210      4.95714e+8 
           4230      4.86363e+8 
           4250      4.76624e+8 
           4270      4.59504e+8 
           4290      4.59508e+8 
           4310      4.42253e+8 
           4330      3.61782e+8 
           4350       3.2197e+8 
           4370      4.16068e+8 
           4390      4.07183e+8 
           4410      4.18511e+8 
           4430      4.09941e+8 
           4450      4.08795e+8 
           4470      3.77052e+8 
           4490      3.89752e+8 
           4510       3.9186e+8 
           4530      3.83671e+8 
           4550      3.78522e+8 
           4570      3.74404e+8 
           4590      3.68055e+8 
           4610      3.62174e+8 
           4630      3.54096e+8 
           4650      3.50238e+8 
           4670         3.46e+8 
           4690      3.41754e+8 
           4710      3.27242e+8 
           4730      3.28758e+8 
           4750      3.23307e+8 
           4770      3.22621e+8 
           4790      3.16271e+8 
           4810       3.0798e+8 
           4830      2.97667e+8 
           4850      2.52408e+8 
           4870      2.18331e+8 
           4890      2.82278e+8 
           4910      2.86187e+8 
           4930      2.75252e+8 
           4950      2.81903e+8 
           4970      2.79303e+8 
           4990      2.74754e+8 
           5010      2.62479e+8 
           5030      2.65012e+8 
           5050      2.56107e+8 
           5070      2.59322e+8 
           5090      2.55383e+8 
           5110      2.50633e+8 
           5130      2.46735e+8 
           5150      2.42266e+8 
           5170      2.41269e+8 
           5190      2.38126e+8 
           5210        2.315e+8 
           5230      2.31661e+8 
           5250      2.29161e+8 
           5270      2.25078e+8 
           5290      2.24039e+8 
           5310      2.20257e+8 
           5330      2.17201e+8 
           5350      2.13725e+8 
           5370      2.12384e+8 
           5390      2.09475e+8 
           5410      2.06088e+8 
           5430      2.03116e+8 
           5450      2.00931e+8 
           5470      1.97689e+8 
           5490      1.96364e+8 
           5510      1.93588e+8 
           5530       1.9139e+8 
           5550      1.89083e+8 
           5570       1.8655e+8 
           5590       1.8441e+8 
           5610      1.82044e+8 
           5630      1.80372e+8 
           5650      1.75675e+8 
           5670      1.73794e+8 
           5690      1.72725e+8 
           5710       1.7124e+8 
           5730      1.69267e+8 
           5750      1.67157e+8 
           5770      1.65231e+8 
           5790      1.63068e+8 
           5810      1.60988e+8 
           5830      1.59109e+8 
           5850      1.57209e+8 
           5870      1.49885e+8 
           5890      1.51921e+8 
           5910      1.51423e+8 
           5930      1.49942e+8 
           5950      1.47063e+8 
           5970      1.46217e+8 
           5990      1.44108e+8 
           6010      1.43057e+8 
           6030       1.4126e+8 
           6050      1.39669e+8 
           6070      1.38003e+8 
           6090      1.36255e+8 
           6110      1.34941e+8 
           6130       1.3339e+8 
           6150      1.30602e+8 
           6170      1.30112e+8 
           6190      1.28821e+8 
           6210      1.27318e+8 
           6230      1.25677e+8 
           6250      1.23582e+8 
           6270      1.22881e+8 
           6290      1.21472e+8 
           6310       1.1989e+8 
           6330      1.18785e+8 
           6350      1.16076e+8 
           6370      1.15395e+8 
           6390      1.14711e+8 
           6410      1.13327e+8 
           6430       1.1245e+8 
           6450      1.10884e+8 
           6470      1.09552e+8 
           6490       1.0818e+8 
           6510      1.06423e+8 
           6530       1.0389e+8 
           6550      9.42735e+7 
           6570      8.10479e+7 
           6590       9.8268e+7 
           6610       1.0064e+8 
           6630      1.00274e+8 
           6650      9.94417e+7 
           6670      9.73051e+7 
           6690      9.64633e+7 
           6710      9.64497e+7 
           6730      9.54614e+7 
           6750      9.45079e+7 
           6770       9.3564e+7 
           6790      9.21557e+7 
           6810      9.14771e+7 
           6830      9.03768e+7 
           6850      8.96411e+7 
           6870      8.87368e+7 
           6890      8.78018e+7 
           6910      8.68919e+7 
           6930      8.57478e+7 
           6950       8.5138e+7 
           6970      8.43011e+7 
           6990      8.34108e+7 
           7010      8.24832e+7 
           7030      8.16715e+7 
           7050      8.06176e+7 
           7070      7.88884e+7 
           7090      7.92983e+7 
           7110      7.83162e+7 
           7130      7.75885e+7 
           7150      7.68308e+7 
           7170      7.61169e+7 
           7190      7.54026e+7 
           7210      7.46587e+7 
           7230       7.3122e+7 
           7250      7.30559e+7 
           7270      7.24692e+7 
           7290      7.13349e+7 
           7310      7.10508e+7 
           7330      7.03551e+7 
           7350      6.97015e+7 
           7370      6.90137e+7 
           7390      6.83426e+7 
           7410      6.76792e+7 
           7430      6.68246e+7 
           7450      6.62926e+7 
           7470      6.54972e+7 
           7490      6.49625e+7 
           7510      6.44059e+7 
           7530      6.38104e+7 
           7550      6.32204e+7 
           7570      6.26481e+7 
           7590      6.20045e+7 
           7610       6.1491e+7 
           7630      6.08947e+7 
           7650      6.03128e+7 
           7670      5.97444e+7 
           7690       5.9176e+7 
           7710      5.86425e+7 
           7730      5.80677e+7 
           7750      5.75439e+7 
           7770      5.63014e+7 
           7790      5.64851e+7 
           7810      5.59769e+7 
           7830      5.54658e+7 
           7850      5.46174e+7 
           7870       5.4207e+7 
           7890      5.35392e+7 
           7910      5.34018e+7 
           7930      5.29848e+7 
           7950      5.21952e+7 
           7970      5.20071e+7 
           7990      5.11287e+7 
           8010      5.10909e+7 
           8030      5.06077e+7 
           8050      5.01252e+7 
           8070      4.97145e+7 
           8090      4.92439e+7 
           8110      4.87986e+7 
           8130      4.83536e+7 
           8150      4.79549e+7 
           8170      4.75545e+7 
           8190      4.70495e+7 
           8210      4.64752e+7 
           8230      4.59186e+7 
           8250      4.58673e+7 
           8270      4.54265e+7 
           8290      4.50371e+7 
           8310      4.46945e+7 
           8330      4.43217e+7 
           8350      4.38735e+7 
           8370      4.35237e+7 
           8390      4.32709e+7 
           8410      4.28907e+7 
           8430      4.24764e+7 
           8450      4.16841e+7 
           8470      4.17564e+7 
           8490      4.12745e+7 
           8510      4.08596e+7 
           8530      4.06522e+7 
           8550      3.98454e+7 
           8570      4.01418e+7 
           8590      3.89401e+7 
