# Kurucz ODFNEW /NOVER (2003)
# teff = 27000 K (value for the effective temperature for the model. Temperatures are given in K)
# logg = 3.5 log(cm/s2) (value for Log(G) for the model.)
# meta = -1.5  (value for the Metallicity for the model.)
# lh = 1.25  (l/Hp where l is the  mixing length of the convective element and Hp is the pressure scale height)
# vtur = 2 km/s (Microturbulence velocity)
# alpha = 0  (Alpha)
#
# column 1: WAVELENGTH (ANGSTROM), Wavelength in Angstrom
# column 2: FLUX (ERG/CM2/S/A), Flux in erg/cm2/s/A
          147.2     1.23302e-11 
            151     4.88521e-11 
          155.2     2.06922e-10 
          158.8      6.7131e-10 
            162      1.82996e-9 
            166      6.07216e-9 
          170.3      2.06874e-8 
          173.4      4.82258e-8 
          176.8      1.17924e-7 
          180.2      2.78753e-7 
          181.7      4.03238e-7 
          186.1      1.15173e-6 
            191      3.50128e-6 
          193.9      6.58273e-6 
          198.4         1.69e-5 
          201.8      3.35107e-5 
            205      6.25106e-5 
          210.5     0.000174607 
          216.2     0.000479027 
          219.8     0.000881701 
            223      0.00149119 
          226.8       0.0027294 
            230        0.773186 
            234         1.96779 
            240         4.02734 
          246.5         8.64598 
          252.4         16.7538 
          256.8         22.5348 
            260         36.9256 
            264         53.0711 
          268.5         82.3093 
          273.5         129.676 
          278.5         199.025 
            284         326.004 
            290         522.449 
            296         819.366 
            301         1119.86 
            308         1681.91 
            318         3817.44 
            328         6956.17 
            338         12693.1 
            348         21847.7 
            357         36824.9 
            366         58375.7 
            375         85579.5 
            385          133488 
            395          200755 
            405          292334 
            414          408543 
            422          529055 
            430          689401 
            441          973858 
            451      1.31482e+6 
            460      1.67819e+6 
            470      2.21586e+6 
            480      2.85359e+6 
            490       3.6471e+6 
            500      4.63287e+6 
            506       3.3689e+7 
            512      1.09062e+8 
            520      1.14752e+8 
            530      1.27197e+8 
            540      1.24761e+8 
            550      1.54503e+8 
            560      1.72231e+8 
            570      1.91646e+8 
            580      1.84736e+8 
            590      2.19339e+8 
            600      2.35351e+8 
            610      2.58355e+8 
            620      2.80646e+8 
            630      3.01099e+8 
            640      3.09201e+8 
            650      3.33341e+8 
            658      3.56626e+8 
            665      3.76308e+8 
            675      3.88425e+8 
            685      4.01061e+8 
            695       4.5422e+8 
            705       4.6271e+8 
            716      5.07236e+8 
            726      5.25994e+8 
            735      5.51156e+8 
            745      5.89823e+8 
            755      6.16534e+8 
            765      6.47597e+8 
            775      6.81296e+8 
            785      7.19987e+8 
            795      7.44726e+8 
            805      7.74242e+8 
            815      7.95118e+8 
            825      8.39003e+8 
            835      8.21459e+8 
            845      8.87288e+8 
            855      9.16385e+8 
            865      9.54531e+8 
            875      9.96755e+8 
            885      1.03703e+9 
            895      1.07089e+9 
            905       1.0911e+9 
            915      1.77699e+9 
            925     1.40314e+10 
            935     2.45901e+10 
            945     3.68467e+10 
            955     3.96728e+10 
            965     4.43106e+10 
            975     2.38206e+10 
            985     4.13064e+10 
            995     3.90799e+10 
           1005     4.04844e+10 
           1015      3.9665e+10 
           1025     2.80281e+10 
           1035     3.70848e+10 
           1045     4.12185e+10 
           1055     3.98756e+10 
           1065     3.63568e+10 
           1075     3.75548e+10 
           1085     3.51536e+10 
           1095     3.70909e+10 
           1105     3.57654e+10 
           1115     3.52086e+10 
           1125      3.2475e+10 
           1135     3.42448e+10 
           1145     3.24682e+10 
           1155     3.27867e+10 
           1165     3.23539e+10 
           1175     2.65406e+10 
           1185     3.05494e+10 
           1195     2.96498e+10 
           1205     2.74136e+10 
           1215      1.9518e+10 
           1225     2.80019e+10 
           1235     2.85136e+10 
           1245     2.76636e+10 
           1255     2.75259e+10 
           1265      2.7149e+10 
           1275     2.69032e+10 
           1285     2.64564e+10 
           1295     2.44747e+10 
           1305     2.47403e+10 
           1315     2.50452e+10 
           1325     2.42373e+10 
           1335     2.34464e+10 
           1345      2.3476e+10 
           1355     2.32806e+10 
           1365     2.26132e+10 
           1375     2.22277e+10 
           1385     2.18843e+10 
           1395     1.99068e+10 
           1405     1.99908e+10 
           1415     2.05315e+10 
           1425     1.98807e+10 
           1435     1.98882e+10 
           1442     1.98423e+10 
           1447     1.95939e+10 
           1455     1.92188e+10 
           1465     1.88222e+10 
           1475     1.85228e+10 
           1485     1.82657e+10 
           1495     1.78569e+10 
           1505     1.73493e+10 
           1512     1.70127e+10 
           1517     1.69613e+10 
           1525     1.66899e+10 
           1535     1.56505e+10 
           1545     1.53255e+10 
           1555     1.48839e+10 
           1565     1.51382e+10 
           1575     1.52294e+10 
           1585     1.50768e+10 
           1595     1.48676e+10 
           1605     1.42169e+10 
           1615      1.3917e+10 
           1625     1.38668e+10 
           1635     1.38104e+10 
           1645     1.33267e+10 
           1655     1.35027e+10 
           1665     1.32921e+10 
           1672     1.30081e+10 
           1677     1.33513e+10 
           1685     1.30606e+10 
           1695     1.27621e+10 
           1705     1.24619e+10 
           1715     1.21081e+10 
           1725     1.19377e+10 
           1735     1.19472e+10 
           1745     1.17331e+10 
           1755     1.15982e+10 
           1765     1.13124e+10 
           1775     1.11298e+10 
           1785     1.10654e+10 
           1795     1.09287e+10 
           1805     1.08477e+10 
           1815     1.05309e+10 
           1825     1.04228e+10 
           1835      1.0286e+10 
           1845       9.7846e+9 
           1855      9.62739e+9 
           1865      9.63869e+9 
           1875      9.61513e+9 
           1885      9.11844e+9 
           1895      8.79879e+9 
           1905      9.00906e+9 
           1915      8.69948e+9 
           1925      8.47219e+9 
           1935      8.59684e+9 
           1945      8.60806e+9 
           1955      8.12526e+9 
           1967      8.27802e+9 
           1976      8.35822e+9 
           1984      8.04948e+9 
           1995      7.80582e+9 
           2005      7.87866e+9 
           2015      7.86384e+9 
           2025      7.82651e+9 
           2035      7.56511e+9 
           2045      7.46275e+9 
           2055      6.93551e+9 
           2065         6.82e+9 
           2074      6.99741e+9 
           2078      6.84067e+9 
           2085      6.95652e+9 
           2095      6.86864e+9 
           2105      6.90973e+9 
           2115      6.87292e+9 
           2125      6.82524e+9 
           2135      6.71658e+9 
           2145      6.57689e+9 
           2155      6.54365e+9 
           2165      6.44436e+9 
           2175      6.36732e+9 
           2185      6.27232e+9 
           2195      6.22171e+9 
           2205       6.1348e+9 
           2215       6.0363e+9 
           2225      5.96215e+9 
           2235      5.87219e+9 
           2245      5.81147e+9 
           2255      5.70803e+9 
           2265      5.65686e+9 
           2275      5.58358e+9 
           2285      5.50913e+9 
           2295      5.31767e+9 
           2305      5.34602e+9 
           2315      5.28376e+9 
           2325      5.21597e+9 
           2335      5.13891e+9 
           2345      5.08778e+9 
           2355      5.02204e+9 
           2365      4.95757e+9 
           2375      4.88913e+9 
           2385      4.81119e+9 
           2395      4.76052e+9 
           2405      4.70389e+9 
           2415       4.6406e+9 
           2425      4.58645e+9 
           2435      4.52153e+9 
           2445      4.46837e+9 
           2455       4.4151e+9 
           2465       4.3592e+9 
           2475       4.3027e+9 
           2485      4.24825e+9 
           2495      3.99138e+9 
           2505       4.1386e+9 
           2513      4.04405e+9 
           2518      4.06479e+9 
           2525      4.04157e+9 
           2535      3.99275e+9 
           2545      3.92107e+9 
           2555      3.88651e+9 
           2565      3.84607e+9 
           2575      3.80057e+9 
           2585      3.75431e+9 
           2595      3.70927e+9 
           2605      3.68195e+9 
           2615      3.63644e+9 
           2625        3.592e+9 
           2635      3.54406e+9 
           2645      3.50132e+9 
           2655      3.45757e+9 
           2665      3.40992e+9 
           2675      3.36895e+9 
           2685      3.34573e+9 
           2695      3.28225e+9 
           2705      3.26297e+9 
           2715      3.22646e+9 
           2725      3.17096e+9 
           2735      3.14348e+9 
           2745      3.11482e+9 
           2755      3.08024e+9 
           2765      3.02419e+9 
           2775      3.01119e+9 
           2785      2.97547e+9 
           2795      2.92037e+9 
           2805      2.90202e+9 
           2815      2.87597e+9 
           2825      2.82218e+9 
           2835      2.79284e+9 
           2845      2.77962e+9 
           2855      2.74659e+9 
           2865      2.71671e+9 
           2875      2.68663e+9 
           2885      2.65731e+9 
           2895      2.62725e+9 
           2910      2.58253e+9 
           2930       2.5269e+9 
           2950      2.45773e+9 
           2970      2.41795e+9 
           2990      2.36532e+9 
           3010      2.31224e+9 
           3030      2.26553e+9 
           3050      2.21818e+9 
           3070      2.17194e+9 
           3090      2.12013e+9 
           3110      2.08153e+9 
           3130       2.0389e+9 
           3150      1.99685e+9 
           3170      1.95531e+9 
           3190      1.90281e+9 
           3210      1.87463e+9 
           3230      1.83795e+9 
           3250      1.80131e+9 
           3270      1.76659e+9 
           3290      1.72944e+9 
           3310       1.6975e+9 
           3330      1.66372e+9 
           3350      1.62881e+9 
           3370      1.59941e+9 
           3390       1.5688e+9 
           3410      1.53862e+9 
           3430      1.50267e+9 
           3450      1.46928e+9 
           3470      1.44504e+9 
           3490      1.41764e+9 
           3510      1.39655e+9 
           3530      1.37149e+9 
           3550      1.34621e+9 
           3570      1.32656e+9 
           3590      1.29513e+9 
           3610      1.27313e+9 
           3630      1.24799e+9 
           3640      1.24381e+9 
           3650      1.21803e+9 
           3670      1.20051e+9 
           3690      1.16958e+9 
           3710      1.13727e+9 
           3730      1.10572e+9 
           3750      1.16597e+9 
           3770      1.16012e+9 
           3790      1.18515e+9 
           3810      1.21652e+9 
           3830      1.09681e+9 
           3850      1.21634e+9 
           3870      1.20065e+9 
           3890      1.04571e+9 
           3910      1.17239e+9 
           3930      1.14703e+9 
           3950      1.13172e+9 
           3970      9.68923e+8 
           3990      1.09076e+9 
           4010      1.07276e+9 
           4030      1.03066e+9 
           4050      1.04244e+9 
           4070      1.01973e+9 
           4090      9.76162e+8 
           4110      8.82517e+8 
           4130      9.63264e+8 
           4150      9.49562e+8 
           4170      9.38807e+8 
           4190      9.24329e+8 
           4210       9.0917e+8 
           4230      8.94551e+8 
           4250       8.7883e+8 
           4270      8.62083e+8 
           4290      8.50052e+8 
           4310      8.34576e+8 
           4330      7.90274e+8 
           4350       7.3132e+8 
           4370       7.9414e+8 
           4390      7.72123e+8 
           4410      7.69843e+8 
           4430      7.57072e+8 
           4450      7.46972e+8 
           4470      7.16828e+8 
           4490      7.23481e+8 
           4510      7.12504e+8 
           4530      7.01343e+8 
           4550      6.89514e+8 
           4570      6.79054e+8 
           4590        6.685e+8 
           4610      6.58458e+8 
           4630      6.48335e+8 
           4650      6.34529e+8 
           4670       6.2826e+8 
           4690      6.17244e+8 
           4710       6.0325e+8 
           4730      6.00769e+8 
           4750      5.91446e+8 
           4770      5.83318e+8 
           4790      5.74582e+8 
           4810       5.6589e+8 
           4830      5.56594e+8 
           4850      5.32666e+8 
           4870      4.86413e+8 
           4890       5.3207e+8 
           4910      5.25556e+8 
           4930      5.10063e+8 
           4950      5.10193e+8 
           4970      5.03228e+8 
           4990      4.95965e+8 
           5010      4.83878e+8 
           5030      4.81869e+8 
           5050      4.72875e+8 
           5070      4.68301e+8 
           5090      4.61662e+8 
           5110       4.5517e+8 
           5130      4.48693e+8 
           5150      4.42402e+8 
           5170      4.36322e+8 
           5190      4.30295e+8 
           5210      4.24346e+8 
           5230      4.18504e+8 
           5250      4.12738e+8 
           5270      4.07075e+8 
           5290      4.01539e+8 
           5310      3.96062e+8 
           5330      3.90734e+8 
           5350      3.85436e+8 
           5370      3.80271e+8 
           5390      3.75133e+8 
           5410      3.69906e+8 
           5430      3.65219e+8 
           5450      3.60349e+8 
           5470      3.55578e+8 
           5490       3.5088e+8 
           5510       3.4629e+8 
           5530      3.41744e+8 
           5550       3.3728e+8 
           5570      3.32871e+8 
           5590      3.28564e+8 
           5610       3.2431e+8 
           5630      3.20132e+8 
           5650      3.15994e+8 
           5670      3.11858e+8 
           5690      3.07645e+8 
           5710      3.03992e+8 
           5730      3.00164e+8 
           5750      2.96256e+8 
           5770      2.92656e+8 
           5790      2.88963e+8 
           5810      2.85347e+8 
           5830      2.81753e+8 
           5850      2.78266e+8 
           5870      2.68611e+8 
           5890      2.71209e+8 
           5910       2.6805e+8 
           5930      2.64713e+8 
           5950      2.61468e+8 
           5970      2.58334e+8 
           5990      2.55153e+8 
           6010       2.5207e+8 
           6030      2.49002e+8 
           6050         2.46e+8 
           6070      2.43052e+8 
           6090      2.40138e+8 
           6110      2.37257e+8 
           6130      2.34428e+8 
           6150      2.31611e+8 
           6170      2.28874e+8 
           6190      2.26179e+8 
           6210      2.23513e+8 
           6230      2.20886e+8 
           6250      2.18288e+8 
           6270      2.15739e+8 
           6290      2.13226e+8 
           6310      2.10741e+8 
           6330      2.08302e+8 
           6350       2.0588e+8 
           6370      2.03522e+8 
           6390       2.0118e+8 
           6410      1.98872e+8 
           6430      1.96607e+8 
           6450      1.94366e+8 
           6470      1.92122e+8 
           6490      1.89947e+8 
           6510      1.87831e+8 
           6530      1.85542e+8 
           6550      1.80635e+8 
           6570      1.64141e+8 
           6590      1.78779e+8 
           6610      1.77517e+8 
           6630      1.75565e+8 
           6650      1.73684e+8 
           6670      1.70519e+8 
           6690      1.68659e+8 
           6710      1.68023e+8 
           6730      1.66153e+8 
           6750      1.64368e+8 
           6770      1.62576e+8 
           6790      1.60754e+8 
           6810      1.59063e+8 
           6830      1.57334e+8 
           6850      1.55646e+8 
           6870      1.53974e+8 
           6890      1.52304e+8 
           6910      1.50674e+8 
           6930      1.49084e+8 
           6950      1.47502e+8 
           6970      1.45935e+8 
           6990      1.44377e+8 
           7010      1.42864e+8 
           7030      1.41359e+8 
           7050      1.39876e+8 
           7070      1.36485e+8 
           7090      1.36968e+8 
           7110      1.35542e+8 
           7130      1.34131e+8 
           7150      1.32741e+8 
           7170      1.31349e+8 
           7190      1.30014e+8 
           7210      1.28678e+8 
           7230      1.27124e+8 
           7250      1.26044e+8 
           7270      1.24774e+8 
           7290      1.22608e+8 
           7310      1.22227e+8 
           7330      1.21007e+8 
           7350      1.19785e+8 
           7370      1.18581e+8 
           7390      1.17388e+8 
           7410      1.16213e+8 
           7430      1.15049e+8 
           7450      1.13916e+8 
           7470       1.1276e+8 
           7490      1.11662e+8 
           7510       1.1052e+8 
           7530      1.09462e+8 
           7550      1.08388e+8 
           7570      1.07323e+8 
           7590      1.06267e+8 
           7610      1.05222e+8 
           7630      1.04205e+8 
           7650      1.03184e+8 
           7670      1.02186e+8 
           7690      1.01196e+8 
           7710      1.00216e+8 
           7730        9.925e+7 
           7750      9.82868e+7 
           7770      9.73447e+7 
           7790      9.64233e+7 
           7810      9.54422e+7 
           7830      9.45927e+7 
           7850       9.3775e+7 
           7870      9.28733e+7 
           7890      9.19491e+7 
           7910      9.11355e+7 
           7930       9.0269e+7 
           7950      8.93564e+7 
           7970      8.84044e+7 
           7990      8.76201e+7 
           8010       8.6778e+7 
           8030       8.5984e+7 
           8050      8.52317e+7 
           8070      8.44743e+7 
           8090      8.35448e+7 
           8110      8.28125e+7 
           8130      8.21719e+7 
           8150      8.12813e+7 
           8170       8.0692e+7 
           8190      7.98659e+7 
           8210       7.8868e+7 
           8230      7.83461e+7 
           8250      7.76734e+7 
           8270      7.66096e+7 
           8290      7.61911e+7 
           8310      7.55247e+7 
           8330      7.48259e+7 
           8350      7.38465e+7 
           8370      7.33488e+7 
           8390      7.27694e+7 
           8410      7.20934e+7 
           8430      7.13701e+7 
           8450       7.0389e+7 
           8470      6.98784e+7 
           8490      6.95286e+7 
           8510      6.83751e+7 
           8530      6.84949e+7 
           8550      6.63557e+7 
           8570      6.81084e+7 
