# Kurucz ODFNEW /NOVER (2003)
# teff = 30000 K (value for the effective temperature for the model. Temperatures are given in K)
# logg = 3.5 log(cm/s2) (value for Log(G) for the model.)
# meta = 0  (value for the Metallicity for the model.)
# lh = 1.25  (l/Hp where l is the  mixing length of the convective element and Hp is the pressure scale height)
# vtur = 2 km/s (Microturbulence velocity)
# alpha = 0  (Alpha)
#
# column 1: WAVELENGTH (ANGSTROM), Wavelength in Angstrom
# column 2: FLUX (ERG/CM2/S/A), Flux in erg/cm2/s/A
          147.2      2.05509e-8 
            151      6.23922e-8 
          155.2      2.00181e-7 
          158.8       5.1869e-7 
            162      1.16942e-6 
            166      3.09781e-6 
          170.3      8.39825e-6 
          173.4      1.67919e-5 
          176.8      3.49477e-5 
          180.2      7.06773e-5 
          181.7      9.59805e-5 
          186.1     0.000227279 
            191     0.000568579 
          193.9     0.000957715 
          198.4      0.00209446 
          201.8      0.00369558 
            205      0.00620346 
          210.5       0.0146125 
          216.2       0.0338668 
          219.8       0.0566575 
            223       0.0880972 
          226.8        0.147269 
            230         103.761 
            234         226.763 
            240         382.583 
          246.5         691.368 
          252.4          1189.4 
          256.8         1653.59 
            260         3180.35 
            264         5672.89 
          268.5         8714.31 
          273.5         12282.1 
          278.5         15883.3 
            284         37209.1 
            290         55232.7 
            296         74906.4 
            301          117063 
            308          326827 
            318          779321 
            328      1.16212e+6 
            338      2.18765e+6 
            348      3.49529e+6 
            357      7.63101e+6 
            366       1.5447e+7 
            375      1.87209e+7 
            385      2.76476e+7 
            395      4.68325e+7 
            405      5.91834e+7 
            414      7.72929e+7 
            422      8.82358e+7 
            430      1.03589e+8 
            441      1.31578e+8 
            451      1.48665e+8 
            460      1.60527e+8 
            470       1.9609e+8 
            480      2.34491e+8 
            490      2.57419e+8 
            500      3.17613e+8 
            506       6.8817e+8 
            512      4.61801e+9 
            520      4.42922e+9 
            530      3.95278e+9 
            540      3.69663e+9 
            550      4.37492e+9 
            560      5.87102e+9 
            570      6.45136e+9 
            580      5.87133e+9 
            590       6.2873e+9 
            600      4.75119e+9 
            610      6.17356e+9 
            620       7.5979e+9 
            630      7.33213e+9 
            640      7.24404e+9 
            650      6.45442e+9 
            658      5.54143e+9 
            665      7.05787e+9 
            675       8.1973e+9 
            685      6.18255e+9 
            695      8.64093e+9 
            705      6.53058e+9 
            716       9.3959e+9 
            726      9.14813e+9 
            735      9.19465e+9 
            745      8.60398e+9 
            755      8.69678e+9 
            765      8.85843e+9 
            775      9.38146e+9 
            785      9.68318e+9 
            795      9.83034e+9 
            805      9.31614e+9 
            815      9.22618e+9 
            825      9.91992e+9 
            835      7.74613e+9 
            845      9.44481e+9 
            855      9.38184e+9 
            865      9.71549e+9 
            875      9.81994e+9 
            885     1.00572e+10 
            895     1.01526e+10 
            905      9.84618e+9 
            915     1.28531e+10 
            925     3.73121e+10 
            935     5.28794e+10 
            945     5.88998e+10 
            955     6.07625e+10 
            965     6.37777e+10 
            975      2.7285e+10 
            985     5.00196e+10 
            995     4.83305e+10 
           1005     5.11556e+10 
           1015     5.35241e+10 
           1025     4.80994e+10 
           1035     5.15916e+10 
           1045     5.88471e+10 
           1055     5.60851e+10 
           1065     4.96062e+10 
           1075     5.12042e+10 
           1085     4.81238e+10 
           1095     5.03657e+10 
           1105     4.85141e+10 
           1115     4.75205e+10 
           1125     3.92558e+10 
           1135     4.59892e+10 
           1145     4.44394e+10 
           1155     4.28091e+10 
           1165      4.1686e+10 
           1175     2.71294e+10 
           1185      3.7962e+10 
           1195     3.73346e+10 
           1205     3.56304e+10 
           1215     3.14761e+10 
           1225     3.51643e+10 
           1235     3.72351e+10 
           1245     3.55651e+10 
           1255     3.56895e+10 
           1265     3.65282e+10 
           1275     3.73132e+10 
           1285     3.71682e+10 
           1295     3.47071e+10 
           1305     3.45887e+10 
           1315     3.62498e+10 
           1325     3.50201e+10 
           1335     3.38993e+10 
           1345     3.41259e+10 
           1355     3.31973e+10 
           1365     3.22699e+10 
           1375     3.13678e+10 
           1385     3.04196e+10 
           1395     2.36702e+10 
           1405      2.4636e+10 
           1415     2.89157e+10 
           1425      2.6285e+10 
           1435     2.77311e+10 
           1442     2.75205e+10 
           1447     2.73595e+10 
           1455     2.61697e+10 
           1465     2.55293e+10 
           1475     2.57418e+10 
           1485     2.56474e+10 
           1495      2.4879e+10 
           1505     2.43034e+10 
           1512     2.36438e+10 
           1517      2.3904e+10 
           1525     2.30691e+10 
           1535      2.0352e+10 
           1545      1.7378e+10 
           1555     1.74528e+10 
           1565     1.96161e+10 
           1575     2.06192e+10 
           1585     2.07078e+10 
           1595     2.04445e+10 
           1605     1.93028e+10 
           1615     1.85431e+10 
           1625     1.88976e+10 
           1635     1.91604e+10 
           1645     1.90451e+10 
           1655     1.90522e+10 
           1665     1.88023e+10 
           1672     1.74324e+10 
           1677     2.00613e+10 
           1685     1.90804e+10 
           1695     1.84049e+10 
           1705      1.8235e+10 
           1715     1.73761e+10 
           1725     1.69005e+10 
           1735     1.74284e+10 
           1745     1.71809e+10 
           1755     1.69417e+10 
           1765     1.67865e+10 
           1775     1.62428e+10 
           1785     1.64066e+10 
           1795     1.60617e+10 
           1805     1.60646e+10 
           1815     1.55599e+10 
           1825     1.54057e+10 
           1835      1.5368e+10 
           1845     1.45334e+10 
           1855     1.47122e+10 
           1865     1.46956e+10 
           1875     1.44428e+10 
           1885     1.36984e+10 
           1895     1.33622e+10 
           1905     1.37258e+10 
           1915     1.33558e+10 
           1925     1.26084e+10 
           1935     1.32532e+10 
           1945     1.33692e+10 
           1955     1.22481e+10 
           1967     1.27612e+10 
           1976     1.30089e+10 
           1984     1.25348e+10 
           1995     1.21935e+10 
           2005     1.23926e+10 
           2015     1.23655e+10 
           2025     1.23539e+10 
           2035     1.18398e+10 
           2045     1.16991e+10 
           2055      9.92087e+9 
           2065      9.69603e+9 
           2074     1.02251e+10 
           2078     1.01134e+10 
           2085     1.08117e+10 
           2095     1.07379e+10 
           2105     1.08181e+10 
           2115     1.09131e+10 
           2125     1.07597e+10 
           2135     1.06658e+10 
           2145      1.0438e+10 
           2155     1.04533e+10 
           2165     1.01319e+10 
           2175     1.01743e+10 
           2185       9.9741e+9 
           2195     1.00187e+10 
           2205      9.86837e+9 
           2215       9.6282e+9 
           2225      9.56924e+9 
           2235       9.4197e+9 
           2245      9.30532e+9 
           2255      9.10814e+9 
           2265      9.07783e+9 
           2275      8.98801e+9 
           2285      8.80561e+9 
           2295      7.95513e+9 
           2305      8.48399e+9 
           2315      8.41367e+9 
           2325      8.35887e+9 
           2335      8.22455e+9 
           2345      8.14222e+9 
           2355      8.00597e+9 
           2365      7.89126e+9 
           2375      7.75015e+9 
           2385      7.51906e+9 
           2395      7.49712e+9 
           2405      7.46356e+9 
           2415      7.36764e+9 
           2425      7.31021e+9 
           2435      7.18612e+9 
           2445      7.10981e+9 
           2455      7.02013e+9 
           2465      6.92298e+9 
           2475      6.82718e+9 
           2485      6.62715e+9 
           2495      5.00712e+9 
           2505      6.34824e+9 
           2513      6.24764e+9 
           2518      6.32861e+9 
           2525      6.40998e+9 
           2535      6.36009e+9 
           2545      6.23227e+9 
           2555      6.17031e+9 
           2565       6.1137e+9 
           2575       6.0379e+9 
           2585      5.96703e+9 
           2595      5.87414e+9 
           2605      5.83912e+9 
           2615      5.73449e+9 
           2625      5.68706e+9 
           2635      5.62933e+9 
           2645      5.54322e+9 
           2655      5.48498e+9 
           2665      5.37812e+9 
           2675      5.27849e+9 
           2685      5.28366e+9 
           2695      5.17206e+9 
           2705      5.13106e+9 
           2715      5.06195e+9 
           2725      5.01736e+9 
           2735      4.91678e+9 
           2745      4.91827e+9 
           2755      4.86029e+9 
           2765      4.78568e+9 
           2775       4.7649e+9 
           2785      4.68814e+9 
           2795       4.5597e+9 
           2805      4.56838e+9 
           2815      4.54164e+9 
           2825      4.48065e+9 
           2835      4.40087e+9 
           2845      4.38855e+9 
           2855      4.32879e+9 
           2865      4.27013e+9 
           2875      4.22666e+9 
           2885       4.1818e+9 
           2895      4.13534e+9 
           2910      4.04819e+9 
           2930      3.97925e+9 
           2950      3.87257e+9 
           2970      3.79335e+9 
           2990      3.69106e+9 
           3010       3.5971e+9 
           3030      3.51543e+9 
           3050      3.45915e+9 
           3070      3.39672e+9 
           3090      3.29954e+9 
           3110      3.25514e+9 
           3130      3.17783e+9 
           3150      3.11657e+9 
           3170      3.04704e+9 
           3190      2.98397e+9 
           3210      2.91063e+9 
           3230      2.85942e+9 
           3250      2.81193e+9 
           3270      2.73641e+9 
           3290      2.68971e+9 
           3310      2.63416e+9 
           3330      2.57455e+9 
           3350      2.51604e+9 
           3370      2.46991e+9 
           3390      2.43403e+9 
           3410      2.38447e+9 
           3430      2.33866e+9 
           3450      2.28313e+9 
           3470      2.24441e+9 
           3490      2.20032e+9 
           3510      2.16076e+9 
           3530      2.12229e+9 
           3550      2.07982e+9 
           3570      2.04239e+9 
           3590      1.99611e+9 
           3610      1.95668e+9 
           3630      1.92109e+9 
           3640      1.89994e+9 
           3650      1.81464e+9 
           3670      1.78613e+9 
           3690      1.75077e+9 
           3710       1.7069e+9 
           3730      1.67654e+9 
           3750      1.71494e+9 
           3770      1.69303e+9 
           3790      1.70686e+9 
           3810       1.7273e+9 
           3830      1.60714e+9 
           3850      1.69606e+9 
           3870      1.64973e+9 
           3890      1.52874e+9 
           3910      1.62167e+9 
           3930      1.57386e+9 
           3950      1.54941e+9 
           3970      1.41227e+9 
           3990       1.5079e+9 
           4010      1.47804e+9 
           4030      1.43613e+9 
           4050       1.4319e+9 
           4070      1.38721e+9 
           4090      1.34062e+9 
           4110      1.26031e+9 
           4130      1.32138e+9 
           4150      1.30316e+9 
           4170      1.29047e+9 
           4190      1.26788e+9 
           4210      1.24553e+9 
           4230      1.23023e+9 
           4250      1.20264e+9 
           4270       1.1772e+9 
           4290      1.16103e+9 
           4310      1.13564e+9 
           4330      1.09784e+9 
           4350      1.03434e+9 
           4370      1.08431e+9 
           4390      1.06395e+9 
           4410      1.04927e+9 
           4430      1.03984e+9 
           4450      1.02195e+9 
           4470      9.94461e+8 
           4490      9.90835e+8 
           4510      9.71194e+8 
           4530      9.59351e+8 
           4550      9.40254e+8 
           4570      9.30978e+8 
           4590      9.14085e+8 
           4610       8.9986e+8 
           4630      8.82437e+8 
           4650      8.44407e+8 
           4670      8.55708e+8 
           4690      8.37464e+8 
           4710      8.26461e+8 
           4730      8.25565e+8 
           4750      8.11999e+8 
           4770      8.02671e+8 
           4790      7.90449e+8 
           4810      7.77604e+8 
           4830      7.64637e+8 
           4850       7.4473e+8 
           4870       6.9218e+8 
           4890      7.31903e+8 
           4910      7.20983e+8 
           4930      7.03954e+8 
           4950      6.98339e+8 
           4970      6.91571e+8 
           4990      6.81499e+8 
           5010      6.63266e+8 
           5030      6.60519e+8 
           5050      6.49891e+8 
           5070      6.43132e+8 
           5090      6.33798e+8 
           5110      6.24648e+8 
           5130      6.15135e+8 
           5150      6.06531e+8 
           5170      5.98113e+8 
           5190      5.90197e+8 
           5210      5.82177e+8 
           5230      5.74083e+8 
           5250      5.65057e+8 
           5270      5.57113e+8 
           5290      5.50634e+8 
           5310      5.42953e+8 
           5330      5.35597e+8 
           5350      5.28389e+8 
           5370      5.21155e+8 
           5390      5.13832e+8 
           5410      5.04299e+8 
           5430      5.00451e+8 
           5450      4.93626e+8 
           5470      4.86913e+8 
           5490      4.80447e+8 
           5510      4.74025e+8 
           5530      4.67757e+8 
           5550      4.61823e+8 
           5570      4.55513e+8 
           5590      4.48908e+8 
           5610      4.43905e+8 
           5630      4.38119e+8 
           5650      4.32284e+8 
           5670      4.26064e+8 
           5690      4.16349e+8 
           5710      4.07406e+8 
           5730      4.02444e+8 
           5750      3.96835e+8 
           5770      3.92629e+8 
           5790      3.87719e+8 
           5810       3.8271e+8 
           5830      3.78227e+8 
           5850      3.74908e+8 
           5870       3.6478e+8 
           5890       3.6626e+8 
           5910      3.62912e+8 
           5930      3.59086e+8 
           5950      3.55559e+8 
           5970       3.5262e+8 
           5990      3.47907e+8 
           6010      3.43958e+8 
           6030      3.39411e+8 
           6050      3.35421e+8 
           6070      3.31466e+8 
           6090      3.27565e+8 
           6110      3.23436e+8 
           6130      3.19595e+8 
           6150      3.15428e+8 
           6170      3.11565e+8 
           6190      3.08297e+8 
           6210      3.04722e+8 
           6230      3.00788e+8 
           6250      2.97362e+8 
           6270      2.93925e+8 
           6290      2.90535e+8 
           6310      2.86605e+8 
           6330      2.83763e+8 
           6350      2.80287e+8 
           6370      2.77184e+8 
           6390      2.73929e+8 
           6410       2.7037e+8 
           6430      2.67661e+8 
           6450      2.64446e+8 
           6470      2.61086e+8 
           6490        2.582e+8 
           6510      2.55363e+8 
           6530      2.51937e+8 
           6550        2.476e+8 
           6570      2.28124e+8 
           6590      2.43137e+8 
           6610      2.41219e+8 
           6630      2.38635e+8 
           6650      2.35881e+8 
           6670      2.31615e+8 
           6690      2.28793e+8 
           6710       2.2785e+8 
           6730      2.25092e+8 
           6750        2.229e+8 
           6770      2.20664e+8 
           6790      2.17879e+8 
           6810      2.15846e+8 
           6830      2.13461e+8 
           6850      2.11164e+8 
           6870      2.08795e+8 
           6890      2.05958e+8 
           6910      2.04057e+8 
           6930      2.02199e+8 
           6950      2.00015e+8 
           6970      1.97868e+8 
           6990      1.95735e+8 
           7010      1.93555e+8 
           7030      1.91266e+8 
           7050      1.89409e+8 
           7070      1.85331e+8 
           7090      1.85546e+8 
           7110      1.83289e+8 
           7130      1.81477e+8 
           7150      1.79756e+8 
           7170      1.77538e+8 
           7190      1.75917e+8 
           7210      1.74182e+8 
           7230      1.71346e+8 
           7250      1.70395e+8 
           7270      1.68817e+8 
           7290      1.66141e+8 
           7310      1.65304e+8 
           7330      1.63631e+8 
           7350      1.61975e+8 
           7370       1.6032e+8 
           7390      1.58702e+8 
           7410      1.57078e+8 
           7430      1.55496e+8 
           7450      1.53889e+8 
           7470      1.52154e+8 
           7490      1.50577e+8 
           7510      1.49282e+8 
           7530      1.47779e+8 
           7550      1.46363e+8 
           7570      1.44874e+8 
           7590      1.43019e+8 
           7610      1.41865e+8 
           7630      1.40579e+8 
           7650      1.39201e+8 
           7670      1.37881e+8 
           7690      1.36368e+8 
           7710      1.35097e+8 
           7730      1.33674e+8 
           7750      1.32533e+8 
           7770      1.31266e+8 
           7790      1.30003e+8 
           7810      1.28708e+8 
           7830      1.27498e+8 
           7850      1.26274e+8 
           7870      1.24977e+8 
           7890      1.23757e+8 
           7910       1.2268e+8 
           7930      1.21487e+8 
           7950      1.20394e+8 
           7970      1.19179e+8 
           7990      1.18105e+8 
           8010      1.16935e+8 
           8030      1.15798e+8 
           8050      1.14776e+8 
           8070      1.13699e+8 
           8090      1.12539e+8 
           8110      1.11222e+8 
           8130      1.10573e+8 
           8150      1.09419e+8 
           8170      1.08517e+8 
           8190      1.07229e+8 
           8210      1.05394e+8 
           8230      1.04259e+8 
           8250      1.03644e+8 
           8270      1.02278e+8 
           8290      1.01709e+8 
           8310      1.00854e+8 
           8330      9.98113e+7 
           8350      9.86475e+7 
           8370      9.79776e+7 
           8390      9.72381e+7 
           8410      9.63288e+7 
           8430      9.54641e+7 
           8450      9.43479e+7 
           8470      9.36245e+7 
           8490      9.30428e+7 
           8510      9.14928e+7 
           8530      9.16027e+7 
           8550      8.94843e+7 
           8570      9.06316e+7 
           8590      8.79892e+7 
