# Kurucz ODFNEW /NOVER (2003)
# teff = 7750 K (value for the effective temperature for the model. Temperatures are given in K)
# logg = 3.5 log(cm/s2) (value for Log(G) for the model.)
# meta = -1  (value for the Metallicity for the model.)
# lh = 1.25  (l/Hp where l is the  mixing length of the convective element and Hp is the pressure scale height)
# vtur = 2 km/s (Microturbulence velocity)
# alpha = 0.4  (Alpha)
#
# column 1: WAVELENGTH (ANGSTROM), Wavelength in Angstrom
# column 2: FLUX (ERG/CM2/S/A), Flux in erg/cm2/s/A
            338     5.90697e-24 
            348     1.80899e-23 
            357     1.21675e-22 
            366     7.42541e-22 
            375     4.13016e-21 
            385       2.517e-20 
            395     1.39114e-19 
            405      7.0309e-19 
            414     2.81543e-18 
            422     9.16142e-18 
            430     2.84493e-17 
            441      1.2578e-16 
            451     4.53944e-16 
            460      1.3694e-15 
            470     4.42968e-15 
            480     1.35884e-14 
            490     3.97002e-14 
            500     1.10641e-13 
            506     2.65748e-13 
            512     5.34087e-13 
            520     1.12672e-12 
            530     2.78785e-12 
            540     6.54186e-12 
            550     1.50293e-11 
            560     3.32257e-11 
            570     7.12412e-11 
            580     1.46694e-10 
            590     3.00669e-10 
            600     5.93631e-10 
            610      1.14365e-9 
            620      2.15159e-9 
            630      3.95903e-9 
            640      7.13523e-9 
            650      1.26046e-8 
            658      1.95959e-8 
            665      2.85402e-8 
            675      4.81271e-8 
            685      7.97745e-8 
            695      1.30086e-7 
            705      2.08593e-7 
            716      3.45398e-7 
            726      5.37673e-7 
            735      7.91569e-7 
            745      1.20161e-6 
            755      1.80148e-6 
            765      2.66821e-6 
            775      3.90657e-6 
            785      5.65725e-6 
            795      8.07314e-6 
            805       1.1477e-5 
            815      1.61264e-5 
            825      2.24297e-5 
            835      3.09132e-5 
            845       4.2235e-5 
            855      5.72083e-5 
            865       7.6869e-5 
            875     0.000102377 
            885      0.00013556 
            895      0.00017804 
            905     0.000231997 
            915        0.294139 
            925         1.43555 
            935          2.0255 
            945         2.81552 
            955         3.91598 
            965         5.03263 
            975         5.41737 
            985         7.77863 
            995         9.28976 
           1005         12.0741 
           1015         14.2782 
           1025         14.4976 
           1035         21.3572 
           1045         26.8479 
           1055         32.6085 
           1065         38.5789 
           1075         47.1814 
           1085         56.9146 
           1095         66.3834 
           1105         176.112 
           1115         464.145 
           1125         611.876 
           1135         810.412 
           1145         952.553 
           1155         972.842 
           1165         1158.98 
           1175         1194.92 
           1185            1335 
           1195          495.28 
           1205         328.776 
           1215         83.0822 
           1225         369.744 
           1235          993.48 
           1245         2001.28 
           1255         3359.18 
           1265         4026.91 
           1275         5775.07 
           1285         8170.79 
           1295         10244.3 
           1305         10210.7 
           1315         14148.9 
           1325         17040.6 
           1335         19504.2 
           1345         23180.3 
           1355         24821.5 
           1365         28256.3 
           1375         31298.1 
           1385           34267 
           1395         38655.9 
           1405         42872.9 
           1415         47524.3 
           1425         51866.9 
           1435         53325.4 
           1442         61559.7 
           1447         63301.4 
           1455         70607.9 
           1465         72410.1 
           1475         78835.9 
           1485         85800.1 
           1495           95078 
           1505          103965 
           1512          107142 
           1517          113008 
           1525          120911 
           1535          248128 
           1545          462519 
           1555          430804 
           1565          333457 
           1575          439721 
           1585          464751 
           1595          461622 
           1605          488120 
           1615          743240 
           1625      1.19764e+6 
           1635      2.03583e+6 
           1645      4.05739e+6 
           1655      3.06951e+6 
           1665      5.97445e+6 
           1672      4.11055e+6 
           1677       7.2386e+6 
           1685      9.11456e+6 
           1695      8.32574e+6 
           1705      9.76961e+6 
           1715      1.21196e+7 
           1725      1.23408e+7 
           1735      1.44423e+7 
           1745      1.38566e+7 
           1755      1.60561e+7 
           1765      1.24378e+7 
           1775      1.52814e+7 
           1785      1.56806e+7 
           1795      1.78752e+7 
           1805      1.54853e+7 
           1815      1.64656e+7 
           1825      1.46592e+7 
           1835      1.54005e+7 
           1845      1.35739e+7 
           1855       1.4907e+7 
           1865       1.5926e+7 
           1875      1.60009e+7 
           1885      1.63903e+7 
           1895      1.69448e+7 
           1905      1.56722e+7 
           1915       1.7354e+7 
           1925      1.77953e+7 
           1935      1.56378e+7 
           1945      1.85047e+7 
           1955      1.84687e+7 
           1967      1.94952e+7 
           1976      1.87912e+7 
           1984      1.83816e+7 
           1995      1.80933e+7 
           2005      1.72957e+7 
           2015      1.73462e+7 
           2025      1.59856e+7 
           2035      1.79749e+7 
           2045      1.91372e+7 
           2055      1.82672e+7 
           2065       1.8066e+7 
           2074      1.99151e+7 
           2078      2.04301e+7 
           2085      1.99127e+7 
           2095      1.91797e+7 
           2105      1.83356e+7 
           2115      1.86705e+7 
           2125      1.89782e+7 
           2135       1.5847e+7 
           2145      1.84278e+7 
           2155      1.82507e+7 
           2165      1.71373e+7 
           2175      1.70605e+7 
           2185      1.79194e+7 
           2195      1.92703e+7 
           2205      1.85381e+7 
           2215      1.68031e+7 
           2225      1.70618e+7 
           2235      1.94933e+7 
           2245      1.74805e+7 
           2255      1.67412e+7 
           2265      1.64667e+7 
           2275      1.78807e+7 
           2285      1.85254e+7 
           2295      1.70082e+7 
           2305      1.76607e+7 
           2315      1.76252e+7 
           2325      1.73854e+7 
           2335      1.62943e+7 
           2345      1.41943e+7 
           2355      1.74602e+7 
           2365      1.49143e+7 
           2375      1.66023e+7 
           2385      1.34466e+7 
           2395      1.50527e+7 
           2405      1.46073e+7 
           2415      1.48903e+7 
           2425      1.68524e+7 
           2435       1.6246e+7 
           2445      1.72357e+7 
           2455      1.68837e+7 
           2465      1.70161e+7 
           2475      1.58881e+7 
           2485      1.64315e+7 
           2495      1.58577e+7 
           2505       1.8221e+7 
           2513      1.59189e+7 
           2518      1.59353e+7 
           2525      1.46824e+7 
           2535      1.38944e+7 
           2545      1.38291e+7 
           2555      1.55193e+7 
           2565      1.56258e+7 
           2575      1.72256e+7 
           2585      1.75019e+7 
           2595       1.7228e+7 
           2605       1.6402e+7 
           2615      1.58978e+7 
           2625      1.77692e+7 
           2635      1.79422e+7 
           2645      2.04594e+7 
           2655      2.05787e+7 
           2665      1.86216e+7 
           2675      1.95166e+7 
           2685      1.98575e+7 
           2695      1.83675e+7 
           2705      1.88807e+7 
           2715      1.76757e+7 
           2725       1.7876e+7 
           2735      1.92851e+7 
           2745      1.59526e+7 
           2755      1.67299e+7 
           2765      1.74774e+7 
           2775      1.88643e+7 
           2785      1.76032e+7 
           2795      9.41338e+6 
           2805      1.15379e+7 
           2815       1.9396e+7 
           2825      1.99174e+7 
           2835        1.945e+7 
           2845      1.86768e+7 
           2855      1.73241e+7 
           2865      1.92197e+7 
           2875      1.88724e+7 
           2885      1.93139e+7 
           2895      1.87285e+7 
           2910      2.06843e+7 
           2930      1.99456e+7 
           2950      1.98354e+7 
           2970      2.02811e+7 
           2990      2.03621e+7 
           3010      2.05311e+7 
           3030      2.05232e+7 
           3050      2.04732e+7 
           3070      2.03916e+7 
           3090      2.06702e+7 
           3110      2.02712e+7 
           3130      2.03279e+7 
           3150      2.06978e+7 
           3170      2.06939e+7 
           3190      1.97111e+7 
           3210      2.01799e+7 
           3230      1.95607e+7 
           3250      2.01453e+7 
           3270      2.03886e+7 
           3290      2.06848e+7 
           3310       2.0842e+7 
           3330      2.03801e+7 
           3350      2.01056e+7 
           3370      2.00945e+7 
           3390      2.01154e+7 
           3410      2.04109e+7 
           3430      2.05831e+7 
           3450      2.03673e+7 
           3470      2.01823e+7 
           3490      2.01867e+7 
           3510       2.0464e+7 
           3530      2.04556e+7 
           3550      2.07032e+7 
           3570      2.01284e+7 
           3590      2.00552e+7 
           3610      2.01395e+7 
           3630      2.02355e+7 
           3640      2.00278e+7 
           3650      2.05327e+7 
           3670      2.03985e+7 
           3690      1.95308e+7 
           3710      2.14409e+7 
           3730      2.30125e+7 
           3750      2.95811e+7 
           3770      3.14867e+7 
           3790      3.80372e+7 
           3810      4.37975e+7 
           3830      3.49535e+7 
           3850      4.78559e+7 
           3870      5.28461e+7 
           3890       3.2096e+7 
           3910      5.26205e+7 
           3930      4.83153e+7 
           3950      5.26974e+7 
           3970      3.00649e+7 
           3990      5.15562e+7 
           4010      5.69191e+7 
           4030      5.69331e+7 
           4050      5.62872e+7 
           4070      5.38204e+7 
           4090      4.37421e+7 
           4110      3.40308e+7 
           4130       5.1665e+7 
           4150       5.3896e+7 
           4170      5.36121e+7 
           4190      5.31272e+7 
           4210      5.29191e+7 
           4230       5.1784e+7 
           4250      5.16815e+7 
           4270      5.08287e+7 
           4290      4.98605e+7 
           4310      4.65048e+7 
           4330      3.72793e+7 
           4350      3.20715e+7 
           4370      4.66747e+7 
           4390      4.76285e+7 
           4410      4.72963e+7 
           4430      4.73232e+7 
           4450      4.70301e+7 
           4470      4.67968e+7 
           4490      4.63584e+7 
           4510      4.63853e+7 
           4530       4.5402e+7 
           4550      4.46834e+7 
           4570      4.50869e+7 
           4590      4.43408e+7 
           4610      4.46447e+7 
           4630        4.378e+7 
           4650      4.37423e+7 
           4670      4.34237e+7 
           4690      4.26157e+7 
           4710      4.13646e+7 
           4730      4.20966e+7 
           4750      4.17596e+7 
           4770      4.12313e+7 
           4790       4.0671e+7 
           4810      3.99068e+7 
           4830      3.82609e+7 
           4850      3.08879e+7 
           4870      2.51911e+7 
           4890      3.62801e+7 
           4910      3.79056e+7 
           4930      3.76064e+7 
           4950      3.77414e+7 
           4970      3.77417e+7 
           4990      3.71327e+7 
           5010       3.6331e+7 
           5030      3.66025e+7 
           5050      3.61433e+7 
           5070        3.608e+7 
           5090      3.57359e+7 
           5110      3.54726e+7 
           5130      3.49947e+7 
           5150      3.45686e+7 
           5170      3.36237e+7 
           5190      3.34085e+7 
           5210        3.353e+7 
           5230      3.30674e+7 
           5250      3.33039e+7 
           5270      3.21509e+7 
           5290      3.26447e+7 
           5310      3.22349e+7 
           5330      3.15558e+7 
           5350      3.18178e+7 
           5370      3.14023e+7 
           5390      3.11437e+7 
           5410      3.06874e+7 
           5430      3.05754e+7 
           5450      3.03958e+7 
           5470      3.01765e+7 
           5490      2.99295e+7 
           5510      2.97114e+7 
           5530      2.93503e+7 
           5550      2.92663e+7 
           5570      2.89217e+7 
           5590      2.85488e+7 
           5610      2.84066e+7 
           5630      2.82812e+7 
           5650      2.80129e+7 
           5670      2.77207e+7 
           5690      2.75448e+7 
           5710      2.72898e+7 
           5730      2.71455e+7 
           5750      2.68613e+7 
           5770      2.66675e+7 
           5790      2.64341e+7 
           5810       2.6229e+7 
           5830      2.60172e+7 
           5850       2.5767e+7 
           5870      2.55644e+7 
           5890      2.51174e+7 
           5910      2.51505e+7 
           5930      2.49436e+7 
           5950      2.47294e+7 
           5970      2.45386e+7 
           5990      2.43162e+7 
           6010      2.41035e+7 
           6030      2.39066e+7 
           6050      2.37251e+7 
           6070      2.35598e+7 
           6090      2.33525e+7 
           6110      2.31464e+7 
           6130      2.28673e+7 
           6150      2.26192e+7 
           6170      2.24322e+7 
           6190      2.24271e+7 
           6210      2.22487e+7 
           6230      2.20304e+7 
           6250      2.17411e+7 
           6270      2.17243e+7 
           6290      2.15531e+7 
           6310      2.13438e+7 
           6330      2.11856e+7 
           6350      2.09319e+7 
           6370       2.0795e+7 
           6390      2.06946e+7 
           6410      2.04758e+7 
           6430      2.03486e+7 
           6450      2.00162e+7 
           6470      1.99196e+7 
           6490        1.967e+7 
           6510      1.94587e+7 
           6530      1.89041e+7 
           6550        1.672e+7 
           6570        1.352e+7 
           6590      1.79681e+7 
           6610       1.8626e+7 
           6630      1.86912e+7 
           6650      1.86199e+7 
           6670      1.85025e+7 
           6690      1.84029e+7 
           6710        1.827e+7 
           6730      1.81299e+7 
           6750      1.79557e+7 
           6770      1.78654e+7 
           6790      1.77268e+7 
           6810      1.75927e+7 
           6830      1.74527e+7 
           6850      1.73212e+7 
           6870      1.71998e+7 
           6890      1.70715e+7 
           6910      1.69428e+7 
           6930      1.68122e+7 
           6950      1.66891e+7 
           6970      1.65617e+7 
           6990      1.64431e+7 
           7010      1.62789e+7 
           7030      1.61872e+7 
           7050      1.60758e+7 
           7070      1.59578e+7 
           7090      1.58424e+7 
           7110      1.56491e+7 
           7130      1.55918e+7 
           7150      1.54656e+7 
           7170      1.53582e+7 
           7190      1.52416e+7 
           7210      1.51339e+7 
           7230      1.50287e+7 
           7250      1.49108e+7 
           7270      1.48217e+7 
           7290      1.46873e+7 
           7310      1.45993e+7 
           7330      1.44847e+7 
           7350      1.43983e+7 
           7370      1.42981e+7 
           7390      1.41822e+7 
           7410      1.40495e+7 
           7430      1.39562e+7 
           7450      1.38684e+7 
           7470      1.37585e+7 
           7490      1.36636e+7 
           7510      1.35829e+7 
           7530      1.34929e+7 
           7550      1.34064e+7 
           7570      1.33027e+7 
           7590      1.32144e+7 
           7610       1.3119e+7 
           7630       1.3029e+7 
           7650      1.29281e+7 
           7670       1.2823e+7 
           7690      1.27366e+7 
           7710      1.26535e+7 
           7730      1.25755e+7 
           7750      1.24793e+7 
           7770      1.22111e+7 
           7790      1.23199e+7 
           7810      1.22284e+7 
           7830      1.21372e+7 
           7850      1.20454e+7 
           7870      1.19521e+7 
           7890      1.18589e+7 
           7910      1.18014e+7 
           7930      1.16922e+7 
           7950      1.16179e+7 
           7970      1.15728e+7 
           7990      1.14535e+7 
           8010      1.14111e+7 
           8030      1.13286e+7 
           8050      1.12532e+7 
           8070       1.1179e+7 
           8090      1.11019e+7 
           8110      1.10317e+7 
           8130      1.09604e+7 
           8150      1.08857e+7 
           8170      1.08122e+7 
           8190      1.06825e+7 
           8210      1.06439e+7 
           8230      1.05678e+7 
           8250      1.04917e+7 
           8270      1.04834e+7 
           8290      1.04154e+7 
           8310      1.03375e+7 
           8330      1.02222e+7 
           8350      1.02041e+7 
           8370      1.01263e+7 
           8390      1.00337e+7 
           8410      9.95673e+6 
           8430      9.89894e+6 
           8450      9.76085e+6 
           8470      9.59403e+6 
           8490      9.79976e+6 
           8510      9.22263e+6 
           8530      9.76243e+6 
           8550      8.65675e+6 
           8570      9.80026e+6 
           8590       9.1946e+6 
           8610      8.94256e+6 
           8630      9.80003e+6 
           8650      9.48035e+6 
           8670      7.92512e+6 
           8690      9.54095e+6 
           8710      9.80953e+6 
           8730      9.49524e+6 
           8750      7.74888e+6 
           8770      9.12669e+6 
           8790      9.66494e+6 
           8810      9.65606e+6 
           8830       9.4877e+6 
           8850      8.70173e+6 
           8870      7.47455e+6 
           8890      9.10028e+6 
           8910      9.36792e+6 
           8930       9.3912e+6 
           8950      9.40007e+6 
           8970      9.25519e+6 
           8990      8.89382e+6 
           9010      7.31693e+6 
           9030      7.98404e+6 
           9050      8.85494e+6 
           9070      8.90935e+6 
           9090      8.84648e+6 
           9110      8.93705e+6 
           9130      8.94043e+6 
           9150      8.87574e+6 
           9170      8.77255e+6 
           9190      8.58676e+6 
           9210      8.05741e+6 
           9230      6.50753e+6 
           9250      7.79723e+6 
           9270       8.2384e+6 
           9290      8.44393e+6 
           9310      8.44506e+6 
           9330       8.4102e+6 
           9350      8.37167e+6 
           9370      8.32567e+6 
