# Kurucz ODFNEW /NOVER (2003)
# teff = 27000 K (value for the effective temperature for the model. Temperatures are given in K)
# logg = 4 log(cm/s2) (value for Log(G) for the model.)
# meta = 0  (value for the Metallicity for the model.)
# lh = 1.25  (l/Hp where l is the  mixing length of the convective element and Hp is the pressure scale height)
# vtur = 2 km/s (Microturbulence velocity)
# alpha = 0.4  (Alpha)
#
# column 1: WAVELENGTH (ANGSTROM), Wavelength in Angstrom
# column 2: FLUX (ERG/CM2/S/A), Flux in erg/cm2/s/A
          147.2     3.37334e-12 
            151     1.25153e-11 
          155.2     4.98035e-11 
          158.8     1.54442e-10 
            162     4.06961e-10 
            166      1.30316e-9 
          170.3      4.30038e-9 
          173.4      9.89412e-9 
          176.8      2.38344e-8 
          180.2      5.57123e-8 
          181.7      8.02425e-8 
          186.1      2.27409e-7 
            191      6.89505e-7 
          193.9      1.29661e-6 
          198.4      3.34067e-6 
          201.8      6.65256e-6 
            205      1.24749e-5 
          210.5      3.52641e-5 
          216.2      9.81267e-5 
          219.8     0.000182446 
            223     0.000311526 
          226.8      0.00058417 
            230       0.0304894 
            234       0.0667189 
            240        0.143994 
          246.5        0.321454 
          252.4        0.648779 
          256.8         1.02371 
            260         1.58416 
            264         2.35667 
          268.5         3.84969 
          273.5         6.35334 
          278.5         10.1596 
            284          19.092 
            290         32.1671 
            296         53.2829 
            301         79.2662 
            308         147.111 
            318         330.389 
            328         638.399 
            338         1282.86 
            348          2382.8 
            357           13221 
            366         30370.4 
            375         43881.4 
            385         73114.4 
            395          167309 
            405          238796 
            414          365309 
            422          466797 
            430          633879 
            441          899687 
            451      1.17825e+6 
            460      1.46819e+6 
            470      1.98529e+6 
            480      2.57056e+6 
            490      3.33502e+6 
            500      4.23519e+6 
            506      1.69078e+7 
            512      1.09409e+8 
            520      1.12689e+8 
            530      1.22084e+8 
            540      1.19706e+8 
            550      1.74827e+8 
            560      2.08378e+8 
            570      2.34456e+8 
            580      2.16575e+8 
            590      2.75172e+8 
            600      2.77158e+8 
            610      3.29772e+8 
            620      3.62999e+8 
            630       3.7559e+8 
            640      3.43536e+8 
            650      2.96604e+8 
            658      3.78162e+8 
            665      4.47083e+8 
            675      4.63692e+8 
            685      4.48422e+8 
            695      5.94757e+8 
            705      5.56213e+8 
            716      6.62291e+8 
            726      6.58195e+8 
            735      6.90983e+8 
            745      7.68629e+8 
            755      7.96384e+8 
            765      8.47347e+8 
            775      8.96122e+8 
            785      9.49183e+8 
            795      9.61874e+8 
            805      9.82133e+8 
            815      9.93287e+8 
            825      1.07541e+9 
            835      8.76356e+8 
            845       1.0796e+9 
            855      1.09021e+9 
            865      1.14943e+9 
            875      1.20243e+9 
            885      1.28282e+9 
            895      1.32782e+9 
            905      1.30757e+9 
            915      1.73897e+9 
            925     1.06526e+10 
            935     2.18895e+10 
            945     3.57925e+10 
            955     4.11896e+10 
            965     4.68957e+10 
            975     1.05462e+10 
            985     3.72775e+10 
            995     3.54988e+10 
           1005     3.99696e+10 
           1015     4.16067e+10 
           1025     2.61291e+10 
           1035     3.54565e+10 
           1045     4.83838e+10 
           1055      4.4604e+10 
           1065     3.51445e+10 
           1075     3.99965e+10 
           1085     3.68945e+10 
           1095      4.0613e+10 
           1105     3.64133e+10 
           1115     3.46753e+10 
           1125     2.57005e+10 
           1135     3.60843e+10 
           1145     3.28016e+10 
           1155     3.29844e+10 
           1165     3.30257e+10 
           1175     1.95038e+10 
           1185     3.04769e+10 
           1195     2.83413e+10 
           1205     1.98571e+10 
           1215     1.76199e+10 
           1225     2.66237e+10 
           1235      2.9593e+10 
           1245     2.85119e+10 
           1255     2.81861e+10 
           1265     2.87027e+10 
           1275     2.95822e+10 
           1285     2.91806e+10 
           1295     2.07045e+10 
           1305     2.26654e+10 
           1315     2.83502e+10 
           1325     2.65612e+10 
           1335     2.58879e+10 
           1345     2.55335e+10 
           1355     2.54925e+10 
           1365     2.34785e+10 
           1375     2.25644e+10 
           1385     2.14169e+10 
           1395     1.29836e+10 
           1405     1.51052e+10 
           1415     1.95249e+10 
           1425      1.8788e+10 
           1435      1.9751e+10 
           1442     2.01938e+10 
           1447     1.98656e+10 
           1455     1.90338e+10 
           1465     1.77129e+10 
           1475     1.81124e+10 
           1485     1.78232e+10 
           1495     1.73546e+10 
           1505     1.57862e+10 
           1512     1.44481e+10 
           1517     1.48514e+10 
           1525     1.50833e+10 
           1535     1.26904e+10 
           1545     1.20377e+10 
           1555     1.16783e+10 
           1565     1.28047e+10 
           1575     1.36676e+10 
           1585     1.35667e+10 
           1595     1.35248e+10 
           1605     1.34412e+10 
           1615     1.29589e+10 
           1625     1.28788e+10 
           1635     1.35108e+10 
           1645     1.35092e+10 
           1655     1.33208e+10 
           1665     1.33333e+10 
           1672     1.26162e+10 
           1677     1.41699e+10 
           1685     1.35381e+10 
           1695     1.28025e+10 
           1705     1.24825e+10 
           1715     1.18212e+10 
           1725     1.14983e+10 
           1735     1.19055e+10 
           1745     1.17393e+10 
           1755     1.16857e+10 
           1765     1.15884e+10 
           1775     1.08173e+10 
           1785     1.09928e+10 
           1795     1.11756e+10 
           1805     1.12361e+10 
           1815     1.01879e+10 
           1825     1.04936e+10 
           1835     1.01905e+10 
           1845      9.26909e+9 
           1855      9.50028e+9 
           1865      9.61248e+9 
           1875      9.75754e+9 
           1885      8.79432e+9 
           1895      8.20805e+9 
           1905       8.8331e+9 
           1915      8.35544e+9 
           1925      7.87471e+9 
           1935      8.39108e+9 
           1945      8.58276e+9 
           1955      7.67421e+9 
           1967      8.29915e+9 
           1976      8.71222e+9 
           1984       8.0491e+9 
           1995      7.92244e+9 
           2005      8.15839e+9 
           2015      8.09701e+9 
           2025      8.23607e+9 
           2035      7.55401e+9 
           2045      7.65228e+9 
           2055       7.1365e+9 
           2065      7.10173e+9 
           2074      7.41692e+9 
           2078      6.85402e+9 
           2085      7.20394e+9 
           2095      6.91534e+9 
           2105      7.17916e+9 
           2115      7.19902e+9 
           2125      7.22553e+9 
           2135      7.09519e+9 
           2145      6.75153e+9 
           2155      6.99769e+9 
           2165      6.91647e+9 
           2175        6.823e+9 
           2185      6.63175e+9 
           2195      6.68992e+9 
           2205      6.65704e+9 
           2215      6.53626e+9 
           2225      6.37399e+9 
           2235      6.25803e+9 
           2245      6.29105e+9 
           2255      6.10239e+9 
           2265      6.13704e+9 
           2275      6.04696e+9 
           2285      5.97423e+9 
           2295      5.38577e+9 
           2305      5.76876e+9 
           2315      5.63531e+9 
           2325      5.57732e+9 
           2335       5.4352e+9 
           2345      5.48286e+9 
           2355      5.42247e+9 
           2365      5.37038e+9 
           2375       5.2423e+9 
           2385       5.1889e+9 
           2395      5.11505e+9 
           2405      5.05267e+9 
           2415      4.96932e+9 
           2425      4.95077e+9 
           2435      4.81876e+9 
           2445      4.80419e+9 
           2455      4.77989e+9 
           2465      4.71136e+9 
           2475      4.62515e+9 
           2485      4.49277e+9 
           2495      3.47546e+9 
           2505       4.2896e+9 
           2513      4.20542e+9 
           2518       4.3068e+9 
           2525      4.32591e+9 
           2535      4.30205e+9 
           2545      4.10736e+9 
           2555      4.15809e+9 
           2565      4.08748e+9 
           2575      4.09721e+9 
           2585      4.04404e+9 
           2595      4.00331e+9 
           2605      3.97113e+9 
           2615      3.90556e+9 
           2625      3.87602e+9 
           2635      3.83027e+9 
           2645      3.77611e+9 
           2655      3.73976e+9 
           2665      3.60592e+9 
           2675      3.60455e+9 
           2685      3.60152e+9 
           2695      3.47588e+9 
           2705      3.41877e+9 
           2715      3.41504e+9 
           2725      3.39079e+9 
           2735      3.35662e+9 
           2745      3.30476e+9 
           2755      3.28359e+9 
           2765      3.23382e+9 
           2775      3.24876e+9 
           2785      3.18904e+9 
           2795      3.06755e+9 
           2805      3.10073e+9 
           2815      3.10127e+9 
           2825      3.05391e+9 
           2835      2.95947e+9 
           2845      2.98986e+9 
           2855      2.92948e+9 
           2865      2.91705e+9 
           2875      2.88002e+9 
           2885      2.85176e+9 
           2895       2.8071e+9 
           2910      2.73704e+9 
           2930      2.70871e+9 
           2950      2.62886e+9 
           2970      2.58776e+9 
           2990      2.52271e+9 
           3010      2.42281e+9 
           3030       2.4032e+9 
           3050       2.3711e+9 
           3070      2.33835e+9 
           3090      2.23333e+9 
           3110      2.23246e+9 
           3130      2.16803e+9 
           3150      2.13596e+9 
           3170      2.08244e+9 
           3190      2.03934e+9 
           3210      2.00991e+9 
           3230       1.9561e+9 
           3250      1.92996e+9 
           3270      1.88271e+9 
           3290      1.84541e+9 
           3310      1.81094e+9 
           3330      1.76941e+9 
           3350      1.73875e+9 
           3370      1.70042e+9 
           3390      1.67707e+9 
           3410      1.64508e+9 
           3430      1.61202e+9 
           3450      1.57418e+9 
           3470      1.54457e+9 
           3490      1.51284e+9 
           3510      1.48905e+9 
           3530      1.46953e+9 
           3550      1.43957e+9 
           3570      1.41692e+9 
           3590      1.37665e+9 
           3610       1.3563e+9 
           3630      1.33133e+9 
           3640      1.32872e+9 
           3650      1.30716e+9 
           3670      1.29237e+9 
           3690       1.2657e+9 
           3710      1.21574e+9 
           3730      1.17173e+9 
           3750      1.21068e+9 
           3770      1.19357e+9 
           3790      1.23976e+9 
           3810      1.27635e+9 
           3830      1.13469e+9 
           3850      1.27741e+9 
           3870      1.25285e+9 
           3890      1.07538e+9 
           3910      1.25401e+9 
           3930      1.21098e+9 
           3950      1.19324e+9 
           3970      9.96579e+8 
           3990      1.15915e+9 
           4010      1.15005e+9 
           4030      1.09575e+9 
           4050      1.11075e+9 
           4070      1.05474e+9 
           4090      9.93908e+8 
           4110       9.0299e+8 
           4130      1.01007e+9 
           4150      1.00331e+9 
           4170       1.0009e+9 
           4190       9.8628e+8 
           4210      9.77803e+8 
           4230      9.55462e+8 
           4250      9.26488e+8 
           4270      9.01073e+8 
           4290      8.85711e+8 
           4310      8.59643e+8 
           4330      8.07233e+8 
           4350      7.45216e+8 
           4370      8.21818e+8 
           4390      8.16106e+8 
           4410      8.08507e+8 
           4430      8.03642e+8 
           4450      7.87608e+8 
           4470      7.56555e+8 
           4490      7.64723e+8 
           4510      7.58493e+8 
           4530      7.47698e+8 
           4550      7.36044e+8 
           4570      7.23068e+8 
           4590      7.09646e+8 
           4610      6.93344e+8 
           4630      6.84379e+8 
           4650      6.58207e+8 
           4670      6.62307e+8 
           4690      6.56824e+8 
           4710      6.30574e+8 
           4730      6.37781e+8 
           4750      6.26143e+8 
           4770      6.25374e+8 
           4790      6.14629e+8 
           4810      6.01322e+8 
           4830      5.88892e+8 
           4850      5.58291e+8 
           4870      5.05109e+8 
           4890      5.65029e+8 
           4910      5.58685e+8 
           4930      5.40862e+8 
           4950      5.39529e+8 
           4970      5.38078e+8 
           4990      5.29371e+8 
           5010      5.08478e+8 
           5030      5.12408e+8 
           5050      5.01681e+8 
           5070      4.99767e+8 
           5090      4.90933e+8 
           5110      4.83346e+8 
           5130      4.74532e+8 
           5150       4.6885e+8 
           5170      4.63313e+8 
           5190      4.57777e+8 
           5210      4.50147e+8 
           5230      4.45279e+8 
           5250        4.392e+8 
           5270      4.32088e+8 
           5290      4.27185e+8 
           5310      4.20967e+8 
           5330        4.154e+8 
           5350      4.09233e+8 
           5370      4.04427e+8 
           5390      3.98189e+8 
           5410      3.93281e+8 
           5430      3.87821e+8 
           5450      3.82164e+8 
           5470      3.77184e+8 
           5490      3.72491e+8 
           5510      3.68104e+8 
           5530      3.62539e+8 
           5550      3.58475e+8 
           5570      3.53538e+8 
           5590      3.49072e+8 
           5610      3.44301e+8 
           5630      3.40195e+8 
           5650      3.34427e+8 
           5670      3.29014e+8 
           5690      3.23621e+8 
           5710      3.21405e+8 
           5730      3.18075e+8 
           5750      3.12664e+8 
           5770      3.10512e+8 
           5790      3.06325e+8 
           5810       3.0249e+8 
           5830      2.98013e+8 
           5850      2.94757e+8 
           5870      2.83753e+8 
           5890      2.85413e+8 
           5910      2.82945e+8 
           5930      2.79251e+8 
           5950      2.75589e+8 
           5970      2.73777e+8 
           5990      2.69243e+8 
           6010      2.66766e+8 
           6030       2.6302e+8 
           6050       2.6008e+8 
           6070      2.57285e+8 
           6090      2.54186e+8 
           6110      2.51132e+8 
           6130      2.48253e+8 
           6150      2.44161e+8 
           6170      2.41591e+8 
           6190      2.39246e+8 
           6210      2.36593e+8 
           6230      2.33863e+8 
           6250      2.30672e+8 
           6270       2.2811e+8 
           6290      2.25605e+8 
           6310      2.22644e+8 
           6330      2.20393e+8 
           6350      2.17157e+8 
           6370      2.15211e+8 
           6390      2.12676e+8 
           6410      2.10214e+8 
           6430      2.07997e+8 
           6450      2.05532e+8 
           6470      2.02418e+8 
           6490      2.00278e+8 
           6510      1.98249e+8 
           6530      1.95137e+8 
           6550      1.89047e+8 
           6570      1.69108e+8 
           6590      1.87445e+8 
           6610      1.87183e+8 
           6630      1.85404e+8 
           6650      1.83064e+8 
           6670      1.79766e+8 
           6690      1.77851e+8 
           6710       1.7737e+8 
           6730      1.74895e+8 
           6750       1.7362e+8 
           6770      1.71733e+8 
           6790       1.6877e+8 
           6810      1.67772e+8 
           6830      1.65724e+8 
           6850      1.64276e+8 
           6870      1.62467e+8 
           6890      1.60422e+8 
           6910      1.58351e+8 
           6930      1.57305e+8 
           6950      1.55691e+8 
           6970      1.54031e+8 
           6990      1.52349e+8 
           7010      1.50699e+8 
           7030      1.49073e+8 
           7050      1.47546e+8 
           7070      1.43788e+8 
           7090      1.44462e+8 
           7110       1.4222e+8 
           7130      1.40815e+8 
           7150      1.39933e+8 
           7170      1.38523e+8 
           7190      1.37127e+8 
           7210        1.357e+8 
           7230      1.32637e+8 
           7250       1.3253e+8 
           7270      1.31538e+8 
           7290       1.2918e+8 
           7310      1.28826e+8 
           7330      1.27493e+8 
           7350      1.26229e+8 
           7370      1.24983e+8 
           7390      1.23714e+8 
           7410       1.2247e+8 
           7430      1.21177e+8 
           7450      1.19985e+8 
           7470      1.17979e+8 
           7490      1.17498e+8 
           7510      1.16392e+8 
           7530      1.15143e+8 
           7550      1.14151e+8 
           7570      1.13029e+8 
           7590      1.11885e+8 
           7610      1.10543e+8 
           7630      1.09692e+8 
           7650      1.08598e+8 
           7670      1.07584e+8 
           7690      1.06509e+8 
           7710      1.05463e+8 
           7730      1.04357e+8 
           7750      1.03461e+8 
           7770       1.0205e+8 
           7790      1.01483e+8 
           7810      1.00457e+8 
           7830      9.95454e+7 
           7850      9.86108e+7 
           7870      9.74534e+7 
           7890      9.63487e+7 
           7910      9.57718e+7 
           7930       9.4822e+7 
           7950      9.38746e+7 
           7970      9.29533e+7 
           7990      9.20283e+7 
           8010       9.1217e+7 
           8030        9.036e+7 
           8050      8.95744e+7 
           8070      8.87897e+7 
           8090      8.78389e+7 
           8110      8.64783e+7 
           8130      8.63554e+7 
           8150      8.54784e+7 
           8170      8.48234e+7 
           8190      8.34941e+7 
           8210      8.28363e+7 
           8230      8.20226e+7 
           8250      8.17029e+7 
           8270      8.00082e+7 
           8290      8.00776e+7 
           8310      7.94581e+7 
           8330      7.87566e+7 
           8350      7.76666e+7 
           8370      7.71023e+7 
           8390       7.6612e+7 
           8410      7.58539e+7 
           8430       7.5187e+7 
           8450      7.39081e+7 
           8470      7.37486e+7 
           8490        7.302e+7 
           8510      7.21622e+7 
           8530      7.18345e+7 
           8550      7.02723e+7 
           8570       7.1263e+7 
           8590      6.86187e+7 
