# Kurucz ODFNEW /NOVER (2003)
# teff = 19000 K (value for the effective temperature for the model. Temperatures are given in K)
# logg = 4 log(cm/s2) (value for Log(G) for the model.)
# meta = -1  (value for the Metallicity for the model.)
# lh = 1.25  (l/Hp where l is the  mixing length of the convective element and Hp is the pressure scale height)
# vtur = 2 km/s (Microturbulence velocity)
# alpha = 0  (Alpha)
#
# column 1: WAVELENGTH (ANGSTROM), Wavelength in Angstrom
# column 2: FLUX (ERG/CM2/S/A), Flux in erg/cm2/s/A
          147.2     2.09369e-21 
            151     1.43438e-20 
          155.2     1.07576e-19 
          158.8     5.56397e-19 
            162     2.26075e-18 
            166     1.21182e-17 
          170.3     6.76609e-17 
          173.4     2.22072e-16 
          176.8     7.80474e-16 
          180.2     2.62012e-15 
          181.7     4.40814e-15 
          186.1      1.9359e-14 
            191      9.2985e-14 
          193.9     2.26676e-13 
          198.4      8.5931e-13 
          201.8     2.26491e-12 
            205     5.48147e-12 
          210.5     2.35032e-11 
          216.2     9.83604e-11 
          219.8     2.33881e-10 
            223     4.93099e-10 
          226.8      1.16392e-9 
            230      4.20676e-9 
            234      1.07901e-8 
            240      3.60967e-8 
          246.5      1.23939e-7 
          252.4      3.60108e-7 
          256.8      7.62471e-7 
            260      1.31944e-6 
            264      2.53466e-6 
          268.5      5.15203e-6 
          273.5      1.10145e-5 
          278.5      2.29329e-5 
            284      4.98003e-5 
            290     0.000112029 
            296     0.000243307 
            301     0.000453692 
            308      0.00103892 
            318      0.00323713 
            328      0.00930373 
            338       0.0250689 
            348       0.0636002 
            357        0.140247 
            366        0.297067 
            375        0.604616 
            385         1.27838 
            395         2.59395 
            405         5.07244 
            414         9.00545 
            422         14.6622 
            430         23.3882 
            441         43.2574 
            451         73.4804 
            460         115.819 
            470         187.853 
            480         297.933 
            490         463.043 
            500         705.524 
            506         5924.56 
            512         17206.5 
            520         22606.6 
            530         33448.3 
            540         39768.5 
            550         59959.1 
            560         77079.4 
            570          100499 
            580          108286 
            590          151493 
            600          198610 
            610          249557 
            620          303255 
            630          371851 
            640          438978 
            650          526833 
            658          622691 
            665          696092 
            675          809188 
            685          951970 
            695      1.13707e+6 
            705      1.31545e+6 
            716       1.5435e+6 
            726       1.7668e+6 
            735      2.00267e+6 
            745      2.30724e+6 
            755      2.63184e+6 
            765      2.97418e+6 
            775      3.37481e+6 
            785      3.80162e+6 
            795      4.23989e+6 
            805       4.7337e+6 
            815      5.23845e+6 
            825      5.84778e+6 
            835      6.36937e+6 
            845      7.07213e+6 
            855      7.75078e+6 
            865      8.55342e+6 
            875      9.39234e+6 
            885       1.0316e+7 
            895      1.12249e+7 
            905      1.19552e+7 
            915      1.99248e+7 
            925      8.40396e+7 
            935      3.00815e+8 
            945      1.55324e+9 
            955      3.50588e+9 
            965         4.87e+9 
            975      1.15889e+9 
            985      7.09873e+9 
            995      7.16681e+9 
           1005      7.75148e+9 
           1015      6.24466e+9 
           1025      9.15123e+8 
           1035      4.50011e+9 
           1045       8.3503e+9 
           1055       8.2002e+9 
           1065      7.22719e+9 
           1075      8.08177e+9 
           1085      7.39362e+9 
           1095      8.01044e+9 
           1105       7.3743e+9 
           1115      7.32686e+9 
           1125      6.82064e+9 
           1135      7.44028e+9 
           1145      6.87985e+9 
           1155      7.10943e+9 
           1165      7.24772e+9 
           1175      6.09753e+9 
           1185      7.05155e+9 
           1195      5.73157e+9 
           1205      3.74232e+9 
           1215      7.19173e+8 
           1225       3.8305e+9 
           1235      6.01814e+9 
           1245      6.38728e+9 
           1255      6.22945e+9 
           1265      5.95431e+9 
           1275      6.19036e+9 
           1285      6.15393e+9 
           1295      5.19147e+9 
           1305      5.02461e+9 
           1315      5.87504e+9 
           1325      5.62511e+9 
           1335      5.27672e+9 
           1345      5.53633e+9 
           1355      5.46107e+9 
           1365      5.21069e+9 
           1375      5.15211e+9 
           1385      5.16597e+9 
           1395      4.84128e+9 
           1405      4.93845e+9 
           1415      4.86777e+9 
           1425      4.83011e+9 
           1435      4.80858e+9 
           1442      4.84064e+9 
           1447      4.77468e+9 
           1455      4.67979e+9 
           1465       4.5338e+9 
           1475      4.47547e+9 
           1485      4.36552e+9 
           1495       4.3181e+9 
           1505      4.16261e+9 
           1512      3.95805e+9 
           1517      4.03644e+9 
           1525      4.01364e+9 
           1535      3.78676e+9 
           1545      3.86021e+9 
           1555       3.6825e+9 
           1565      3.68942e+9 
           1575       3.7548e+9 
           1585      3.71387e+9 
           1595      3.72402e+9 
           1605      3.59952e+9 
           1615      3.55609e+9 
           1625      3.48349e+9 
           1635      3.50246e+9 
           1645       3.4543e+9 
           1655      3.32066e+9 
           1665      3.43391e+9 
           1672      3.29418e+9 
           1677       3.3548e+9 
           1685      3.34359e+9 
           1695      3.24603e+9 
           1705      3.13537e+9 
           1715      3.03935e+9 
           1725      2.99662e+9 
           1735      3.03626e+9 
           1745       2.9564e+9 
           1755      2.99179e+9 
           1765      2.80066e+9 
           1775      2.85229e+9 
           1785      2.82846e+9 
           1795      2.84883e+9 
           1805      2.81724e+9 
           1815      2.70817e+9 
           1825      2.72484e+9 
           1835      2.66289e+9 
           1845      2.52597e+9 
           1855      2.46301e+9 
           1865      2.47198e+9 
           1875      2.53376e+9 
           1885      2.37771e+9 
           1895      2.28229e+9 
           1905      2.37684e+9 
           1915      2.28335e+9 
           1925      2.23651e+9 
           1935      2.26618e+9 
           1945      2.28974e+9 
           1955      2.16268e+9 
           1967      2.23345e+9 
           1976      2.26709e+9 
           1984       2.1673e+9 
           1995      2.10513e+9 
           2005      2.13048e+9 
           2015      2.11458e+9 
           2025      2.13738e+9 
           2035      2.05402e+9 
           2045      2.04002e+9 
           2055      1.97356e+9 
           2065      1.98842e+9 
           2074      2.01919e+9 
           2078      1.95323e+9 
           2085      1.96553e+9 
           2095      1.90166e+9 
           2105      1.91781e+9 
           2115      1.90082e+9 
           2125      1.91267e+9 
           2135      1.87388e+9 
           2145      1.83042e+9 
           2155      1.84032e+9 
           2165      1.80648e+9 
           2175      1.78513e+9 
           2185      1.76393e+9 
           2195      1.76338e+9 
           2205      1.72882e+9 
           2215      1.70058e+9 
           2225      1.66509e+9 
           2235      1.67247e+9 
           2245      1.65356e+9 
           2255      1.61893e+9 
           2265       1.6184e+9 
           2275      1.59903e+9 
           2285      1.59336e+9 
           2295      1.55254e+9 
           2305      1.54442e+9 
           2315      1.51916e+9 
           2325      1.50765e+9 
           2335      1.46941e+9 
           2345      1.43292e+9 
           2355      1.44686e+9 
           2365       1.4102e+9 
           2375      1.40931e+9 
           2385      1.37625e+9 
           2395       1.3835e+9 
           2405      1.35932e+9 
           2415      1.34434e+9 
           2425      1.34827e+9 
           2435      1.31669e+9 
           2445      1.31193e+9 
           2455      1.30852e+9 
           2465      1.28019e+9 
           2475      1.27023e+9 
           2485       1.2657e+9 
           2495      1.23373e+9 
           2505      1.24275e+9 
           2513      1.21123e+9 
           2518      1.22377e+9 
           2525      1.19963e+9 
           2535      1.17851e+9 
           2545      1.16915e+9 
           2555      1.17958e+9 
           2565      1.15987e+9 
           2575      1.16019e+9 
           2585      1.15124e+9 
           2595       1.1388e+9 
           2605      1.12913e+9 
           2615      1.11886e+9 
           2625      1.10658e+9 
           2635      1.09478e+9 
           2645      1.10272e+9 
           2655      1.09058e+9 
           2665       1.0708e+9 
           2675      1.06728e+9 
           2685      1.06102e+9 
           2695       1.0417e+9 
           2705      1.03818e+9 
           2715      1.02354e+9 
           2725      1.00666e+9 
           2735      1.00777e+9 
           2745      9.77043e+8 
           2755      9.72247e+8 
           2765      9.67888e+8 
           2775      9.72128e+8 
           2785      9.59768e+8 
           2795      9.29041e+8 
           2805       9.3732e+8 
           2815      9.37328e+8 
           2825      9.20224e+8 
           2835      9.04228e+8 
           2845      9.04353e+8 
           2855      8.99138e+8 
           2865      8.94295e+8 
           2875      8.83846e+8 
           2885      8.76824e+8 
           2895      8.69383e+8 
           2910      8.58041e+8 
           2930       8.3882e+8 
           2950      8.20385e+8 
           2970      8.11466e+8 
           2990      7.95253e+8 
           3010       7.8289e+8 
           3030      7.69963e+8 
           3050      7.56051e+8 
           3070      7.42634e+8 
           3090      7.29462e+8 
           3110      7.16721e+8 
           3130      7.05015e+8 
           3150      6.92749e+8 
           3170      6.80624e+8 
           3190      6.63935e+8 
           3210      6.57296e+8 
           3230      6.46256e+8 
           3250      6.35438e+8 
           3270      6.25399e+8 
           3290      6.14477e+8 
           3310      6.04976e+8 
           3330      5.94945e+8 
           3350      5.84371e+8 
           3370      5.75498e+8 
           3390      5.66171e+8 
           3410      5.57055e+8 
           3430      5.46767e+8 
           3450      5.36837e+8 
           3470      5.29228e+8 
           3490      5.20798e+8 
           3510      5.13748e+8 
           3530      5.06008e+8 
           3550      4.98141e+8 
           3570      4.91866e+8 
           3590      4.82279e+8 
           3610      4.75476e+8 
           3630      4.67563e+8 
           3640      4.65908e+8 
           3650      4.60672e+8 
           3670      4.55301e+8 
           3690      4.44043e+8 
           3710      4.32179e+8 
           3730      4.20111e+8 
           3750      4.64077e+8 
           3770      4.73453e+8 
           3790      5.11902e+8 
           3810      5.43134e+8 
           3830      4.63974e+8 
           3850       5.6627e+8 
           3870      5.78996e+8 
           3890      4.36054e+8 
           3910      5.71916e+8 
           3930      5.65061e+8 
           3950      5.55007e+8 
           3970       4.0759e+8 
           3990      5.31772e+8 
           4010      5.33814e+8 
           4030      5.02456e+8 
           4050      5.22885e+8 
           4070      5.10981e+8 
           4090      4.60076e+8 
           4110      3.91647e+8 
           4130      4.78396e+8 
           4150      4.77165e+8 
           4170      4.74007e+8 
           4190      4.68334e+8 
           4210      4.61195e+8 
           4230      4.53771e+8 
           4250      4.46465e+8 
           4270      4.37106e+8 
           4290      4.31607e+8 
           4310      4.21811e+8 
           4330      3.71447e+8 
           4350      3.34652e+8 
           4370      4.01095e+8 
           4390      3.88143e+8 
           4410      3.93813e+8 
           4430      3.86406e+8 
           4450      3.82541e+8 
           4470      3.59857e+8 
           4490      3.69141e+8 
           4510      3.65763e+8 
           4530      3.60062e+8 
           4550       3.5472e+8 
           4570      3.49583e+8 
           4590      3.44523e+8 
           4610      3.39431e+8 
           4630      3.34308e+8 
           4650      3.29295e+8 
           4670      3.24857e+8 
           4690      3.20311e+8 
           4710      3.11381e+8 
           4730      3.10286e+8 
           4750      3.05575e+8 
           4770      3.02405e+8 
           4790       2.9798e+8 
           4810      2.92707e+8 
           4830      2.86622e+8 
           4850      2.58285e+8 
           4870      2.26988e+8 
           4890      2.73408e+8 
           4910      2.72514e+8 
           4930      2.63301e+8 
           4950      2.66374e+8 
           4970      2.62816e+8 
           4990      2.59156e+8 
           5010      2.52078e+8 
           5030      2.52013e+8 
           5050      2.46386e+8 
           5070      2.45414e+8 
           5090      2.42107e+8 
           5110      2.38802e+8 
           5130       2.3557e+8 
           5150       2.3238e+8 
           5170      2.29472e+8 
           5190      2.26448e+8 
           5210      2.23033e+8 
           5230      2.20546e+8 
           5250      2.17666e+8 
           5270      2.14796e+8 
           5290      2.12085e+8 
           5310      2.09314e+8 
           5330      2.06593e+8 
           5350      2.03814e+8 
           5370      2.01384e+8 
           5390      1.98803e+8 
           5410      1.96254e+8 
           5430      1.93598e+8 
           5450      1.91266e+8 
           5470       1.8885e+8 
           5490      1.86552e+8 
           5510      1.84182e+8 
           5530      1.81904e+8 
           5550      1.79654e+8 
           5570      1.77419e+8 
           5590      1.75235e+8 
           5610      1.73018e+8 
           5630      1.70983e+8 
           5650      1.68606e+8 
           5670      1.66634e+8 
           5690      1.64685e+8 
           5710      1.62782e+8 
           5730      1.60822e+8 
           5750      1.58873e+8 
           5770      1.56993e+8 
           5790      1.55101e+8 
           5810      1.53243e+8 
           5830      1.51417e+8 
           5850      1.49635e+8 
           5870      1.43763e+8 
           5890      1.45818e+8 
           5910      1.44401e+8 
           5930      1.42711e+8 
           5950      1.40966e+8 
           5970      1.39399e+8 
           5990      1.37735e+8 
           6010      1.36194e+8 
           6030      1.34618e+8 
           6050      1.33081e+8 
           6070      1.31541e+8 
           6090      1.30039e+8 
           6110      1.28563e+8 
           6130      1.27104e+8 
           6150      1.25601e+8 
           6170      1.24234e+8 
           6190      1.22843e+8 
           6210      1.21457e+8 
           6230      1.20086e+8 
           6250      1.18711e+8 
           6270      1.17428e+8 
           6290      1.16121e+8 
           6310      1.14818e+8 
           6330      1.13567e+8 
           6350      1.12068e+8 
           6370      1.10948e+8 
           6390      1.09858e+8 
           6410      1.08651e+8 
           6430      1.07493e+8 
           6450       1.0632e+8 
           6470      1.05151e+8 
           6490      1.04012e+8 
           6510       1.0268e+8 
           6530      1.01063e+8 
           6550      9.53184e+7 
           6570      8.35448e+7 
           6590        9.688e+7 
           6610      9.71741e+7 
           6630      9.64687e+7 
           6650      9.55315e+7 
           6670      9.37062e+7 
           6690      9.27428e+7 
           6710      9.25505e+7 
           6730      9.15854e+7 
           6750        9.063e+7 
           6770      8.96926e+7 
           6790      8.87237e+7 
           6810      8.78378e+7 
           6830      8.69284e+7 
           6850      8.60362e+7 
           6870      8.51608e+7 
           6890      8.42862e+7 
           6910      8.34282e+7 
           6930      8.25629e+7 
           6950      8.17453e+7 
           6970      8.09123e+7 
           6990      8.00953e+7 
           7010      7.92863e+7 
           7030      7.84928e+7 
           7050      7.76918e+7 
           7070      7.58812e+7 
           7090      7.61656e+7 
           7110      7.54098e+7 
           7130      7.46613e+7 
           7150        7.392e+7 
           7170       7.3185e+7 
           7190      7.24731e+7 
           7210      7.17614e+7 
           7230      7.08489e+7 
           7250      7.03596e+7 
           7270      6.96786e+7 
           7290      6.85709e+7 
           7310       6.8326e+7 
           7330      6.76717e+7 
           7350      6.70194e+7 
           7370      6.63746e+7 
           7390      6.57371e+7 
           7410      6.51083e+7 
           7430      6.44792e+7 
           7450      6.38762e+7 
           7470      6.32632e+7 
           7490      6.26659e+7 
           7510      6.20601e+7 
           7530       6.1491e+7 
           7550      6.09125e+7 
           7570      6.03412e+7 
           7590      5.97752e+7 
           7610      5.92174e+7 
           7630      5.86654e+7 
           7650      5.81196e+7 
           7670      5.75805e+7 
           7690       5.7047e+7 
           7710      5.65207e+7 
           7730      5.59998e+7 
           7750      5.54847e+7 
           7770      5.48624e+7 
           7790      5.44737e+7 
           7810      5.39579e+7 
           7830       5.3486e+7 
           7850       5.3012e+7 
           7870      5.25325e+7 
           7890      5.20214e+7 
           7910      5.16093e+7 
           7930      5.11451e+7 
           7950      5.06663e+7 
           7970      5.02077e+7 
           7990      4.97431e+7 
           8010      4.93353e+7 
           8030      4.88807e+7 
           8050      4.84451e+7 
           8070      4.80178e+7 
           8090      4.75545e+7 
           8110      4.71478e+7 
           8130      4.67577e+7 
           8150      4.63027e+7 
           8170       4.5951e+7 
           8190      4.55157e+7 
           8210      4.50226e+7 
           8230      4.47122e+7 
           8250      4.43623e+7 
           8270      4.38473e+7 
           8290       4.3585e+7 
           8310      4.32281e+7 
           8330       4.2853e+7 
           8350      4.23519e+7 
           8370      4.20669e+7 
           8390      4.17505e+7 
           8410       4.1354e+7 
           8430      4.09465e+7 
           8450      4.04126e+7 
           8470      4.00571e+7 
           8490        3.989e+7 
           8510      3.91607e+7 
           8530      3.93635e+7 
           8550      3.78319e+7 
           8570        3.924e+7 
           8590      3.73278e+7 
