# Kurucz ODFNEW /NOVER (2003)
# teff = 7000 K (value for the effective temperature for the model. Temperatures are given in K)
# logg = 2 log(cm/s2) (value for Log(G) for the model.)
# meta = -4  (value for the Metallicity for the model.)
# lh = 1.25  (l/Hp where l is the  mixing length of the convective element and Hp is the pressure scale height)
# vtur = 2 km/s (Microturbulence velocity)
# alpha = 0.4  (Alpha)
#
# column 1: WAVELENGTH (ANGSTROM), Wavelength in Angstrom
# column 2: FLUX (ERG/CM2/S/A), Flux in erg/cm2/s/A
          147.2     1.73866e-35 
            151     1.65225e-35 
          155.2     1.56403e-35 
          158.8     1.49392e-35 
            162     1.43549e-35 
            166     1.36714e-35 
          170.3     1.29897e-35 
          173.4     1.25294e-35 
          176.8     1.20522e-35 
          180.2     1.16017e-35 
          181.7     1.14109e-35 
          186.1     1.08777e-35 
            191     1.03267e-35 
          193.9     1.00201e-35 
          198.4     9.57076e-36 
          201.8     9.25097e-36 
            205     8.96441e-36 
          210.5     8.50208e-36 
          216.2     8.05969e-36 
          219.8     7.79784e-36 
            223     7.57565e-36 
          226.8     7.32392e-36 
            230     7.12154e-36 
            234     6.88015e-36 
            240     6.54044e-36 
          246.5     6.20006e-36 
          252.4     5.91358e-36 
          256.8     5.71267e-36 
            260     5.57292e-36 
            264     5.40532e-36 
          268.5     5.22566e-36 
          273.5     5.03634e-36 
          278.5     4.85712e-36 
            284     4.67082e-36 
            290     4.47954e-36 
            296     4.29978e-36 
            301     4.15812e-36 
            308     3.97126e-36 
            318     3.72542e-36 
            328     3.49766e-23 
            338     4.46493e-22 
            348     4.28512e-21 
            357     2.91622e-20 
            366     1.79992e-19 
            375     1.01495e-18 
            385     6.28768e-18 
            395     3.54021e-17 
            405     1.82452e-16 
            414     7.43959e-16 
            422     2.46282e-15 
            430     7.78377e-15 
            441     3.52843e-14 
            451     1.30427e-13 
            460     4.02136e-13 
            470     1.33288e-12 
            480      4.1934e-12 
            490     1.25632e-11 
            500      3.5949e-11 
            506     6.61641e-11 
            512     1.19944e-10 
            520     2.59252e-10 
            530      6.5652e-10 
            540      1.60355e-9 
            550      3.78498e-9 
            560      8.65012e-9 
            570      1.91739e-8 
            580      4.12879e-8 
            590      8.64973e-8 
            600       1.7655e-7 
            610       3.5155e-7 
            620      6.83709e-7 
            630      1.30028e-6 
            640      2.42069e-6 
            650       4.4158e-6 
            658       7.0436e-6 
            665      1.04945e-5 
            675      1.82691e-5 
            685      3.12576e-5 
            695      5.26052e-5 
            705      8.71437e-5 
            716      0.00014922 
            726     0.000239657 
            735     0.000362772 
            745     0.000567811 
            755     0.000877477 
            765      0.00133955 
            775      0.00202099 
            785      0.00301487 
            795      0.00444887 
            805      0.00649659 
            815      0.00939236 
            825        0.013448 
            835       0.0190757 
            845       0.0268165 
            855       0.0373738 
            865       0.0516538 
            875       0.0708165 
            885        0.096339 
            895        0.130078 
            905        0.174362 
            915        0.349675 
            925         1.27867 
            935         2.15797 
            945         3.79233 
            955         5.93209 
            965         5.84174 
            975         3.52109 
            985         13.9862 
            995         16.3127 
           1005         15.9658 
           1015         9.82537 
           1025         13.8916 
           1035         19.9561 
           1045         41.1978 
           1055         59.9538 
           1065           80.25 
           1075         97.6424 
           1085         115.612 
           1095          128.17 
           1105         142.155 
           1115         154.216 
           1125         161.089 
           1135         165.311 
           1145         116.778 
           1155         84.2344 
           1165         67.8472 
           1175         58.2329 
           1185         369.103 
           1195         170.256 
           1205          156.21 
           1215         138.585 
           1225         202.021 
           1235         289.187 
           1245          105.05 
           1255         139.333 
           1265         185.709 
           1275         251.072 
           1285         363.194 
           1295         524.066 
           1305         800.721 
           1315         1242.87 
           1325         2144.36 
           1335         1934.14 
           1345         2351.98 
           1355         2852.93 
           1365         3413.81 
           1375         4078.29 
           1385         4791.84 
           1395         5699.85 
           1405         7117.12 
           1415         9949.47 
           1425         12092.8 
           1435         15115.8 
           1442         19219.1 
           1447         18485.5 
           1455         21905.9 
           1465         23931.9 
           1475         28410.2 
           1485         34013.2 
           1495         41953.9 
           1505         49185.5 
           1512         55548.4 
           1517         50283.2 
           1525         54684.8 
           1535         57500.1 
           1545         52593.2 
           1555         51699.3 
           1565         46090.9 
           1575         46461.2 
           1585         48024.2 
           1595         49957.6 
           1605         54149.9 
           1615           74493 
           1625          147674 
           1635          310025 
           1645          684107 
           1655          936905 
           1665      1.59485e+6 
           1672      1.80428e+6 
           1677      2.03225e+6 
           1685      2.31885e+6 
           1695      2.57244e+6 
           1705      2.79778e+6 
           1715      3.09584e+6 
           1725      3.23261e+6 
           1735      3.43937e+6 
           1745      3.49842e+6 
           1755      3.66403e+6 
           1765       3.6993e+6 
           1775      3.84499e+6 
           1785      3.93114e+6 
           1795       4.1247e+6 
           1805      4.14133e+6 
           1815      4.24301e+6 
           1825       4.3007e+6 
           1835      4.43945e+6 
           1845      4.39677e+6 
           1855      4.60185e+6 
           1865       4.7451e+6 
           1875      4.82985e+6 
           1885      4.92654e+6 
           1895      5.01274e+6 
           1905      4.99908e+6 
           1915      5.16643e+6 
           1925      5.29122e+6 
           1935      5.27299e+6 
           1945        5.461e+6 
           1955      5.53174e+6 
           1967      5.63192e+6 
           1976      5.62213e+6 
           1984      5.65689e+6 
           1995      5.80983e+6 
           2005       5.8239e+6 
           2015      5.84678e+6 
           2025      5.87351e+6 
           2035      6.05609e+6 
           2045      6.11078e+6 
           2055      6.06323e+6 
           2065      6.15104e+6 
           2074      6.32969e+6 
           2078      6.35097e+6 
           2085      6.37166e+6 
           2095      6.42574e+6 
           2105      6.48462e+6 
           2115      6.54152e+6 
           2125       6.5395e+6 
           2135      6.58963e+6 
           2145      6.70789e+6 
           2155      6.74199e+6 
           2165      6.68765e+6 
           2175      6.77362e+6 
           2185      6.87329e+6 
           2195      6.99565e+6 
           2205       6.9397e+6 
           2215      6.80984e+6 
           2225      6.96527e+6 
           2235      7.17458e+6 
           2245      7.15857e+6 
           2255      7.07492e+6 
           2265       7.0239e+6 
           2275      7.25191e+6 
           2285      7.31131e+6 
           2295      7.30138e+6 
           2305      7.39628e+6 
           2315      7.40704e+6 
           2325      7.45566e+6 
           2335      7.42303e+6 
           2345      7.22695e+6 
           2355      7.54678e+6 
           2365      7.34232e+6 
           2375      7.55579e+6 
           2385      7.23361e+6 
           2395      7.56148e+6 
           2405      7.60164e+6 
           2415       7.6454e+6 
           2425      7.91368e+6 
           2435      7.85072e+6 
           2445      7.93599e+6 
           2455      7.99586e+6 
           2465      7.94289e+6 
           2475      7.94649e+6 
           2485      7.95892e+6 
           2495      7.95214e+6 
           2505      8.14633e+6 
           2513       7.9818e+6 
           2518      8.00182e+6 
           2525      7.94215e+6 
           2535      7.97869e+6 
           2545      8.12085e+6 
           2555      8.33153e+6 
           2565      8.27872e+6 
           2575      8.38613e+6 
           2585      8.44033e+6 
           2595      8.42351e+6 
           2605      8.38284e+6 
           2615      8.36898e+6 
           2625      8.41304e+6 
           2635      8.52673e+6 
           2645      8.80486e+6 
           2655      8.82203e+6 
           2665      8.74534e+6 
           2675      8.80485e+6 
           2685      8.91236e+6 
           2695      8.90392e+6 
           2705      8.95817e+6 
           2715      8.85039e+6 
           2725       8.8855e+6 
           2735      8.95008e+6 
           2745        8.682e+6 
           2755      8.76948e+6 
           2765      8.96486e+6 
           2775      9.15036e+6 
           2785      9.15471e+6 
           2795      8.58489e+6 
           2805      8.91785e+6 
           2815      9.31148e+6 
           2825      9.33111e+6 
           2835      9.28087e+6 
           2845      9.32884e+6 
           2855      9.22339e+6 
           2865      9.30828e+6 
           2875      9.39405e+6 
           2885      9.38969e+6 
           2895      9.50474e+6 
           2910      9.56182e+6 
           2930      9.53354e+6 
           2950      9.55622e+6 
           2970      9.65815e+6 
           2990      9.68909e+6 
           3010      9.77822e+6 
           3030       9.8256e+6 
           3050       9.8713e+6 
           3070      9.85023e+6 
           3090      9.94724e+6 
           3110      9.98798e+6 
           3130      1.00196e+7 
           3150      1.00442e+7 
           3170      1.00877e+7 
           3190      1.00716e+7 
           3210      1.01475e+7 
           3230      1.01039e+7 
           3250       1.0195e+7 
           3270      1.02725e+7 
           3290       1.0314e+7 
           3310      1.03452e+7 
           3330      1.03344e+7 
           3350      1.03198e+7 
           3370      1.03675e+7 
           3390      1.03947e+7 
           3410      1.04701e+7 
           3430      1.04922e+7 
           3450      1.05073e+7 
           3470       1.0527e+7 
           3490      1.05527e+7 
           3510      1.05768e+7 
           3530      1.05975e+7 
           3550      1.06163e+7 
           3570      1.06218e+7 
           3590      1.06385e+7 
           3610      1.06537e+7 
           3630      1.06678e+7 
           3640      1.06721e+7 
           3650       1.0728e+7 
           3670        1.061e+7 
           3690      1.11137e+7 
           3710      1.40991e+7 
           3730      1.74267e+7 
           3750       2.3438e+7 
           3770      2.44949e+7 
           3790      2.80709e+7 
           3810      3.16361e+7 
           3830      2.63397e+7 
           3850      3.38898e+7 
           3870      3.62621e+7 
           3890       2.4122e+7 
           3910      3.59034e+7 
           3930      3.64365e+7 
           3950      3.55687e+7 
           3970      2.33932e+7 
           3990      3.45112e+7 
           4010      3.60398e+7 
           4030      3.59149e+7 
           4050      3.55748e+7 
           4070      3.48599e+7 
           4090      3.02994e+7 
           4110      2.44788e+7 
           4130      3.37197e+7 
           4150      3.40692e+7 
           4170      3.38905e+7 
           4190      3.36771e+7 
           4210      3.33983e+7 
           4230      3.31001e+7 
           4250      3.28101e+7 
           4270      3.24642e+7 
           4290      3.20947e+7 
           4310       3.1396e+7 
           4330      2.65997e+7 
           4350      2.31901e+7 
           4370      3.04845e+7 
           4390      3.07274e+7 
           4410      3.05771e+7 
           4430      3.04034e+7 
           4450      3.01498e+7 
           4470      2.99013e+7 
           4490      2.96542e+7 
           4510      2.94066e+7 
           4530      2.91604e+7 
           4550        2.891e+7 
           4570      2.86792e+7 
           4590      2.84459e+7 
           4610      2.82173e+7 
           4630      2.79829e+7 
           4650      2.77549e+7 
           4670       2.7528e+7 
           4690       2.7304e+7 
           4710       2.7076e+7 
           4730      2.68576e+7 
           4750       2.6637e+7 
           4770      2.64157e+7 
           4790      2.61348e+7 
           4810      2.58479e+7 
           4830      2.53226e+7 
           4850       2.2193e+7 
           4870       1.8669e+7 
           4890      2.44971e+7 
           4910      2.47902e+7 
           4930       2.4684e+7 
           4950      2.45541e+7 
           4970      2.43691e+7 
           4990      2.41741e+7 
           5010        2.398e+7 
           5030      2.37927e+7 
           5050      2.36046e+7 
           5070      2.34187e+7 
           5090       2.3235e+7 
           5110      2.30535e+7 
           5130      2.28727e+7 
           5150       2.2694e+7 
           5170      2.24919e+7 
           5190      2.23287e+7 
           5210      2.21659e+7 
           5230      2.19912e+7 
           5250       2.1824e+7 
           5270      2.16519e+7 
           5290      2.14871e+7 
           5310      2.13189e+7 
           5330      2.11539e+7 
           5350      2.09934e+7 
           5370      2.08308e+7 
           5390      2.06713e+7 
           5410      2.05136e+7 
           5430      2.03564e+7 
           5450      2.02009e+7 
           5470      2.00484e+7 
           5490      1.98963e+7 
           5510       1.9746e+7 
           5530       1.9596e+7 
           5550      1.94501e+7 
           5570      1.93034e+7 
           5590      1.91595e+7 
           5610       1.9016e+7 
           5630       1.8874e+7 
           5650      1.87335e+7 
           5670      1.85934e+7 
           5690      1.84548e+7 
           5710      1.83176e+7 
           5730      1.81819e+7 
           5750      1.80477e+7 
           5770      1.79137e+7 
           5790      1.77812e+7 
           5810      1.76501e+7 
           5830      1.75203e+7 
           5850      1.73919e+7 
           5870      1.72649e+7 
           5890      1.71359e+7 
           5910      1.70136e+7 
           5930      1.68905e+7 
           5950      1.67675e+7 
           5970      1.66459e+7 
           5990      1.65254e+7 
           6010      1.64062e+7 
           6030      1.62883e+7 
           6050      1.61715e+7 
           6070      1.60549e+7 
           6090      1.59405e+7 
           6110      1.58262e+7 
           6130      1.57131e+7 
           6150      1.56011e+7 
           6170      1.54902e+7 
           6190      1.53804e+7 
           6210      1.52708e+7 
           6230      1.51622e+7 
           6250      1.50557e+7 
           6270      1.49492e+7 
           6290      1.48438e+7 
           6310      1.47395e+7 
           6330      1.46362e+7 
           6350      1.45338e+7 
           6370      1.44316e+7 
           6390      1.43312e+7 
           6410      1.42309e+7 
           6430      1.41325e+7 
           6450      1.40332e+7 
           6470      1.39358e+7 
           6490      1.38125e+7 
           6510      1.36789e+7 
           6530      1.34653e+7 
           6550      1.24761e+7 
           6570      1.03039e+7 
           6590      1.30191e+7 
           6610      1.31845e+7 
           6630       1.3147e+7 
           6650      1.30919e+7 
           6670      1.30076e+7 
           6690       1.2919e+7 
           6710      1.28312e+7 
           6730      1.27443e+7 
           6750      1.26573e+7 
           6770      1.25719e+7 
           6790      1.24865e+7 
           6810      1.24027e+7 
           6830      1.23189e+7 
           6850      1.22366e+7 
           6870      1.21543e+7 
           6890      1.20727e+7 
           6910      1.19919e+7 
           6930      1.19118e+7 
           6950      1.18324e+7 
           6970      1.17538e+7 
           6990      1.16758e+7 
           7010      1.15978e+7 
           7030      1.15212e+7 
           7050      1.14453e+7 
           7070      1.13694e+7 
           7090      1.12941e+7 
           7110      1.12202e+7 
           7130      1.11462e+7 
           7150      1.10729e+7 
           7170      1.10002e+7 
           7190      1.09282e+7 
           7210      1.08567e+7 
           7230       1.0786e+7 
           7250      1.07151e+7 
           7270      1.06455e+7 
           7290      1.05765e+7 
           7310      1.05075e+7 
           7330      1.04397e+7 
           7350      1.03718e+7 
           7370      1.03052e+7 
           7390      1.02384e+7 
           7410      1.01723e+7 
           7430      1.01066e+7 
           7450      1.00423e+7 
           7470      9.97777e+6 
           7490      9.91381e+6 
           7510      9.85039e+6 
           7530       9.7875e+6 
           7550      9.72514e+6 
           7570      9.66264e+6 
           7590      9.60133e+6 
           7610      9.54052e+6 
           7630      9.48021e+6 
           7650      9.41976e+6 
           7670      9.36046e+6 
           7690        9.301e+6 
           7710      9.24267e+6 
           7730      9.18419e+6 
           7750      9.12618e+6 
           7770      9.06803e+6 
           7790      9.01221e+6 
           7810      8.95562e+6 
           7830      8.90009e+6 
           7850      8.84441e+6 
           7870      8.78917e+6 
           7890      8.73438e+6 
           7910      8.68003e+6 
           7930      8.62612e+6 
           7950      8.57264e+6 
           7970      8.51959e+6 
           7990      8.46696e+6 
           8010      8.41475e+6 
           8030      8.36295e+6 
           8050      8.31156e+6 
           8070         8.26e+6 
           8090      8.20943e+6 
           8110      8.15925e+6 
           8130       8.1089e+6 
           8150      8.05951e+6 
           8170       8.0105e+6 
           8190      7.96131e+6 
           8210      7.92313e+6 
           8230        7.878e+6 
           8250       7.8332e+6 
           8270       7.7882e+6 
           8290      7.74025e+6 
           8310      7.68558e+6 
           8330      7.62809e+6 
           8350      7.58511e+6 
           8370        7.479e+6 
           8390      7.44606e+6 
           8410      7.37393e+6 
           8430      7.42274e+6 
           8450      7.38237e+6 
           8470      7.11965e+6 
           8490      7.50165e+6 
           8510      6.97848e+6 
           8530      7.52518e+6 
           8550      6.78141e+6 
           8570      7.56384e+6 
           8590      7.18301e+6 
