# Kurucz ODFNEW /NOVER (2003)
# teff = 23000 K (value for the effective temperature for the model. Temperatures are given in K)
# logg = 3 log(cm/s2) (value for Log(G) for the model.)
# meta = 0  (value for the Metallicity for the model.)
# lh = 1.25  (l/Hp where l is the  mixing length of the convective element and Hp is the pressure scale height)
# vtur = 2 km/s (Microturbulence velocity)
# alpha = 0.4  (Alpha)
#
# column 1: WAVELENGTH (ANGSTROM), Wavelength in Angstrom
# column 2: FLUX (ERG/CM2/S/A), Flux in erg/cm2/s/A
          147.2     1.22414e-16 
            151     5.97718e-16 
          155.2     3.17577e-15 
          158.8     1.24698e-14 
            162     4.02295e-14 
            166     1.64016e-13 
          170.3     6.92015e-13 
          173.4     1.88443e-12 
          176.8     5.43155e-12 
          180.2     1.50856e-11 
          181.7     2.33992e-11 
          186.1     8.17926e-11 
            191     3.09471e-10 
          193.9     6.59997e-10 
          198.4      2.05034e-9 
          201.8      4.67572e-9 
            205      9.91643e-9 
          210.5      3.43144e-8 
          216.2      1.16406e-7 
          219.8      2.43877e-7 
            223       4.6144e-7 
          226.8      9.64487e-7 
            230      3.46741e-5 
            234      8.31604e-5 
            240     0.000212918 
          246.5     0.000563653 
          252.4       0.0013208 
          256.8      0.00231883 
            260      0.00384465 
            264      0.00627072 
          268.5       0.0111557 
          273.5       0.0203982 
          278.5       0.0364896 
            284       0.0740091 
            290        0.139771 
            296        0.259328 
            301        0.422589 
            308        0.871651 
            318         2.26137 
            328         5.11147 
            338         11.7849 
            348         24.9881 
            357         179.079 
            366         416.507 
            375         659.534 
            385          1177.2 
            395         2555.55 
            405         4037.51 
            414         6366.08 
            422         9003.39 
            430         13164.1 
            441           20541 
            451         29032.5 
            460         39145.3 
            470         56983.5 
            480         79044.5 
            490          110227 
            500          148564 
            506          953153 
            512      8.60699e+6 
            520      9.43077e+6 
            530      1.11008e+7 
            540      1.11934e+7 
            550      1.85812e+7 
            560      2.29594e+7 
            570      2.74587e+7 
            580      2.50037e+7 
            590      3.51459e+7 
            600      3.87226e+7 
            610       4.7768e+7 
            620      5.32214e+7 
            630      5.75915e+7 
            640      5.39902e+7 
            650      4.33805e+7 
            658      6.58609e+7 
            665      7.69364e+7 
            675      7.67375e+7 
            685      7.52174e+7 
            695      1.05151e+8 
            705      1.02258e+8 
            716      1.20612e+8 
            726      1.20207e+8 
            735      1.31061e+8 
            745      1.51961e+8 
            755      1.61491e+8 
            765      1.74574e+8 
            775       1.8862e+8 
            785      2.02742e+8 
            795      2.08618e+8 
            805      2.17274e+8 
            815      2.22552e+8 
            825      2.46083e+8 
            835       1.9133e+8 
            845      2.51635e+8 
            855      2.56719e+8 
            865       2.7492e+8 
            875      2.93944e+8 
            885      3.21302e+8 
            895      3.37658e+8 
            905        3.313e+8 
            915      6.83555e+8 
            925      6.64805e+9 
            935     1.11344e+10 
            945     1.42622e+10 
            955     1.55834e+10 
            965     1.50619e+10 
            975      3.14263e+9 
            985     1.01728e+10 
            995     1.19165e+10 
           1005     1.50461e+10 
           1015     1.56268e+10 
           1025     1.23447e+10 
           1035     1.25177e+10 
           1045     1.88288e+10 
           1055     1.71989e+10 
           1065     1.33254e+10 
           1075     1.59797e+10 
           1085     1.45597e+10 
           1095     1.66295e+10 
           1105     1.42753e+10 
           1115     1.29874e+10 
           1125      9.78179e+9 
           1135     1.52552e+10 
           1145      1.4041e+10 
           1155      1.4462e+10 
           1165     1.44224e+10 
           1175      7.84798e+9 
           1185     1.35657e+10 
           1195     1.21913e+10 
           1205      5.76526e+9 
           1215       8.9184e+9 
           1225     1.24651e+10 
           1235     1.39802e+10 
           1245     1.34444e+10 
           1255     1.34133e+10 
           1265     1.36067e+10 
           1275     1.41628e+10 
           1285     1.38632e+10 
           1295      8.07114e+9 
           1305      9.51455e+9 
           1315     1.36189e+10 
           1325     1.27819e+10 
           1335     1.23529e+10 
           1345     1.25737e+10 
           1355     1.24807e+10 
           1365     1.14079e+10 
           1375     1.09634e+10 
           1385     1.00745e+10 
           1395       5.4567e+9 
           1405       6.7883e+9 
           1415      9.35377e+9 
           1425      9.46246e+9 
           1435      9.97574e+9 
           1442      1.0262e+10 
           1447     1.00672e+10 
           1455       9.6968e+9 
           1465       8.9305e+9 
           1475      9.23995e+9 
           1485      9.14172e+9 
           1495      8.92257e+9 
           1505      8.11797e+9 
           1512      7.25727e+9 
           1517      7.54641e+9 
           1525      7.77992e+9 
           1535      6.51811e+9 
           1545      6.27287e+9 
           1555      6.10676e+9 
           1565      6.74498e+9 
           1575      7.26646e+9 
           1585      7.26549e+9 
           1595      7.21984e+9 
           1605      7.27625e+9 
           1615      7.12055e+9 
           1625      7.00522e+9 
           1635      7.48153e+9 
           1645      7.52157e+9 
           1655      7.37648e+9 
           1665      7.47432e+9 
           1672      7.09801e+9 
           1677      7.92205e+9 
           1685      7.61944e+9 
           1695      7.14285e+9 
           1705      7.01226e+9 
           1715      6.55403e+9 
           1725      6.51991e+9 
           1735      6.78801e+9 
           1745      6.65278e+9 
           1755      6.67087e+9 
           1765      6.67749e+9 
           1775      6.16028e+9 
           1785      6.29647e+9 
           1795       6.5111e+9 
           1805       6.5948e+9 
           1815      5.79682e+9 
           1825      6.10097e+9 
           1835      5.92132e+9 
           1845      5.37931e+9 
           1855      5.46522e+9 
           1865      5.54692e+9 
           1875      5.79428e+9 
           1885      5.14495e+9 
           1895      4.76925e+9 
           1905      5.25487e+9 
           1915      4.89821e+9 
           1925       4.6366e+9 
           1935      4.98392e+9 
           1945      5.06186e+9 
           1955      4.53285e+9 
           1967      5.00993e+9 
           1976      5.23349e+9 
           1984      4.86529e+9 
           1995       4.7727e+9 
           2005      5.00494e+9 
           2015      4.94722e+9 
           2025      5.08204e+9 
           2035      4.59765e+9 
           2045       4.7253e+9 
           2055      4.48941e+9 
           2065      4.46397e+9 
           2074      4.79246e+9 
           2078      4.25841e+9 
           2085      4.59981e+9 
           2095      4.32236e+9 
           2105      4.47371e+9 
           2115      4.53046e+9 
           2125       4.5555e+9 
           2135      4.50557e+9 
           2145      4.22179e+9 
           2155      4.44975e+9 
           2165      4.45238e+9 
           2175      4.39361e+9 
           2185      4.22668e+9 
           2195      4.30453e+9 
           2205      4.31276e+9 
           2215      4.23713e+9 
           2225       4.1228e+9 
           2235      4.05575e+9 
           2245      4.11074e+9 
           2255      3.97642e+9 
           2265      4.03244e+9 
           2275      3.97633e+9 
           2285       3.9675e+9 
           2295      3.53081e+9 
           2305      3.83343e+9 
           2315      3.72327e+9 
           2325      3.68546e+9 
           2335      3.56427e+9 
           2345      3.62033e+9 
           2355       3.6052e+9 
           2365      3.58145e+9 
           2375       3.5032e+9 
           2385      3.47944e+9 
           2395      3.43646e+9 
           2405      3.38482e+9 
           2415      3.34238e+9 
           2425      3.34049e+9 
           2435      3.24748e+9 
           2445      3.25884e+9 
           2455      3.25679e+9 
           2465      3.19731e+9 
           2475      3.13376e+9 
           2485      3.01525e+9 
           2495      2.26527e+9 
           2505      2.86181e+9 
           2513      2.85692e+9 
           2518      2.95676e+9 
           2525      2.94789e+9 
           2535      2.93236e+9 
           2545      2.78402e+9 
           2555      2.85824e+9 
           2565      2.80845e+9 
           2575      2.83526e+9 
           2585      2.78681e+9 
           2595       2.7675e+9 
           2605      2.75323e+9 
           2615      2.70385e+9 
           2625       2.6893e+9 
           2635      2.66556e+9 
           2645      2.63774e+9 
           2655      2.62325e+9 
           2665      2.51985e+9 
           2675      2.53411e+9 
           2685      2.52885e+9 
           2695      2.44259e+9 
           2705      2.39753e+9 
           2715      2.40448e+9 
           2725      2.39433e+9 
           2735      2.37438e+9 
           2745      2.32622e+9 
           2755       2.3178e+9 
           2765      2.29426e+9 
           2775      2.30496e+9 
           2785      2.26347e+9 
           2795      2.17959e+9 
           2805      2.21029e+9 
           2815      2.20783e+9 
           2825      2.18609e+9 
           2835       2.1098e+9 
           2845       2.1313e+9 
           2855      2.08774e+9 
           2865      2.09054e+9 
           2875      2.06645e+9 
           2885      2.04998e+9 
           2895      2.01274e+9 
           2910      1.96864e+9 
           2930      1.95006e+9 
           2950      1.89648e+9 
           2970      1.86936e+9 
           2990      1.82788e+9 
           3010      1.75339e+9 
           3030      1.75113e+9 
           3050      1.72953e+9 
           3070      1.70691e+9 
           3090      1.63075e+9 
           3110      1.63357e+9 
           3130      1.59057e+9 
           3150      1.56911e+9 
           3170      1.53048e+9 
           3190      1.50253e+9 
           3210      1.48175e+9 
           3230      1.44392e+9 
           3250      1.42702e+9 
           3270      1.39324e+9 
           3290      1.36709e+9 
           3310      1.34333e+9 
           3330      1.31474e+9 
           3350      1.29392e+9 
           3370       1.2669e+9 
           3390      1.25049e+9 
           3410      1.22899e+9 
           3430      1.20462e+9 
           3450      1.17888e+9 
           3470      1.15789e+9 
           3490       1.1355e+9 
           3510      1.11905e+9 
           3530      1.10571e+9 
           3550      1.08432e+9 
           3570      1.06718e+9 
           3590      1.03831e+9 
           3610      1.02097e+9 
           3630      1.00663e+9 
           3640       1.0046e+9 
           3650       9.8839e+8 
           3670      9.77255e+8 
           3690      9.48153e+8 
           3710      9.30896e+8 
           3730      9.21075e+8 
           3750      9.78438e+8 
           3770      9.63685e+8 
           3790       9.7266e+8 
           3810      9.94786e+8 
           3830      9.08096e+8 
           3850      9.77679e+8 
           3870      9.49338e+8 
           3890      8.72382e+8 
           3910      9.43641e+8 
           3930      9.08645e+8 
           3950      9.02774e+8 
           3970      8.08607e+8 
           3990      8.77452e+8 
           4010       8.6673e+8 
           4030       8.3762e+8 
           4050      8.36947e+8 
           4070      8.01769e+8 
           4090      7.73926e+8 
           4110      7.22165e+8 
           4130      7.67002e+8 
           4150      7.61137e+8 
           4170      7.57276e+8 
           4190      7.47704e+8 
           4210      7.41318e+8 
           4230      7.25123e+8 
           4250      7.06364e+8 
           4270      6.87654e+8 
           4290      6.77737e+8 
           4310      6.60753e+8 
           4330      6.38428e+8 
           4350      5.96257e+8 
           4370      6.32633e+8 
           4390      6.31007e+8 
           4410      6.21151e+8 
           4430      6.16093e+8 
           4450      6.05202e+8 
           4470      5.89259e+8 
           4490      5.88712e+8 
           4510      5.83428e+8 
           4530      5.74964e+8 
           4550      5.66773e+8 
           4570      5.57025e+8 
           4590        5.478e+8 
           4610      5.36179e+8 
           4630      5.30221e+8 
           4650      5.11331e+8 
           4670      5.13179e+8 
           4690      5.09754e+8 
           4710      4.91186e+8 
           4730      4.94113e+8 
           4750       4.8557e+8 
           4770       4.8548e+8 
           4790      4.77445e+8 
           4810      4.67865e+8 
           4830      4.60478e+8 
           4850      4.48536e+8 
           4870      4.13615e+8 
           4890       4.4304e+8 
           4910      4.36953e+8 
           4930      4.25386e+8 
           4950       4.2214e+8 
           4970      4.20747e+8 
           4990      4.14113e+8 
           5010      3.98716e+8 
           5030      4.01731e+8 
           5050       3.9337e+8 
           5070      3.91695e+8 
           5090      3.85409e+8 
           5110      3.79714e+8 
           5130       3.7268e+8 
           5150      3.68669e+8 
           5170      3.64835e+8 
           5190      3.60448e+8 
           5210      3.54369e+8 
           5230      3.50907e+8 
           5250       3.4642e+8 
           5270      3.40974e+8 
           5290      3.37311e+8 
           5310       3.3249e+8 
           5330      3.28381e+8 
           5350      3.23667e+8 
           5370      3.20124e+8 
           5390      3.15367e+8 
           5410      3.11816e+8 
           5430        3.073e+8 
           5450      3.03121e+8 
           5470       2.9931e+8 
           5490       2.9577e+8 
           5510      2.92448e+8 
           5530      2.88169e+8 
           5550      2.85166e+8 
           5570      2.81264e+8 
           5590      2.77989e+8 
           5610      2.74215e+8 
           5630      2.71177e+8 
           5650      2.66428e+8 
           5670      2.62255e+8 
           5690      2.58285e+8 
           5710      2.56745e+8 
           5730      2.54072e+8 
           5750      2.49938e+8 
           5770      2.48378e+8 
           5790      2.45114e+8 
           5810      2.42168e+8 
           5830       2.3867e+8 
           5850      2.36204e+8 
           5870      2.28682e+8 
           5890      2.28999e+8 
           5910      2.27085e+8 
           5930      2.24056e+8 
           5950      2.21148e+8 
           5970      2.19975e+8 
           5990      2.16304e+8 
           6010      2.14481e+8 
           6030      2.11527e+8 
           6050      2.09266e+8 
           6070      2.07153e+8 
           6090      2.04728e+8 
           6110      2.02371e+8 
           6130       2.0013e+8 
           6150      1.96898e+8 
           6170      1.94902e+8 
           6190      1.93084e+8 
           6210      1.91031e+8 
           6230      1.88894e+8 
           6250      1.86395e+8 
           6270      1.84403e+8 
           6290      1.82432e+8 
           6310      1.80085e+8 
           6330      1.78366e+8 
           6350      1.75712e+8 
           6370      1.74211e+8 
           6390      1.72274e+8 
           6410      1.70366e+8 
           6430      1.68643e+8 
           6450      1.66702e+8 
           6470      1.64296e+8 
           6490      1.62551e+8 
           6510      1.61056e+8 
           6530      1.58958e+8 
           6550      1.56075e+8 
           6570      1.42218e+8 
           6590      1.53006e+8 
           6610      1.52323e+8 
           6630      1.50857e+8 
           6650      1.48988e+8 
           6670      1.46656e+8 
           6690      1.45158e+8 
           6710      1.44511e+8 
           6730      1.42547e+8 
           6750      1.41539e+8 
           6770      1.40038e+8 
           6790      1.37662e+8 
           6810      1.36895e+8 
           6830      1.35287e+8 
           6850      1.34128e+8 
           6870      1.32694e+8 
           6890        1.311e+8 
           6910      1.29498e+8 
           6930      1.28586e+8 
           6950      1.27309e+8 
           6970       1.2599e+8 
           6990       1.2463e+8 
           7010      1.23345e+8 
           7030       1.2205e+8 
           7050      1.20835e+8 
           7070      1.17907e+8 
           7090      1.18382e+8 
           7110      1.16442e+8 
           7130      1.15375e+8 
           7150      1.14775e+8 
           7170      1.13629e+8 
           7190      1.12517e+8 
           7210      1.11379e+8 
           7230      1.08804e+8 
           7250      1.08842e+8 
           7270      1.08037e+8 
           7290      1.06212e+8 
           7310      1.05878e+8 
           7330      1.04789e+8 
           7350      1.03802e+8 
           7370      1.02802e+8 
           7390      1.01784e+8 
           7410      1.00783e+8 
           7430      9.97425e+7 
           7450      9.87869e+7 
           7470      9.71919e+7 
           7490      9.68012e+7 
           7510      9.58988e+7 
           7530      9.49051e+7 
           7550      9.41055e+7 
           7570      9.32013e+7 
           7590      9.22727e+7 
           7610      9.12223e+7 
           7630      9.05118e+7 
           7650      8.96336e+7 
           7670      8.88145e+7 
           7690      8.79582e+7 
           7710      8.71032e+7 
           7730      8.62243e+7 
           7750      8.54913e+7 
           7770       8.4253e+7 
           7790      8.38955e+7 
           7810      8.30649e+7 
           7830      8.23338e+7 
           7850      8.15541e+7 
           7870      8.06536e+7 
           7890      7.97369e+7 
           7910      7.92559e+7 
           7930      7.84612e+7 
           7950      7.76676e+7 
           7970      7.69758e+7 
           7990       7.6225e+7 
           8010      7.55924e+7 
           8030        7.493e+7 
           8050      7.42965e+7 
           8070      7.36569e+7 
           8090      7.28844e+7 
           8110      7.18266e+7 
           8130      7.16788e+7 
           8150      7.09361e+7 
           8170      7.04369e+7 
           8190      6.94361e+7 
           8210      6.88076e+7 
           8230      6.81343e+7 
           8250      6.78653e+7 
           8270      6.65404e+7 
           8290      6.65432e+7 
           8310      6.60105e+7 
           8330       6.5455e+7 
           8350      6.46123e+7 
           8370       6.4035e+7 
           8390      6.36177e+7 
           8410      6.29692e+7 
           8430      6.24429e+7 
           8450      6.14881e+7 
           8470       6.0988e+7 
           8490      6.10773e+7 
           8510      5.96045e+7 
           8530      6.03039e+7 
           8550       5.7868e+7 
           8570      5.99424e+7 
           8590      5.74784e+7 
