# Kurucz ODFNEW /NOVER (2003)
# teff = 9750 K (value for the effective temperature for the model. Temperatures are given in K)
# logg = 5 log(cm/s2) (value for Log(G) for the model.)
# meta = -0.5  (value for the Metallicity for the model.)
# lh = 1.25  (l/Hp where l is the  mixing length of the convective element and Hp is the pressure scale height)
# vtur = 2 km/s (Microturbulence velocity)
# alpha = 0.4  (Alpha)
#
# column 1: WAVELENGTH (ANGSTROM), Wavelength in Angstrom
# column 2: FLUX (ERG/CM2/S/A), Flux in erg/cm2/s/A
          268.5     5.79264e-23 
          273.5     2.67052e-22 
          278.5     1.07945e-21 
            284     4.70725e-21 
            290     2.20053e-20 
            296     9.66805e-20 
            301     3.18237e-19 
            308      1.5831e-18 
            318     1.38977e-17 
            328     1.06831e-16 
            338     7.30217e-16 
            348     4.47301e-15 
            357     2.09126e-14 
            366     9.06979e-14 
            375     3.66643e-13 
            385     1.59994e-12 
            395     6.46736e-12 
            405     2.44056e-11 
            414     7.62159e-11 
            422     2.01013e-10 
            430     5.10734e-10 
            441      1.74184e-9 
            451      5.03137e-9 
            460      1.25451e-8 
            470      3.31945e-8 
            480         8.42e-8 
            490      2.05232e-7 
            500      4.82033e-7 
            506      8.16726e-7 
            512      1.33861e-6 
            520      2.49235e-6 
            530      5.28172e-6 
            540      1.08562e-5 
            550      2.17357e-5 
            560      4.23688e-5 
            570      8.06403e-5 
            580     0.000149796 
            590     0.000272423 
            600     0.000485008 
            610      0.00084629 
            620       0.0014487 
            630      0.00243531 
            640      0.00402409 
            650      0.00654074 
            658      0.00953735 
            665       0.0131601 
            675       0.0205925 
            685        0.031773 
            695       0.0483647 
            705       0.0726733 
            716        0.112161 
            726        0.164358 
            735         0.22957 
            745        0.329403 
            755        0.467758 
            765        0.657639 
            775        0.915692 
            785         1.26336 
            795         1.72752 
            805         2.34232 
            815         3.14984 
            825         4.20249 
            835         5.56429 
            845         7.31325 
            855         9.54469 
            865         12.3724 
            875         15.9322 
            885         20.3861 
            895         25.9258 
            905         32.7758 
            915          163.12 
            925         1143.06 
            935         2079.71 
            945         3802.71 
            955         5590.89 
            965         7527.51 
            975         5880.64 
            985         10961.4 
            995           12291 
           1005         15046.1 
           1015         16440.8 
           1025         10550.8 
           1035           20835 
           1045         25894.4 
           1055         29701.7 
           1065         32947.3 
           1075         38415.4 
           1085           43426 
           1095         47490.8 
           1105         71364.2 
           1115          868957 
           1125      1.59512e+6 
           1135      2.26156e+6 
           1145      1.76445e+6 
           1155      1.35473e+6 
           1165          863003 
           1175          436672 
           1185          325427 
           1195          161619 
           1205          138708 
           1215         37266.5 
           1225          145937 
           1235          294794 
           1245          468328 
           1255          994359 
           1265      2.05922e+6 
           1275      6.34168e+6 
           1285      1.62955e+7 
           1295      2.28573e+7 
           1305      1.41341e+7 
           1315      3.18381e+7 
           1325      3.98848e+7 
           1335      4.44261e+7 
           1345      5.31058e+7 
           1355      4.88675e+7 
           1365       4.7497e+7 
           1375      4.81596e+7 
           1385      3.82538e+7 
           1395      4.03595e+7 
           1405      5.29972e+7 
           1415      6.49117e+7 
           1425      7.20334e+7 
           1435      6.21837e+7 
           1442      7.55809e+7 
           1447      7.80085e+7 
           1455      8.13794e+7 
           1465      7.43638e+7 
           1475      7.20723e+7 
           1485      7.33377e+7 
           1495      8.04506e+7 
           1505      8.11598e+7 
           1512      7.58091e+7 
           1517       8.1621e+7 
           1525      7.38791e+7 
           1535      7.90033e+7 
           1545      9.67902e+7 
           1555       6.6371e+7 
           1565      5.49061e+7 
           1575      8.39348e+7 
           1585      1.01144e+8 
           1595      1.07986e+8 
           1605      1.10593e+8 
           1615      1.12219e+8 
           1625      9.72673e+7 
           1635      1.00086e+8 
           1645      1.26717e+8 
           1655      9.81551e+7 
           1665      1.24071e+8 
           1672      9.84521e+7 
           1677      1.18657e+8 
           1685      1.30302e+8 
           1695      1.06658e+8 
           1705      1.12185e+8 
           1715      1.20634e+8 
           1725       1.1904e+8 
           1735      1.26539e+8 
           1745      1.21541e+8 
           1755      1.31389e+8 
           1765      1.11498e+8 
           1775       1.2762e+8 
           1785      1.26632e+8 
           1795      1.34964e+8 
           1805      1.24708e+8 
           1815      1.24664e+8 
           1825      1.19524e+8 
           1835      1.18158e+8 
           1845      1.08808e+8 
           1855      1.15646e+8 
           1865       1.1768e+8 
           1875      1.19653e+8 
           1885      1.20041e+8 
           1895      1.18736e+8 
           1905      1.11741e+8 
           1915      1.17871e+8 
           1925      1.19008e+8 
           1935      1.13284e+8 
           1945      1.20676e+8 
           1955      1.19336e+8 
           1967      1.20767e+8 
           1976      1.16813e+8 
           1984      1.14619e+8 
           1995      1.12933e+8 
           2005      1.10291e+8 
           2015      1.06907e+8 
           2025      1.05202e+8 
           2035       1.0971e+8 
           2045      1.11595e+8 
           2055      1.06363e+8 
           2065      1.06466e+8 
           2074      1.09004e+8 
           2078      1.12057e+8 
           2085      1.10431e+8 
           2095       1.0719e+8 
           2105      1.04831e+8 
           2115       1.0465e+8 
           2125      1.05161e+8 
           2135      9.43182e+7 
           2145      1.03053e+8 
           2155      1.01596e+8 
           2165      9.71476e+7 
           2175      9.64953e+7 
           2185      9.71765e+7 
           2195       1.0111e+8 
           2205      9.71185e+7 
           2215      9.03157e+7 
           2225      9.07613e+7 
           2235      9.84355e+7 
           2245      9.10126e+7 
           2255      8.86291e+7 
           2265      8.78556e+7 
           2275       9.2748e+7 
           2285      9.47808e+7 
           2295      8.91357e+7 
           2305      8.88745e+7 
           2315      8.74265e+7 
           2325      8.72406e+7 
           2335      8.49403e+7 
           2345      7.87299e+7 
           2355      8.61325e+7 
           2365      7.96064e+7 
           2375      8.29314e+7 
           2385      7.50184e+7 
           2395       8.0521e+7 
           2405      7.76187e+7 
           2415      7.86502e+7 
           2425      8.15712e+7 
           2435       7.7497e+7 
           2445       8.1616e+7 
           2455       7.9046e+7 
           2465      7.87407e+7 
           2475      7.56334e+7 
           2485        7.879e+7 
           2495      7.64047e+7 
           2505      8.20757e+7 
           2513      7.64296e+7 
           2518      7.57996e+7 
           2525      7.18936e+7 
           2535      7.09113e+7 
           2545      7.08495e+7 
           2555      7.44222e+7 
           2565      7.47134e+7 
           2575      7.88671e+7 
           2585      7.94646e+7 
           2595      7.91386e+7 
           2605      7.60729e+7 
           2615      7.55417e+7 
           2625      7.78485e+7 
           2635      7.78176e+7 
           2645      8.34176e+7 
           2655      8.26461e+7 
           2665      7.79586e+7 
           2675      7.99513e+7 
           2685      8.06528e+7 
           2695      7.74152e+7 
           2705      7.80435e+7 
           2715      7.50932e+7 
           2725       7.5167e+7 
           2735      7.85266e+7 
           2745      7.09859e+7 
           2755      7.12309e+7 
           2765      7.33874e+7 
           2775      7.58486e+7 
           2785      7.34057e+7 
           2795      5.42282e+7 
           2805      6.15415e+7 
           2815      7.64562e+7 
           2825      7.66995e+7 
           2835      7.47672e+7 
           2845      7.24739e+7 
           2855      7.01599e+7 
           2865      7.36456e+7 
           2875      7.23366e+7 
           2885      7.34247e+7 
           2895      7.24374e+7 
           2910      7.62526e+7 
           2930      7.33413e+7 
           2950      7.31511e+7 
           2970      7.33352e+7 
           2990      7.30906e+7 
           3010      7.35155e+7 
           3030      7.28806e+7 
           3050      7.20534e+7 
           3070      7.10098e+7 
           3090      7.11825e+7 
           3110      7.00985e+7 
           3130      6.97977e+7 
           3150      6.97305e+7 
           3170      6.92321e+7 
           3190      6.70709e+7 
           3210      6.77295e+7 
           3230      6.63011e+7 
           3250      6.67252e+7 
           3270       6.6824e+7 
           3290       6.6912e+7 
           3310       6.6742e+7 
           3330      6.53719e+7 
           3350      6.43386e+7 
           3370      6.43368e+7 
           3390      6.37078e+7 
           3410      6.41484e+7 
           3430        6.379e+7 
           3450      6.31981e+7 
           3470      6.25812e+7 
           3490      6.22681e+7 
           3510      6.21904e+7 
           3530      6.19261e+7 
           3550      6.16697e+7 
           3570      6.07413e+7 
           3590      6.03353e+7 
           3610      5.99808e+7 
           3630      5.96276e+7 
           3640      5.93317e+7 
           3650      5.97847e+7 
           3670      5.96047e+7 
           3690      5.84153e+7 
           3710      5.69634e+7 
           3730       5.4104e+7 
           3750      6.05955e+7 
           3770      6.25545e+7 
           3790      7.47028e+7 
           3810      8.78389e+7 
           3830      7.06363e+7 
           3850      9.87109e+7 
           3870       1.1479e+8 
           3890      6.19663e+7 
           3910       1.1619e+8 
           3930      1.26764e+8 
           3950      1.16654e+8 
           3970      5.96446e+7 
           3990      1.10018e+8 
           4010      1.36566e+8 
           4030      1.40169e+8 
           4050      1.37338e+8 
           4070      1.24878e+8 
           4090      8.60428e+7 
           4110      6.55637e+7 
           4130      1.14468e+8 
           4150      1.28472e+8 
           4170      1.30243e+8 
           4190      1.29928e+8 
           4210      1.28711e+8 
           4230      1.25909e+8 
           4250       1.2461e+8 
           4270       1.2121e+8 
           4290      1.17092e+8 
           4310      1.04308e+8 
           4330      7.10704e+7 
           4350      6.06948e+7 
           4370      9.92458e+7 
           4390      1.08381e+8 
           4410      1.10678e+8 
           4430      1.10366e+8 
           4450      1.10176e+8 
           4470      1.09109e+8 
           4490      1.06364e+8 
           4510      1.06712e+8 
           4530      1.05131e+8 
           4550      1.03281e+8 
           4570      1.02882e+8 
           4590      1.01408e+8 
           4610      1.00961e+8 
           4630      9.90323e+7 
           4650      9.83216e+7 
           4670      9.70684e+7 
           4690       9.5052e+7 
           4710      9.20609e+7 
           4730      9.31211e+7 
           4750      9.17909e+7 
           4770      9.01668e+7 
           4790      8.80657e+7 
           4810      8.44527e+7 
           4830      7.66171e+7 
           4850      5.55537e+7 
           4870      4.55677e+7 
           4890      7.06869e+7 
           4910      7.86506e+7 
           4930      8.00877e+7 
           4950      8.07057e+7 
           4970      8.04509e+7 
           4990      7.95849e+7 
           5010      7.81718e+7 
           5030       7.7873e+7 
           5050      7.65336e+7 
           5070      7.64234e+7 
           5090      7.55782e+7 
           5110      7.47555e+7 
           5130      7.38273e+7 
           5150      7.29113e+7 
           5170       7.1177e+7 
           5190        7.054e+7 
           5210      7.04602e+7 
           5230      6.93522e+7 
           5250      6.90134e+7 
           5270      6.75492e+7 
           5290      6.74513e+7 
           5310      6.64979e+7 
           5330      6.54243e+7 
           5350      6.52361e+7 
           5370       6.4448e+7 
           5390       6.3758e+7 
           5410      6.28459e+7 
           5430      6.23404e+7 
           5450      6.17518e+7 
           5470      6.10782e+7 
           5490      6.04002e+7 
           5510      5.97951e+7 
           5530      5.90467e+7 
           5550      5.85363e+7 
           5570      5.78787e+7 
           5590      5.72025e+7 
           5610       5.6666e+7 
           5630      5.61156e+7 
           5650      5.54936e+7 
           5670      5.48684e+7 
           5690      5.43333e+7 
           5710      5.37592e+7 
           5730      5.32481e+7 
           5750      5.26413e+7 
           5770      5.21254e+7 
           5790      5.15771e+7 
           5810      5.10585e+7 
           5830       5.0537e+7 
           5850      5.00082e+7 
           5870      4.94581e+7 
           5890      4.87188e+7 
           5910      4.84932e+7 
           5930       4.8006e+7 
           5950      4.74763e+7 
           5970      4.70308e+7 
           5990      4.65052e+7 
           6010      4.60512e+7 
           6030      4.56126e+7 
           6050      4.51458e+7 
           6070      4.47312e+7 
           6090      4.42835e+7 
           6110      4.38306e+7 
           6130      4.33615e+7 
           6150      4.26467e+7 
           6170      4.24488e+7 
           6190      4.21475e+7 
           6210       4.1725e+7 
           6230      4.13013e+7 
           6250      4.07982e+7 
           6270      4.05306e+7 
           6290      4.01409e+7 
           6310      3.97251e+7 
           6330      3.93494e+7 
           6350      3.86563e+7 
           6370      3.83694e+7 
           6390      3.81397e+7 
           6410      3.77132e+7 
           6430      3.73304e+7 
           6450      3.67253e+7 
           6470      3.63735e+7 
           6490      3.57168e+7 
           6510      3.47563e+7 
           6530       3.2714e+7 
           6550      2.73056e+7 
           6570      2.23917e+7 
           6590      3.02394e+7 
           6610      3.26745e+7 
           6630      3.33107e+7 
           6650       3.3379e+7 
           6670      3.32426e+7 
           6690      3.30382e+7 
           6710      3.27922e+7 
           6730      3.24978e+7 
           6750      3.22203e+7 
           6770      3.20138e+7 
           6790      3.17283e+7 
           6810      3.14487e+7 
           6830      3.11494e+7 
           6850      3.08762e+7 
           6870      3.06057e+7 
           6890      3.03338e+7 
           6910      3.00614e+7 
           6930      2.97893e+7 
           6950      2.95277e+7 
           6970      2.92638e+7 
           6990      2.90095e+7 
           7010      2.86893e+7 
           7030      2.84852e+7 
           7050      2.82419e+7 
           7070      2.79979e+7 
           7090       2.7757e+7 
           7110      2.73984e+7 
           7130       2.7256e+7 
           7150      2.69954e+7 
           7170      2.67871e+7 
           7190      2.65567e+7 
           7210       2.6332e+7 
           7230      2.61051e+7 
           7250      2.58523e+7 
           7270      2.56625e+7 
           7290      2.54241e+7 
           7310      2.52231e+7 
           7330      2.50057e+7 
           7350      2.48015e+7 
           7370      2.45935e+7 
           7390      2.43792e+7 
           7410       2.4151e+7 
           7430      2.39141e+7 
           7450      2.37465e+7 
           7470      2.35209e+7 
           7490      2.33431e+7 
           7510      2.31702e+7 
           7530      2.29821e+7 
           7550      2.27984e+7 
           7570      2.26058e+7 
           7590      2.24214e+7 
           7610      2.22361e+7 
           7630      2.20504e+7 
           7650      2.18644e+7 
           7670      2.16763e+7 
           7690      2.14974e+7 
           7710      2.13315e+7 
           7730      2.11639e+7 
           7750      2.09871e+7 
           7770      2.04349e+7 
           7790      2.06535e+7 
           7810      2.04837e+7 
           7830      2.03128e+7 
           7850      2.01348e+7 
           7870      1.99134e+7 
           7890      1.97133e+7 
           7910      1.96535e+7 
           7930       1.9491e+7 
           7950      1.92875e+7 
           7970      1.92087e+7 
           7990      1.89008e+7 
           8010      1.89016e+7 
           8030      1.87468e+7 
           8050      1.86044e+7 
           8070      1.84562e+7 
           8090      1.83126e+7 
           8110      1.81686e+7 
           8130      1.80314e+7 
           8150      1.78909e+7 
           8170      1.77514e+7 
           8190      1.75497e+7 
           8210       1.7452e+7 
           8230         1.73e+7 
           8250      1.71852e+7 
           8270       1.7154e+7 
           8290      1.70264e+7 
           8310       1.6903e+7 
           8330      1.67324e+7 
           8350      1.66664e+7 
           8370      1.65524e+7 
           8390       1.6426e+7 
           8410      1.63048e+7 
           8430      1.61681e+7 
           8450      1.58696e+7 
           8470      1.58751e+7 
           8490      1.57805e+7 
           8510      1.54146e+7 
           8530      1.55495e+7 
           8550      1.47785e+7 
           8570      1.54262e+7 
           8590      1.48148e+7 
           8610      1.46104e+7 
           8630      1.52398e+7 
           8650      1.46634e+7 
           8670      1.31704e+7 
           8690      1.47322e+7 
           8710      1.51354e+7 
           8730      1.44453e+7 
           8750      1.21616e+7 
           8770      1.37471e+7 
           8790      1.49031e+7 
           8810      1.50345e+7 
           8830      1.45374e+7 
           8850      1.27926e+7 
           8870      1.12425e+7 
           8890       1.3633e+7 
           8910      1.45314e+7 
           8930      1.47891e+7 
           8950      1.47978e+7 
           8970      1.43325e+7 
           8990      1.32391e+7 
           9010      1.07306e+7 
           9030      1.14893e+7 
           9050      1.33222e+7 
           9070      1.38982e+7 
           9090      1.40387e+7 
           9110      1.42399e+7 
           9130      1.42219e+7 
           9150       1.4045e+7 
           9170      1.36944e+7 
