# Kurucz ODFNEW /NOVER (2003)
# teff = 7500 K (value for the effective temperature for the model. Temperatures are given in K)
# logg = 5 log(cm/s2) (value for Log(G) for the model.)
# meta = -4  (value for the Metallicity for the model.)
# lh = 1.25  (l/Hp where l is the  mixing length of the convective element and Hp is the pressure scale height)
# vtur = 2 km/s (Microturbulence velocity)
# alpha = 0.4  (Alpha)
#
# column 1: WAVELENGTH (ANGSTROM), Wavelength in Angstrom
# column 2: FLUX (ERG/CM2/S/A), Flux in erg/cm2/s/A
          147.2     1.73866e-35 
            151     1.65225e-35 
          155.2     1.56403e-35 
          158.8     1.49392e-35 
            162     1.43549e-35 
            166     1.36714e-35 
          170.3     1.29897e-35 
          173.4     1.25294e-35 
          176.8     1.20522e-35 
          180.2     1.16017e-35 
          181.7     1.14109e-35 
          186.1     1.08777e-35 
            191     1.03267e-35 
          193.9     1.00201e-35 
          198.4     9.57076e-36 
          201.8     9.25097e-36 
            205     8.96441e-36 
          210.5     8.50208e-36 
          216.2     8.05969e-36 
          219.8     7.79784e-36 
            223     7.57565e-36 
          226.8     7.32392e-36 
            230     7.12154e-36 
            234     6.88015e-36 
            240     6.54044e-36 
          246.5     6.20006e-36 
          252.4     5.91358e-36 
          256.8     5.71267e-36 
            260     5.57292e-36 
            264     5.40532e-36 
          268.5     5.22566e-36 
          273.5     5.03634e-36 
          278.5     4.85712e-36 
            284     4.67082e-36 
            290     3.29609e-23 
            296      2.0577e-22 
            301     7.88753e-22 
            308     4.70793e-21 
            318      5.2331e-20 
            328     4.99451e-19 
            338     4.15265e-18 
            348     3.04403e-17 
            357     1.65626e-16 
            366     8.26574e-16 
            375     3.80761e-15 
            385     1.90511e-14 
            395     8.75707e-14 
            405     3.72147e-13 
            414     1.28586e-12 
            422     3.69571e-12 
            430     1.01951e-11 
            441     3.86394e-11 
            451     1.22301e-10 
            460     3.29834e-10 
            470     9.47793e-10 
            480      2.60064e-9 
            490      6.83322e-9 
            500      1.72391e-8 
            506      2.80124e-8 
            512      4.89364e-8 
            520      9.80402e-8 
            530      2.21974e-7 
            540      4.86738e-7 
            550       1.0355e-6 
            560      2.14085e-6 
            570      4.30821e-6 
            580      8.30944e-6 
            590      1.61763e-5 
            600      3.02608e-5 
            610      5.53826e-5 
            620      9.92688e-5 
            630      0.00017445 
            640     0.000300832 
            650     0.000509543 
            658     0.000767165 
            665      0.00108796 
            675      0.00176803 
            685      0.00282982 
            695      0.00446351 
            705      0.00694284 
            716       0.0111147 
            726       0.0168217 
            735       0.0241725 
            745       0.0357612 
            755       0.0523135 
            765       0.0757032 
            775        0.108423 
            785      0.00017772 
            795     0.000238135 
            805     0.000316342 
            815     0.000416763 
            825     0.000544771 
            835     0.000706802 
            845     0.000910239 
            855       0.0011639 
            865      0.00147812 
            875      0.00186479 
            885      0.00233789 
            895      0.00291319 
            905      0.00360849 
            915         4.90877 
            925         13.3916 
            935         19.3815 
            945         28.6344 
            955         38.4493 
            965         49.1653 
            975         49.4023 
            985         80.2325 
            995         100.892 
           1005         116.019 
           1015         125.511 
           1025          126.14 
           1035         189.014 
           1045         246.866 
           1055         291.883 
           1065         358.951 
           1075         421.578 
           1085         504.439 
           1095         581.546 
           1105         668.504 
           1115         768.292 
           1125          890.28 
           1135         1020.53 
           1145         1155.02 
           1155         1288.06 
           1165         1417.26 
           1175         1530.98 
           1185         1920.58 
           1195         1952.76 
           1205         1919.63 
           1215         1605.42 
           1225         2389.35 
           1235         3162.83 
           1245         2235.96 
           1255         3907.64 
           1265         4690.56 
           1275         5458.74 
           1285         6388.24 
           1295         7358.13 
           1305         8576.16 
           1315         9794.34 
           1325         11183.9 
           1335         12615.9 
           1345         14292.8 
           1355           16163 
           1365         18209.2 
           1375         20167.3 
           1385         22212.3 
           1395         24655.5 
           1405         26952.8 
           1415         30387.1 
           1425         32631.8 
           1435         36058.9 
           1442         38840.4 
           1447         39257.9 
           1455         42854.5 
           1465         45246.7 
           1475         49554.7 
           1485         53696.8 
           1495         58575.3 
           1505         63509.4 
           1512         67322.5 
           1517           67477 
           1525         72069.6 
           1535         76755.3 
           1545         80059.3 
           1555         85255.6 
           1565         88336.4 
           1575         93816.9 
           1585         99014.6 
           1595          104780 
           1605          111333 
           1615          123000 
           1625          140116 
           1635          165223 
           1645          247628 
           1655          478906 
           1665      1.41479e+6 
           1672      2.41286e+6 
           1677      3.43504e+6 
           1685      5.00736e+6 
           1695      7.31148e+6 
           1705      9.43448e+6 
           1715      1.12768e+7 
           1725      1.25753e+7 
           1735         1.36e+7 
           1745      1.40694e+7 
           1755      1.46972e+7 
           1765      1.49967e+7 
           1775      1.53639e+7 
           1785      1.57385e+7 
           1795      1.61728e+7 
           1805      1.61502e+7 
           1815      1.64816e+7 
           1825      1.66194e+7 
           1835      1.70708e+7 
           1845      1.68465e+7 
           1855      1.73441e+7 
           1865      1.78182e+7 
           1875      1.80144e+7 
           1885      1.82309e+7 
           1895      1.84576e+7 
           1905      1.85405e+7 
           1915      1.88857e+7 
           1925      1.91047e+7 
           1935      1.89873e+7 
           1945      1.94846e+7 
           1955      1.96683e+7 
           1967      1.98993e+7 
           1976      1.98998e+7 
           1984      1.99158e+7 
           1995      2.03603e+7 
           2005       2.0467e+7 
           2015      2.06457e+7 
           2025      2.06242e+7 
           2035      2.10169e+7 
           2045      2.11767e+7 
           2055      2.11808e+7 
           2065      2.13419e+7 
           2074      2.16352e+7 
           2078      2.16899e+7 
           2085      2.17464e+7 
           2095      2.18981e+7 
           2105      2.20127e+7 
           2115       2.2179e+7 
           2125      2.20784e+7 
           2135      2.24043e+7 
           2145      2.25709e+7 
           2155       2.2675e+7 
           2165      2.25946e+7 
           2175       2.2811e+7 
           2185      2.30122e+7 
           2195      2.31541e+7 
           2205      2.30864e+7 
           2215      2.27456e+7 
           2225      2.33269e+7 
           2235      2.35915e+7 
           2245      2.36546e+7 
           2255      2.35957e+7 
           2265      2.35765e+7 
           2275      2.37584e+7 
           2285      2.39485e+7 
           2295      2.39498e+7 
           2305      2.41352e+7 
           2315      2.41592e+7 
           2325      2.41567e+7 
           2335      2.40331e+7 
           2345      2.36354e+7 
           2355       2.4312e+7 
           2365      2.38031e+7 
           2375       2.4285e+7 
           2385      2.36844e+7 
           2395      2.43231e+7 
           2405      2.44046e+7 
           2415      2.44542e+7 
           2425      2.49775e+7 
           2435      2.48896e+7 
           2445      2.49915e+7 
           2455      2.51033e+7 
           2465      2.50507e+7 
           2475      2.50486e+7 
           2485      2.48394e+7 
           2495      2.48749e+7 
           2505      2.51642e+7 
           2513      2.47913e+7 
           2518      2.46276e+7 
           2525      2.47181e+7 
           2535      2.50593e+7 
           2545      2.52676e+7 
           2555      2.54753e+7 
           2565      2.52169e+7 
           2575       2.5376e+7 
           2585      2.53249e+7 
           2595      2.52935e+7 
           2605      2.52285e+7 
           2615      2.52215e+7 
           2625      2.52632e+7 
           2635       2.5342e+7 
           2645      2.58222e+7 
           2655      2.58349e+7 
           2665      2.57783e+7 
           2675      2.58023e+7 
           2685      2.58733e+7 
           2695      2.58569e+7 
           2705      2.58767e+7 
           2715      2.56757e+7 
           2725      2.56565e+7 
           2735      2.57105e+7 
           2745      2.51375e+7 
           2755      2.53326e+7 
           2765      2.57317e+7 
           2775      2.58684e+7 
           2785      2.57879e+7 
           2795      2.46619e+7 
           2805      2.52506e+7 
           2815      2.59287e+7 
           2825      2.59187e+7 
           2835      2.58528e+7 
           2845      2.58683e+7 
           2855      2.54332e+7 
           2865      2.58545e+7 
           2875      2.58796e+7 
           2885      2.57222e+7 
           2895      2.58864e+7 
           2910        2.588e+7 
           2930      2.57794e+7 
           2950       2.5728e+7 
           2970      2.57388e+7 
           2990       2.5678e+7 
           3010      2.56672e+7 
           3030      2.56139e+7 
           3050      2.55913e+7 
           3070      2.55303e+7 
           3090      2.54842e+7 
           3110      2.54473e+7 
           3130      2.53938e+7 
           3150      2.53309e+7 
           3170      2.52777e+7 
           3190       2.5168e+7 
           3210      2.51365e+7 
           3230      2.50125e+7 
           3250      2.49991e+7 
           3270      2.49557e+7 
           3290      2.48871e+7 
           3310      2.48132e+7 
           3330      2.47219e+7 
           3350      2.46219e+7 
           3370      2.45502e+7 
           3390      2.44728e+7 
           3410      2.44182e+7 
           3430       2.4337e+7 
           3450      2.42433e+7 
           3470      2.41664e+7 
           3490      2.40882e+7 
           3510      2.40062e+7 
           3530      2.39212e+7 
           3550      2.38378e+7 
           3570      2.37334e+7 
           3590      2.36486e+7 
           3610      2.35619e+7 
           3630      2.34771e+7 
           3640      2.34347e+7 
           3650      2.34654e+7 
           3670       2.3443e+7 
           3690       2.2976e+7 
           3710      2.27665e+7 
           3730      2.17242e+7 
           3750      2.42095e+7 
           3770      2.45513e+7 
           3790      2.73707e+7 
           3810      3.06292e+7 
           3830      2.60083e+7 
           3850      3.28477e+7 
           3870      3.53087e+7 
           3890      2.41083e+7 
           3910      3.52726e+7 
           3930      3.65926e+7 
           3950      3.51485e+7 
           3970      2.36501e+7 
           3990       3.4187e+7 
           4010      3.65856e+7 
           4030      3.67732e+7 
           4050      3.64591e+7 
           4070      3.54762e+7 
           4090      3.02859e+7 
           4110       2.4878e+7 
           4130      3.43116e+7 
           4150      3.52854e+7 
           4170      3.53463e+7 
           4190      3.52093e+7 
           4210      3.50073e+7 
           4230      3.47634e+7 
           4250      3.45079e+7 
           4270      3.41854e+7 
           4290      3.37221e+7 
           4310      3.26554e+7 
           4330      2.72266e+7 
           4350      2.40203e+7 
           4370      3.17412e+7 
           4390      3.25571e+7 
           4410      3.26092e+7 
           4430      3.24939e+7 
           4450      3.23147e+7 
           4470       3.2145e+7 
           4490      3.19658e+7 
           4510      3.17477e+7 
           4530      3.15304e+7 
           4550      3.13157e+7 
           4570      3.11017e+7 
           4590      3.08903e+7 
           4610      3.06796e+7 
           4630      3.04696e+7 
           4650      3.02621e+7 
           4670      3.00535e+7 
           4690      2.98474e+7 
           4710      2.96284e+7 
           4730        2.937e+7 
           4750      2.91449e+7 
           4770      2.88993e+7 
           4790      2.86092e+7 
           4810      2.81911e+7 
           4830      2.73008e+7 
           4850       2.3471e+7 
           4870      2.00017e+7 
           4890      2.63483e+7 
           4910       2.7142e+7 
           4930      2.72276e+7 
           4950      2.71433e+7 
           4970      2.70046e+7 
           4990       2.6846e+7 
           5010      2.67072e+7 
           5030       2.6528e+7 
           5050      2.63434e+7 
           5070      2.61608e+7 
           5090      2.59789e+7 
           5110      2.57991e+7 
           5130      2.56198e+7 
           5150      2.54425e+7 
           5170      2.52516e+7 
           5190      2.50826e+7 
           5210      2.49153e+7 
           5230      2.47431e+7 
           5250      2.45727e+7 
           5270      2.44001e+7 
           5290      2.42334e+7 
           5310      2.40659e+7 
           5330      2.38976e+7 
           5350      2.37337e+7 
           5370      2.35703e+7 
           5390      2.34074e+7 
           5410       2.3245e+7 
           5430      2.30855e+7 
           5450      2.29253e+7 
           5470       2.2768e+7 
           5490      2.26112e+7 
           5510      2.24548e+7 
           5530         2.23e+7 
           5550       2.2147e+7 
           5570      2.19943e+7 
           5590      2.18432e+7 
           5610      2.16937e+7 
           5630      2.15446e+7 
           5650      2.13971e+7 
           5670      2.12499e+7 
           5690      2.11043e+7 
           5710      2.09602e+7 
           5730      2.08175e+7 
           5750      2.06753e+7 
           5770      2.05333e+7 
           5790      2.03928e+7 
           5810      2.02538e+7 
           5830      2.01162e+7 
           5850      1.99789e+7 
           5870      1.98429e+7 
           5890      1.97052e+7 
           5910      1.95731e+7 
           5930      1.94402e+7 
           5950      1.93076e+7 
           5970      1.91764e+7 
           5990      1.90464e+7 
           6010      1.89178e+7 
           6030      1.87894e+7 
           6050      1.86623e+7 
           6070      1.85364e+7 
           6090      1.84108e+7 
           6110      1.82864e+7 
           6130      1.81633e+7 
           6150      1.80414e+7 
           6170      1.79197e+7 
           6190      1.78001e+7 
           6210      1.76808e+7 
           6230      1.75616e+7 
           6250      1.74446e+7 
           6270      1.73277e+7 
           6290       1.7211e+7 
           6310      1.70964e+7 
           6330       1.6982e+7 
           6350      1.68686e+7 
           6370      1.67564e+7 
           6390      1.66452e+7 
           6410      1.65341e+7 
           6430      1.63959e+7 
           6450      1.62663e+7 
           6470      1.61344e+7 
           6490      1.59797e+7 
           6510      1.57661e+7 
           6530      1.53507e+7 
           6550       1.3875e+7 
           6570      1.16314e+7 
           6590      1.47055e+7 
           6610      1.51624e+7 
           6630      1.52254e+7 
           6650      1.51893e+7 
           6670      1.51195e+7 
           6690       1.5036e+7 
           6710      1.49716e+7 
           6730      1.48736e+7 
           6750      1.47765e+7 
           6770      1.46803e+7 
           6790      1.45849e+7 
           6810      1.44896e+7 
           6830      1.43952e+7 
           6850      1.43016e+7 
           6870      1.42089e+7 
           6890       1.4117e+7 
           6910      1.40259e+7 
           6930      1.39349e+7 
           6950      1.38455e+7 
           6970       1.3756e+7 
           6990      1.36674e+7 
           7010      1.35796e+7 
           7030      1.34917e+7 
           7050      1.34054e+7 
           7070      1.33191e+7 
           7090      1.32336e+7 
           7110      1.31488e+7 
           7130      1.30648e+7 
           7150      1.29815e+7 
           7170      1.28989e+7 
           7190      1.28163e+7 
           7210      1.27345e+7 
           7230      1.26533e+7 
           7250      1.25728e+7 
           7270       1.2493e+7 
           7290       1.2414e+7 
           7310      1.23355e+7 
           7330      1.22571e+7 
           7350      1.21793e+7 
           7370      1.21029e+7 
           7390      1.20265e+7 
           7410      1.19506e+7 
           7430      1.18755e+7 
           7450      1.18003e+7 
           7470      1.17264e+7 
           7490      1.16531e+7 
           7510      1.15797e+7 
           7530      1.15077e+7 
           7550      1.14355e+7 
           7570       1.1364e+7 
           7590      1.12931e+7 
           7610      1.12228e+7 
           7630       1.1153e+7 
           7650      1.10838e+7 
           7670      1.10152e+7 
           7690      1.09472e+7 
           7710       1.0879e+7 
           7730      1.08121e+7 
           7750      1.07451e+7 
           7770      1.06786e+7 
           7790      1.06133e+7 
           7810      1.05479e+7 
           7830      1.04836e+7 
           7850      1.04192e+7 
           7870      1.03554e+7 
           7890      1.02921e+7 
           7910      1.02293e+7 
           7930      1.01663e+7 
           7950      1.01045e+7 
           7970      1.00432e+7 
           7990      9.98178e+6 
           8010      9.92143e+6 
           8030      9.86097e+6 
           8050      9.80156e+6 
           8070      9.74205e+6 
           8090        9.683e+6 
           8110      9.62499e+6 
           8130      9.56687e+6 
           8150       9.5092e+6 
           8170      9.45197e+6 
           8190      9.39519e+6 
           8210      9.34165e+6 
           8230       9.2874e+6 
           8250      9.23302e+6 
           8270       9.1796e+6 
           8290      9.12659e+6 
           8310      9.07344e+6 
           8330      9.02069e+6 
           8350      8.96781e+6 
           8370      8.91371e+6 
           8390      8.86056e+6 
           8410      8.80621e+6 
           8430      8.75547e+6 
           8450      8.70404e+6 
           8470      8.63253e+6 
           8490      8.60811e+6 
           8510      8.50319e+6 
           8530      8.51359e+6 
           8550      8.32332e+6 
           8570      8.43327e+6 
           8590      8.28173e+6 
