# Kurucz ODFNEW /NOVER (2003)
# teff = 27000 K (value for the effective temperature for the model. Temperatures are given in K)
# logg = 3.5 log(cm/s2) (value for Log(G) for the model.)
# meta = -2.5  (value for the Metallicity for the model.)
# lh = 1.25  (l/Hp where l is the  mixing length of the convective element and Hp is the pressure scale height)
# vtur = 2 km/s (Microturbulence velocity)
# alpha = 0  (Alpha)
#
# column 1: WAVELENGTH (ANGSTROM), Wavelength in Angstrom
# column 2: FLUX (ERG/CM2/S/A), Flux in erg/cm2/s/A
          147.2     3.61276e-11 
            151     1.47586e-10 
          155.2     6.44882e-10 
          158.8      2.14363e-9 
            162      5.96029e-9 
            166      2.02405e-8 
          170.3        7.052e-8 
          173.4       1.6693e-7 
          176.8      4.14221e-7 
          180.2      9.92208e-7 
          181.7      1.44325e-6 
          186.1      4.18302e-6 
            191       1.2894e-5 
          193.9      2.44221e-5 
          198.4      6.32943e-5 
          201.8     0.000126303 
            205     0.000236777 
          210.5     0.000665152 
          216.2      0.00183398 
          219.8      0.00338208 
            223      0.00572461 
          226.8       0.0104798 
            230        0.389911 
            234        0.966867 
            240         2.04323 
          246.5         4.48723 
          252.4           8.855 
          256.8         12.3068 
            260         19.6562 
            264         29.0806 
          268.5         45.1518 
          273.5         71.9391 
          278.5         112.535 
            284         181.204 
            290         296.447 
            296         472.632 
            301         664.051 
            308         1014.89 
            318         2279.44 
            328         4300.12 
            338         7852.21 
            348         13747.2 
            357         22094.6 
            366         34822.4 
            375         52837.2 
            385         83059.7 
            395          126358 
            405          187948 
            414          264486 
            422          351695 
            430          461713 
            441          663942 
            451          907147 
            460      1.18004e+6 
            470      1.56872e+6 
            480      2.04961e+6 
            490      2.64652e+6 
            500      3.37896e+6 
            506      2.69088e+7 
            512      7.64024e+7 
            520      8.17812e+7 
            530      9.41086e+7 
            540      9.34382e+7 
            550      1.13716e+8 
            560      1.23686e+8 
            570      1.36441e+8 
            580      1.32986e+8 
            590      1.57099e+8 
            600      1.71464e+8 
            610       1.8714e+8 
            620      2.00762e+8 
            630       2.1778e+8 
            640      2.29615e+8 
            650      2.50059e+8 
            658      2.64446e+8 
            665      2.76806e+8 
            675      2.90775e+8 
            685      3.04868e+8 
            695      3.36559e+8 
            705      3.49962e+8 
            716      3.78151e+8 
            726      3.98454e+8 
            735      4.21915e+8 
            745      4.46618e+8 
            755       4.6988e+8 
            765      4.93191e+8 
            775      5.20606e+8 
            785      5.48204e+8 
            795      5.71545e+8 
            805      5.98558e+8 
            815      6.22414e+8 
            825       6.5214e+8 
            835      6.57902e+8 
            845      7.03045e+8 
            855       7.2916e+8 
            865      7.58771e+8 
            875      7.89699e+8 
            885      8.18562e+8 
            895      8.46462e+8 
            905      8.69119e+8 
            915      1.54863e+9 
            925     1.39055e+10 
            935     2.42902e+10 
            945     3.73171e+10 
            955     4.02429e+10 
            965     4.55041e+10 
            975     2.90152e+10 
            985     4.35585e+10 
            995     4.14582e+10 
           1005     4.25992e+10 
           1015     4.09668e+10 
           1025     2.83537e+10 
           1035     3.92195e+10 
           1045     4.08528e+10 
           1055     4.00143e+10 
           1065     3.78481e+10 
           1075     3.78873e+10 
           1085     3.58449e+10 
           1095     3.71003e+10 
           1105     3.58549e+10 
           1115     3.52268e+10 
           1125     3.35585e+10 
           1135      3.4239e+10 
           1145     3.32958e+10 
           1155     3.29844e+10 
           1165     3.24677e+10 
           1175     2.88586e+10 
           1185     3.10189e+10 
           1195      3.0122e+10 
           1205     2.86719e+10 
           1215     1.93759e+10 
           1225     2.83936e+10 
           1235     2.84197e+10 
           1245     2.76491e+10 
           1255     2.74709e+10 
           1265     2.69747e+10 
           1275     2.65208e+10 
           1285     2.60389e+10 
           1295     2.48543e+10 
           1305     2.46696e+10 
           1315     2.46291e+10 
           1325     2.40377e+10 
           1335     2.33069e+10 
           1345     2.32719e+10 
           1355     2.28948e+10 
           1365     2.24413e+10 
           1375     2.20384e+10 
           1385     2.16604e+10 
           1395     2.07199e+10 
           1405     2.04603e+10 
           1415       2.046e+10 
           1425     2.00644e+10 
           1435     1.97857e+10 
           1442     1.95724e+10 
           1447      1.9387e+10 
           1455     1.90978e+10 
           1465     1.87608e+10 
           1475     1.84276e+10 
           1485     1.81205e+10 
           1495     1.77845e+10 
           1505     1.74358e+10 
           1512     1.72352e+10 
           1517      1.7089e+10 
           1525     1.68276e+10 
           1535     1.63356e+10 
           1545      1.5926e+10 
           1555     1.56408e+10 
           1565     1.55954e+10 
           1575     1.54192e+10 
           1585     1.51863e+10 
           1595     1.49372e+10 
           1605     1.45287e+10 
           1615      1.4281e+10 
           1625     1.40883e+10 
           1635     1.38244e+10 
           1645     1.32539e+10 
           1655     1.34804e+10 
           1665     1.32649e+10 
           1672     1.30871e+10 
           1677     1.30794e+10 
           1685     1.28857e+10 
           1695       1.266e+10 
           1705     1.24307e+10 
           1715     1.21612e+10 
           1725     1.19894e+10 
           1735      1.1868e+10 
           1745      1.1665e+10 
           1755     1.14848e+10 
           1765      1.1263e+10 
           1775     1.11118e+10 
           1785      1.0963e+10 
           1795     1.07917e+10 
           1805     1.06413e+10 
           1815     1.04536e+10 
           1825     1.02925e+10 
           1835     1.01416e+10 
           1845      9.91375e+9 
           1855      9.66538e+9 
           1865      9.56439e+9 
           1875      9.50561e+9 
           1885      9.26973e+9 
           1895       9.0491e+9 
           1905      9.04591e+9 
           1915      8.80406e+9 
           1925      8.66291e+9 
           1935      8.60087e+9 
           1945      8.52829e+9 
           1955      8.28375e+9 
           1967       8.2491e+9 
           1976      8.17683e+9 
           1984       8.0245e+9 
           1995      7.82021e+9 
           2005      7.81512e+9 
           2015      7.72466e+9 
           2025       7.6243e+9 
           2035      7.48979e+9 
           2045      7.37996e+9 
           2055      6.90848e+9 
           2065      6.76019e+9 
           2074      6.81454e+9 
           2078      6.74209e+9 
           2085      6.85279e+9 
           2095      6.82006e+9 
           2105      6.77744e+9 
           2115      6.70423e+9 
           2125      6.61809e+9 
           2135      6.52128e+9 
           2145      6.42312e+9 
           2155      6.35147e+9 
           2165      6.24889e+9 
           2175       6.1785e+9 
           2185      6.07757e+9 
           2195      6.01325e+9 
           2205       5.9304e+9 
           2215       5.8332e+9 
           2225      5.76886e+9 
           2235       5.6893e+9 
           2245      5.61436e+9 
           2255      5.52186e+9 
           2265      5.46425e+9 
           2275       5.3912e+9 
           2285      5.31908e+9 
           2295      5.19036e+9 
           2305      5.16364e+9 
           2315      5.10873e+9 
           2325      5.04146e+9 
           2335      4.97418e+9 
           2345      4.91089e+9 
           2355      4.84679e+9 
           2365      4.78366e+9 
           2375      4.72115e+9 
           2385      4.64701e+9 
           2395      4.59942e+9 
           2405      4.54086e+9 
           2415      4.48221e+9 
           2425      4.42552e+9 
           2435      4.36835e+9 
           2445       4.3134e+9 
           2455      4.25908e+9 
           2465      4.20531e+9 
           2475      4.15227e+9 
           2485      4.10019e+9 
           2495      3.96663e+9 
           2505      3.99806e+9 
           2513      3.92814e+9 
           2518      3.93228e+9 
           2525      3.89993e+9 
           2535      3.85211e+9 
           2545      3.80101e+9 
           2555      3.75695e+9 
           2565      3.71202e+9 
           2575      3.66694e+9 
           2585      3.62245e+9 
           2595      3.57869e+9 
           2605      3.55321e+9 
           2615      3.51028e+9 
           2625      3.46647e+9 
           2635      3.41954e+9 
           2645      3.37919e+9 
           2655      3.33599e+9 
           2665      3.29349e+9 
           2675      3.25244e+9 
           2685      3.22799e+9 
           2695       3.1728e+9 
           2705      3.15232e+9 
           2715       3.1154e+9 
           2725      3.06092e+9 
           2735      3.03606e+9 
           2745      3.00783e+9 
           2755      2.97317e+9 
           2765      2.91919e+9 
           2775      2.90523e+9 
           2785      2.87173e+9 
           2795      2.83515e+9 
           2805      2.80578e+9 
           2815      2.77476e+9 
           2825      2.72201e+9 
           2835      2.70444e+9 
           2845      2.68178e+9 
           2855      2.65147e+9 
           2865       2.6218e+9 
           2875       2.5926e+9 
           2885      2.56375e+9 
           2895      2.53524e+9 
           2910      2.49316e+9 
           2930      2.43857e+9 
           2950      2.37237e+9 
           2970      2.33382e+9 
           2990      2.28349e+9 
           3010       2.2344e+9 
           3030      2.18707e+9 
           3050      2.14075e+9 
           3070      2.09568e+9 
           3090        2.051e+9 
           3110      2.00897e+9 
           3130      1.96896e+9 
           3150      1.92824e+9 
           3170      1.88798e+9 
           3190      1.83646e+9 
           3210      1.80992e+9 
           3230      1.77487e+9 
           3250      1.73893e+9 
           3270      1.70578e+9 
           3290      1.66982e+9 
           3310      1.63887e+9 
           3330      1.60658e+9 
           3350      1.57258e+9 
           3370      1.54445e+9 
           3390      1.51454e+9 
           3410      1.48533e+9 
           3430      1.45102e+9 
           3450      1.41877e+9 
           3470      1.39564e+9 
           3490      1.36924e+9 
           3510      1.34885e+9 
           3530      1.32441e+9 
           3550      1.30009e+9 
           3570      1.28124e+9 
           3590      1.25143e+9 
           3610      1.23017e+9 
           3630      1.20567e+9 
           3640      1.20153e+9 
           3650      1.18642e+9 
           3670      1.16894e+9 
           3690      1.13801e+9 
           3710      1.10683e+9 
           3730      1.07639e+9 
           3750      1.13963e+9 
           3770      1.13513e+9 
           3790      1.16063e+9 
           3810      1.19397e+9 
           3830      1.07241e+9 
           3850      1.19448e+9 
           3870      1.18013e+9 
           3890      1.02258e+9 
           3910      1.15164e+9 
           3930       1.1282e+9 
           3950      1.11233e+9 
           3970      9.47387e+8 
           3990      1.07138e+9 
           4010      1.05345e+9 
           4030      1.01099e+9 
           4050      1.02363e+9 
           4070      1.00472e+9 
           4090      9.61051e+8 
           4110      8.64028e+8 
           4130      9.46986e+8 
           4150      9.32653e+8 
           4170       9.2167e+8 
           4190      9.07828e+8 
           4210      8.92209e+8 
           4230      8.77938e+8 
           4250      8.63292e+8 
           4270      8.48694e+8 
           4290      8.35089e+8 
           4310        8.204e+8 
           4330      7.75988e+8 
           4350      7.17065e+8 
           4370      7.80607e+8 
           4390      7.57423e+8 
           4410      7.56942e+8 
           4430      7.42809e+8 
           4450      7.33198e+8 
           4470      7.02763e+8 
           4490      7.10139e+8 
           4510       6.9902e+8 
           4530       6.8807e+8 
           4550      6.76757e+8 
           4570      6.66698e+8 
           4590      6.56359e+8 
           4610       6.4628e+8 
           4630       6.3635e+8 
           4650      6.25957e+8 
           4670       6.1698e+8 
           4690      6.05597e+8 
           4710      5.92687e+8 
           4730       5.8942e+8 
           4750      5.80526e+8 
           4770       5.7191e+8 
           4790      5.63368e+8 
           4810      5.54964e+8 
           4830      5.46033e+8 
           4850      5.21872e+8 
           4870      4.75135e+8 
           4890       5.2164e+8 
           4910      5.15258e+8 
           4930      4.99957e+8 
           4950      5.00446e+8 
           4970      4.93269e+8 
           4990      4.86161e+8 
           5010      4.74737e+8 
           5030      4.72339e+8 
           5050      4.63553e+8 
           5070      4.59009e+8 
           5090      4.52516e+8 
           5110      4.46138e+8 
           5130      4.39861e+8 
           5150      4.33709e+8 
           5170      4.27668e+8 
           5190      4.21721e+8 
           5210       4.1588e+8 
           5230      4.10144e+8 
           5250      4.04496e+8 
           5270       3.9895e+8 
           5290      3.93502e+8 
           5310      3.88152e+8 
           5330      3.82884e+8 
           5350       3.7771e+8 
           5370      3.72616e+8 
           5390      3.67612e+8 
           5410      3.62492e+8 
           5430      3.57846e+8 
           5450      3.53094e+8 
           5470      3.48414e+8 
           5490      3.43805e+8 
           5510      3.39279e+8 
           5530      3.34833e+8 
           5550      3.30455e+8 
           5570      3.26144e+8 
           5590      3.21909e+8 
           5610      3.17739e+8 
           5630      3.13631e+8 
           5650      3.09597e+8 
           5670      3.05624e+8 
           5690      3.01676e+8 
           5710      2.97868e+8 
           5730      2.94082e+8 
           5750      2.90342e+8 
           5770      2.86692e+8 
           5790      2.83086e+8 
           5810      2.79533e+8 
           5830      2.76033e+8 
           5850      2.72597e+8 
           5870      2.62925e+8 
           5890      2.65758e+8 
           5910      2.62582e+8 
           5930      2.59346e+8 
           5950      2.56158e+8 
           5970      2.53028e+8 
           5990      2.49934e+8 
           6010      2.46897e+8 
           6030      2.43894e+8 
           6050      2.40946e+8 
           6070      2.38042e+8 
           6090      2.35181e+8 
           6110      2.32362e+8 
           6130      2.29585e+8 
           6150      2.26849e+8 
           6170      2.24154e+8 
           6190      2.21499e+8 
           6210      2.18882e+8 
           6230      2.16305e+8 
           6250      2.13765e+8 
           6270      2.11263e+8 
           6290      2.08798e+8 
           6310       2.0637e+8 
           6330      2.03977e+8 
           6350       2.0162e+8 
           6370      1.99288e+8 
           6390         1.97e+8 
           6410      1.94737e+8 
           6430      1.92507e+8 
           6450      1.90318e+8 
           6470      1.88145e+8 
           6490      1.86012e+8 
           6510      1.83911e+8 
           6530      1.81673e+8 
           6550      1.76798e+8 
           6570      1.60432e+8 
           6590      1.75213e+8 
           6610      1.73827e+8 
           6630      1.71897e+8 
           6650      1.70081e+8 
           6670       1.6692e+8 
           6690      1.65099e+8 
           6710      1.64518e+8 
           6730      1.62709e+8 
           6750      1.60936e+8 
           6770      1.59181e+8 
           6790      1.57444e+8 
           6810      1.55741e+8 
           6830      1.54055e+8 
           6850      1.52394e+8 
           6870       1.5075e+8 
           6890       1.4913e+8 
           6910      1.47534e+8 
           6930      1.45962e+8 
           6950      1.44405e+8 
           6970      1.42872e+8 
           6990      1.41354e+8 
           7010      1.39866e+8 
           7030      1.38393e+8 
           7050      1.36942e+8 
           7070      1.33538e+8 
           7090       1.3409e+8 
           7110      1.32696e+8 
           7130      1.31315e+8 
           7150      1.29955e+8 
           7170      1.28579e+8 
           7190      1.27281e+8 
           7210      1.25975e+8 
           7230      1.24645e+8 
           7250      1.23399e+8 
           7270      1.22143e+8 
           7290      1.19993e+8 
           7310      1.19654e+8 
           7330      1.18455e+8 
           7350       1.1726e+8 
           7370      1.16077e+8 
           7390      1.14912e+8 
           7410      1.13757e+8 
           7430       1.1262e+8 
           7450      1.11507e+8 
           7470      1.10397e+8 
           7490      1.09298e+8 
           7510      1.08183e+8 
           7530      1.07144e+8 
           7550      1.06088e+8 
           7570      1.05048e+8 
           7590      1.04011e+8 
           7610      1.02997e+8 
           7630      1.01992e+8 
           7650      1.00995e+8 
           7670      1.00015e+8 
           7690      9.90429e+7 
           7710      9.80861e+7 
           7730      9.71442e+7 
           7750      9.61981e+7 
           7770      9.52854e+7 
           7790      9.43746e+7 
           7810      9.34102e+7 
           7830      9.25772e+7 
           7850       9.1782e+7 
           7870      9.09086e+7 
           7890      9.00065e+7 
           7910      8.92027e+7 
           7930       8.8358e+7 
           7950      8.74252e+7 
           7970      8.65006e+7 
           7990      8.57554e+7 
           8010      8.49284e+7 
           8030      8.41553e+7 
           8050      8.34005e+7 
           8070      8.26752e+7 
           8090      8.17662e+7 
           8110      8.10713e+7 
           8130      8.04221e+7 
           8150      7.95458e+7 
           8170      7.89706e+7 
           8190      7.81753e+7 
           8210      7.73031e+7 
           8230      7.68166e+7 
           8250      7.61457e+7 
           8270      7.50948e+7 
           8290      7.46836e+7 
           8310      7.40299e+7 
           8330      7.33437e+7 
           8350       7.2366e+7 
           8370      7.18861e+7 
           8390       7.1319e+7 
           8410      7.06553e+7 
           8430      6.99388e+7 
           8450      6.89644e+7 
           8470      6.84605e+7 
           8490      6.81436e+7 
           8510      6.69706e+7 
           8530      6.71436e+7 
           8550      6.49437e+7 
           8570      6.68106e+7 
