# Kurucz ODFNEW /NOVER (2003)
# teff = 19000 K (value for the effective temperature for the model. Temperatures are given in K)
# logg = 4.5 log(cm/s2) (value for Log(G) for the model.)
# meta = -2  (value for the Metallicity for the model.)
# lh = 1.25  (l/Hp where l is the  mixing length of the convective element and Hp is the pressure scale height)
# vtur = 2 km/s (Microturbulence velocity)
# alpha = 0  (Alpha)
#
# column 1: WAVELENGTH (ANGSTROM), Wavelength in Angstrom
# column 2: FLUX (ERG/CM2/S/A), Flux in erg/cm2/s/A
          147.2     3.39177e-22 
            151     2.59007e-21 
          155.2      2.0969e-20 
          158.8     1.15174e-19 
            162     4.93004e-19 
            166     2.81699e-18 
          170.3     1.68061e-17 
          173.4     5.77243e-17 
          176.8     2.12986e-16 
          180.2      7.4913e-16 
          181.7     1.28567e-15 
          186.1      5.9699e-15 
            191     3.04112e-14 
          193.9      7.6617e-14 
          198.4     3.04896e-13 
          201.8     8.32162e-13 
            205     2.07831e-12 
          210.5     9.37355e-12 
          216.2     4.11834e-11 
          219.8     1.00779e-10 
            223     2.17679e-10 
          226.8     5.28325e-10 
            230      1.21814e-9 
            234      3.00353e-9 
            240      1.05177e-8 
          246.5      3.79884e-8 
          252.4       1.1499e-7 
          256.8       2.5306e-7 
            260      4.43721e-7 
            264      8.74581e-7 
          268.5      1.82882e-6 
          273.5      4.02927e-6 
          278.5      8.62528e-6 
            284      1.92872e-5 
            290      4.47506e-5 
            296     0.000100138 
            301     0.000191061 
            308     0.000454153 
            318      0.00146409 
            328      0.00437225 
            338       0.0121915 
            348       0.0319354 
            357       0.0723255 
            366        0.156968 
            375        0.327289 
            385        0.709159 
            395         1.47319 
            405         2.94332 
            414         5.32049 
            422         8.79989 
            430         14.2621 
            441          26.854 
            451         46.3538 
            460         74.0978 
            470         121.935 
            480         196.115 
            490         308.727 
            500         476.307 
            506         3675.24 
            512         9583.36 
            520         12503.5 
            530         18623.2 
            540         22550.8 
            550         33187.1 
            560         43194.1 
            570         56057.2 
            580         62570.2 
            590         86837.2 
            600          113542 
            610          141661 
            620          174477 
            630          213945 
            640          258376 
            650          313822 
            658          363587 
            665          411278 
            675          486902 
            685          573374 
            695          679529 
            705          793972 
            716          936062 
            726      1.08264e+6 
            735      1.23035e+6 
            745      1.41284e+6 
            755      1.61471e+6 
            765      1.83542e+6 
            775      2.08202e+6 
            785      2.35083e+6 
            795      2.64326e+6 
            805      2.96343e+6 
            815      3.30871e+6 
            825      3.68734e+6 
            835      4.05526e+6 
            845      4.52793e+6 
            855      4.98668e+6 
            865      5.50423e+6 
            875      6.04194e+6 
            885       6.6243e+6 
            895      7.23665e+6 
            905      7.81172e+6 
            915      1.34263e+7 
            925      4.61256e+7 
            935      1.25629e+8 
            945      8.42492e+8 
            955      2.86075e+9 
            965      4.23243e+9 
            975      1.08344e+9 
            985      8.07451e+9 
            995      9.36891e+9 
           1005      9.51013e+9 
           1015      6.20334e+9 
           1025      4.81138e+8 
           1035        4.843e+9 
           1045       9.3504e+9 
           1055      9.75921e+9 
           1065      9.14201e+9 
           1075      9.59863e+9 
           1085      8.99306e+9 
           1095      9.36714e+9 
           1105      8.85065e+9 
           1115      8.81533e+9 
           1125      8.36105e+9 
           1135      8.48137e+9 
           1145      8.07094e+9 
           1155       8.1882e+9 
           1165      8.08682e+9 
           1175      7.24658e+9 
           1185      7.55377e+9 
           1195      6.36261e+9 
           1205      3.85674e+9 
           1215       3.9696e+8 
           1225      3.24957e+9 
           1235      6.06482e+9 
           1245      6.61502e+9 
           1255      6.57915e+9 
           1265      6.48001e+9 
           1275       6.5484e+9 
           1285      6.46239e+9 
           1295      6.00512e+9 
           1305      5.85194e+9 
           1315      6.11054e+9 
           1325      5.90922e+9 
           1335      5.65382e+9 
           1345      5.77144e+9 
           1355      5.69416e+9 
           1365      5.55887e+9 
           1375      5.46695e+9 
           1385       5.3932e+9 
           1395      5.22013e+9 
           1405      5.18101e+9 
           1415       5.1071e+9 
           1425      5.04124e+9 
           1435      4.96116e+9 
           1442      4.91692e+9 
           1447       4.8713e+9 
           1455      4.79635e+9 
           1465      4.70546e+9 
           1475      4.63339e+9 
           1485      4.54472e+9 
           1495      4.47368e+9 
           1505      4.37933e+9 
           1512      4.31679e+9 
           1517      4.30262e+9 
           1525      4.22536e+9 
           1535      4.10286e+9 
           1545      4.09963e+9 
           1555      3.99332e+9 
           1565      3.94445e+9 
           1575      3.91351e+9 
           1585      3.85648e+9 
           1595      3.81435e+9 
           1605      3.71095e+9 
           1615      3.65243e+9 
           1625      3.61247e+9 
           1635      3.56644e+9 
           1645      3.50831e+9 
           1655      3.43578e+9 
           1665      3.43133e+9 
           1672      3.32288e+9 
           1677      3.36244e+9 
           1685      3.32846e+9 
           1695      3.26728e+9 
           1705      3.20107e+9 
           1715      3.14451e+9 
           1725      3.09119e+9 
           1735      3.07731e+9 
           1745      3.01975e+9 
           1755       2.9973e+9 
           1765      2.88023e+9 
           1775      2.90048e+9 
           1785      2.85755e+9 
           1795      2.83375e+9 
           1805      2.79342e+9 
           1815      2.74648e+9 
           1825      2.71715e+9 
           1835      2.67609e+9 
           1845      2.61473e+9 
           1855      2.54359e+9 
           1865      2.51996e+9 
           1875      2.52498e+9 
           1885      2.45871e+9 
           1895      2.40367e+9 
           1905      2.41722e+9 
           1915      2.35341e+9 
           1925      2.32293e+9 
           1935      2.30753e+9 
           1945      2.29781e+9 
           1955      2.23582e+9 
           1967      2.23384e+9 
           1976      2.21846e+9 
           1984      2.17811e+9 
           1995      2.12652e+9 
           2005      2.12776e+9 
           2015      2.10716e+9 
           2025      2.08759e+9 
           2035      2.05411e+9 
           2045      2.02849e+9 
           2055      1.97383e+9 
           2065       1.9635e+9 
           2074      1.96349e+9 
           2078      1.93116e+9 
           2085      1.93104e+9 
           2095      1.89643e+9 
           2105      1.88551e+9 
           2115       1.8662e+9 
           2125      1.84885e+9 
           2135       1.8243e+9 
           2145      1.80028e+9 
           2155      1.78142e+9 
           2165      1.75576e+9 
           2175      1.73543e+9 
           2185       1.7169e+9 
           2195      1.70012e+9 
           2205      1.67691e+9 
           2215      1.65458e+9 
           2225      1.63297e+9 
           2235      1.62058e+9 
           2245      1.60124e+9 
           2255      1.58033e+9 
           2265      1.56486e+9 
           2275      1.54561e+9 
           2285      1.53088e+9 
           2295      1.50684e+9 
           2305      1.49393e+9 
           2315      1.47578e+9 
           2325      1.46151e+9 
           2335      1.43693e+9 
           2345      1.40942e+9 
           2355       1.4093e+9 
           2365        1.384e+9 
           2375      1.37591e+9 
           2385      1.34976e+9 
           2395      1.34081e+9 
           2405      1.32662e+9 
           2415      1.31191e+9 
           2425      1.30663e+9 
           2435      1.28905e+9 
           2445      1.27557e+9 
           2455      1.26589e+9 
           2465      1.24838e+9 
           2475      1.23721e+9 
           2485      1.22446e+9 
           2495      1.20383e+9 
           2505      1.19977e+9 
           2513       1.1848e+9 
           2518      1.18367e+9 
           2525      1.17091e+9 
           2535      1.15383e+9 
           2545       1.1463e+9 
           2555      1.13953e+9 
           2565      1.12419e+9 
           2575      1.11639e+9 
           2585      1.10399e+9 
           2595      1.09175e+9 
           2605      1.08261e+9 
           2615      1.07313e+9 
           2625      1.06399e+9 
           2635      1.05191e+9 
           2645      1.04769e+9 
           2655      1.03607e+9 
           2665      1.02242e+9 
           2675      1.01305e+9 
           2685      1.00761e+9 
           2695      9.91589e+8 
           2705      9.87463e+8 
           2715      9.76676e+8 
           2725      9.60744e+8 
           2735      9.58264e+8 
           2745      9.39696e+8 
           2755      9.32291e+8 
           2765       9.2344e+8 
           2775      9.22325e+8 
           2785      9.12702e+8 
           2795      8.89738e+8 
           2805      8.89104e+8 
           2815      8.87695e+8 
           2825      8.72122e+8 
           2835      8.65371e+8 
           2845      8.61765e+8 
           2855      8.54121e+8 
           2865      8.46608e+8 
           2875      8.38405e+8 
           2885      8.30747e+8 
           2895      8.23174e+8 
           2910      8.11818e+8 
           2930      7.96122e+8 
           2950      7.77744e+8 
           2970      7.68031e+8 
           2990      7.53956e+8 
           3010      7.40727e+8 
           3030      7.27616e+8 
           3050      7.14662e+8 
           3070      7.02023e+8 
           3090       6.8973e+8 
           3110      6.77654e+8 
           3130      6.66291e+8 
           3150      6.54782e+8 
           3170      6.43547e+8 
           3190      6.28802e+8 
           3210      6.21612e+8 
           3230      6.11049e+8 
           3250      6.00734e+8 
           3270      5.91083e+8 
           3290      5.80821e+8 
           3310      5.71622e+8 
           3330      5.62228e+8 
           3350      5.52514e+8 
           3370      5.43985e+8 
           3390       5.3516e+8 
           3410      5.26535e+8 
           3430      5.17275e+8 
           3450      5.08225e+8 
           3470      5.00819e+8 
           3490      4.92899e+8 
           3510      4.85708e+8 
           3530      4.78194e+8 
           3550      4.70669e+8 
           3570      4.64523e+8 
           3590      4.55883e+8 
           3610      4.49574e+8 
           3630      4.41946e+8 
           3640      4.40062e+8 
           3650      4.35703e+8 
           3670      4.30659e+8 
           3690      4.22296e+8 
           3710      4.08777e+8 
           3730       3.9065e+8 
           3750      4.18401e+8 
           3770      4.24655e+8 
           3790      4.67106e+8 
           3810      5.02311e+8 
           3830       4.2373e+8 
           3850      5.31145e+8 
           3870      5.55451e+8 
           3890      3.91988e+8 
           3910       5.4863e+8 
           3930      5.54085e+8 
           3950      5.33856e+8 
           3970      3.68055e+8 
           3990      5.09055e+8 
           4010      5.20999e+8 
           4030      4.87912e+8 
           4050      5.11952e+8 
           4070      4.98928e+8 
           4090      4.30597e+8 
           4110      3.60068e+8 
           4130       4.6605e+8 
           4150       4.6754e+8 
           4170      4.65103e+8 
           4190      4.59858e+8 
           4210      4.52608e+8 
           4230       4.4537e+8 
           4250      4.38268e+8 
           4270       4.3006e+8 
           4290      4.22416e+8 
           4310      4.10393e+8 
           4330       3.4629e+8 
           4350      3.09586e+8 
           4370       3.8916e+8 
           4390      3.78096e+8 
           4410      3.85561e+8 
           4430      3.78977e+8 
           4450      3.74684e+8 
           4470      3.49901e+8 
           4490      3.62731e+8 
           4510      3.58354e+8 
           4530      3.52957e+8 
           4550      3.47714e+8 
           4570      3.42549e+8 
           4590      3.37496e+8 
           4610      3.32535e+8 
           4630       3.2763e+8 
           4650      3.22831e+8 
           4670      3.18155e+8 
           4690      3.13546e+8 
           4710      3.05166e+8 
           4730       3.0446e+8 
           4750      2.99998e+8 
           4770      2.95898e+8 
           4790       2.9092e+8 
           4810      2.85835e+8 
           4830      2.78031e+8 
           4850      2.41501e+8 
           4870      2.10056e+8 
           4890      2.63861e+8 
           4910      2.65466e+8 
           4930      2.56558e+8 
           4950      2.60347e+8 
           4970      2.56975e+8 
           4990      2.53437e+8 
           5010      2.46884e+8 
           5030      2.46533e+8 
           5050      2.41733e+8 
           5070      2.39932e+8 
           5090      2.36684e+8 
           5110      2.33507e+8 
           5130      2.30373e+8 
           5150      2.27309e+8 
           5170      2.24285e+8 
           5190      2.21315e+8 
           5210      2.18342e+8 
           5230      2.15505e+8 
           5250      2.12677e+8 
           5270      2.09899e+8 
           5290      2.07171e+8 
           5310      2.04477e+8 
           5330      2.01819e+8 
           5350      1.99207e+8 
           5370      1.96668e+8 
           5390      1.94148e+8 
           5410      1.91659e+8 
           5430      1.89202e+8 
           5450      1.86814e+8 
           5470      1.84456e+8 
           5490      1.82139e+8 
           5510      1.79852e+8 
           5530      1.77592e+8 
           5550      1.75385e+8 
           5570      1.73205e+8 
           5590      1.71052e+8 
           5610      1.68936e+8 
           5630      1.66859e+8 
           5650      1.64794e+8 
           5670      1.62778e+8 
           5690       1.6081e+8 
           5710      1.58854e+8 
           5730      1.56932e+8 
           5750      1.55033e+8 
           5770      1.53168e+8 
           5790      1.51325e+8 
           5810      1.49515e+8 
           5830      1.47726e+8 
           5850      1.45969e+8 
           5870      1.40089e+8 
           5890      1.42288e+8 
           5910      1.40852e+8 
           5930      1.39197e+8 
           5950       1.3756e+8 
           5970      1.35953e+8 
           5990      1.34364e+8 
           6010      1.32814e+8 
           6030      1.31272e+8 
           6050      1.29757e+8 
           6070      1.28269e+8 
           6090      1.26798e+8 
           6110      1.25344e+8 
           6130      1.23916e+8 
           6150      1.22504e+8 
           6170      1.21117e+8 
           6190      1.19756e+8 
           6210      1.18399e+8 
           6230      1.17068e+8 
           6250       1.1576e+8 
           6270      1.14467e+8 
           6290      1.13198e+8 
           6310      1.11932e+8 
           6330        1.107e+8 
           6350      1.09433e+8 
           6370      1.08246e+8 
           6390       1.0708e+8 
           6410      1.05909e+8 
           6430       1.0475e+8 
           6450      1.03612e+8 
           6470      1.02487e+8 
           6490      1.01221e+8 
           6510      9.98357e+7 
           6530      9.78999e+7 
           6550      9.04537e+7 
           6570      7.85666e+7 
           6590      9.34968e+7 
           6610      9.43891e+7 
           6630      9.37605e+7 
           6650       9.3027e+7 
           6670      9.12336e+7 
           6690      9.03186e+7 
           6710      9.01491e+7 
           6730      8.92065e+7 
           6750      8.82735e+7 
           6770      8.73582e+7 
           6790      8.64521e+7 
           6810      8.55552e+7 
           6830      8.46672e+7 
           6850      8.37962e+7 
           6870      8.29338e+7 
           6890       8.2088e+7 
           6910      8.12506e+7 
           6930      8.04136e+7 
           6950      7.96004e+7 
           6970      7.87953e+7 
           6990      7.79981e+7 
           7010      7.72087e+7 
           7030      7.64346e+7 
           7050      7.56642e+7 
           7070      7.39811e+7 
           7090      7.41616e+7 
           7110       7.3423e+7 
           7130      7.26938e+7 
           7150       7.1973e+7 
           7170      7.12606e+7 
           7190      7.05601e+7 
           7210      6.98663e+7 
           7230      6.91617e+7 
           7250       6.8504e+7 
           7270      6.78361e+7 
           7290      6.68165e+7 
           7310      6.65204e+7 
           7330      6.58796e+7 
           7350      6.52433e+7 
           7370       6.4615e+7 
           7390      6.39939e+7 
           7410      6.33807e+7 
           7430      6.27738e+7 
           7450      6.21793e+7 
           7470      6.15875e+7 
           7490      6.10032e+7 
           7510      6.04175e+7 
           7530      5.98545e+7 
           7550      5.92906e+7 
           7570      5.87339e+7 
           7590      5.81828e+7 
           7610      5.76386e+7 
           7630      5.71006e+7 
           7650      5.65688e+7 
           7670      5.60436e+7 
           7690      5.55244e+7 
           7710      5.50111e+7 
           7730      5.45036e+7 
           7750      5.40019e+7 
           7770      5.34896e+7 
           7790      5.30167e+7 
           7810      5.25213e+7 
           7830      5.20536e+7 
           7850      5.15986e+7 
           7870      5.11299e+7 
           7890      5.06628e+7 
           7910       5.0213e+7 
           7930      4.97606e+7 
           7950      4.93126e+7 
           7970      4.88674e+7 
           7990      4.84301e+7 
           8010      4.80012e+7 
           8030      4.75737e+7 
           8050       4.7151e+7 
           8070      4.67325e+7 
           8090      4.63094e+7 
           8110      4.59066e+7 
           8130       4.5506e+7 
           8150      4.50867e+7 
           8170      4.47105e+7 
           8190      4.43003e+7 
           8210      4.38511e+7 
           8230      4.35292e+7 
           8250      4.31717e+7 
           8270      4.27214e+7 
           8290      4.24404e+7 
           8310       4.2094e+7 
           8330      4.17308e+7 
           8350      4.12896e+7 
           8370      4.10017e+7 
           8390      4.06833e+7 
           8410      4.03148e+7 
           8430      3.99393e+7 
           8450      3.94898e+7 
           8470      3.91549e+7 
           8490       3.8851e+7 
           8510      3.83257e+7 
           8530      3.82332e+7 
           8550      3.71774e+7 
           8570      3.79397e+7 
           8590      3.64328e+7 
