# Kurucz ODFNEW /NOVER (2003)
# teff = 29000 K (value for the effective temperature for the model. Temperatures are given in K)
# logg = 4 log(cm/s2) (value for Log(G) for the model.)
# meta = 0  (value for the Metallicity for the model.)
# lh = 1.25  (l/Hp where l is the  mixing length of the convective element and Hp is the pressure scale height)
# vtur = 2 km/s (Microturbulence velocity)
# alpha = 0.4  (Alpha)
#
# column 1: WAVELENGTH (ANGSTROM), Wavelength in Angstrom
# column 2: FLUX (ERG/CM2/S/A), Flux in erg/cm2/s/A
          147.2     3.62319e-10 
            151      1.21787e-9 
          155.2      4.36209e-9 
          158.8      1.23923e-8 
            162      3.02744e-8 
            166      8.84404e-8 
          170.3      2.64679e-7 
          173.4      5.68135e-7 
          176.8       1.2715e-6 
          180.2      2.76537e-6 
          181.7      3.86019e-6 
          186.1      9.99682e-6 
            191      2.75011e-5 
          193.9      4.88993e-5 
          198.4      0.00011571 
          201.8     0.000216491 
            205     0.000383345 
          210.5     0.000985051 
          216.2      0.00249189 
          219.8      0.00437654 
            223       0.0071102 
          226.8       0.0127905 
            230         1.23943 
            234         2.66778 
            240         5.22326 
          246.5         10.6641 
          252.4         19.9536 
          256.8         29.7488 
            260         46.2101 
            264         65.9612 
          268.5         104.158 
          273.5         162.936 
          278.5         242.948 
            284         488.427 
            290         778.634 
            296         1200.63 
            301         1686.03 
            308         3377.59 
            318         7239.24 
            328         12636.7 
            338         23699.8 
            348         40838.5 
            357          179294 
            366          412851 
            375          563226 
            385          914775 
            395      2.20619e+6 
            405      2.96445e+6 
            414      4.61867e+6 
            422      5.54991e+6 
            430      7.13524e+6 
            441      9.55921e+6 
            451      1.18784e+7 
            460      1.39297e+7 
            470      1.80179e+7 
            480       2.2365e+7 
            490      2.75227e+7 
            500      3.40518e+7 
            506      9.12705e+7 
            512      6.93779e+8 
            520      6.72052e+8 
            530      6.61389e+8 
            540       6.3867e+8 
            550      8.68645e+8 
            560      1.05604e+9 
            570      1.13192e+9 
            580      1.01927e+9 
            590      1.20811e+9 
            600      1.06447e+9 
            610      1.33065e+9 
            620      1.49947e+9 
            630      1.50578e+9 
            640      1.38202e+9 
            650      1.29773e+9 
            658      1.34372e+9 
            665      1.59534e+9 
            675      1.69717e+9 
            685       1.5127e+9 
            695      2.03088e+9 
            705      1.70983e+9 
            716      2.22684e+9 
            726      2.15863e+9 
            735      2.24549e+9 
            745      2.35564e+9 
            755      2.39279e+9 
            765      2.54307e+9 
            775      2.67174e+9 
            785      2.80384e+9 
            795      2.80777e+9 
            805      2.78461e+9 
            815      2.78356e+9 
            825      3.00437e+9 
            835      2.37171e+9 
            845       2.9492e+9 
            855      2.95359e+9 
            865      3.08453e+9 
            875       3.1771e+9 
            885      3.33283e+9 
            895      3.41402e+9 
            905      3.33936e+9 
            915       4.2473e+9 
            925       2.138e+10 
            935     3.77895e+10 
            945     5.37784e+10 
            955     5.90028e+10 
            965      6.6112e+10 
            975     1.95121e+10 
            985     5.20776e+10 
            995     4.88594e+10 
           1005     5.29124e+10 
           1015      5.5784e+10 
           1025     4.04367e+10 
           1035     5.04521e+10 
           1045     6.35113e+10 
           1055     5.91719e+10 
           1065     4.80218e+10 
           1075     5.26973e+10 
           1085     4.89943e+10 
           1095     5.29767e+10 
           1105     4.91157e+10 
           1115     4.75478e+10 
           1125     3.48355e+10 
           1135     4.69484e+10 
           1145     4.36521e+10 
           1155     4.27159e+10 
           1165     4.26353e+10 
           1175     2.60137e+10 
           1185     3.88956e+10 
           1195     3.70655e+10 
           1205     3.09733e+10 
           1215     2.60557e+10 
           1225     3.50012e+10 
           1235      3.7865e+10 
           1245     3.62505e+10 
           1255     3.61104e+10 
           1265      3.6773e+10 
           1275     3.78439e+10 
           1285     3.74921e+10 
           1295     3.04569e+10 
           1305     3.21885e+10 
           1315     3.65177e+10 
           1325     3.46081e+10 
           1335     3.36477e+10 
           1345      3.3168e+10 
           1355      3.3027e+10 
           1365     3.09819e+10 
           1375     2.98554e+10 
           1385     2.83653e+10 
           1395     1.76484e+10 
           1405     2.01721e+10 
           1415     2.64885e+10 
           1425      2.4684e+10 
           1435     2.61249e+10 
           1442     2.64172e+10 
           1447     2.60964e+10 
           1455     2.48866e+10 
           1465     2.36195e+10 
           1475     2.40483e+10 
           1485     2.37631e+10 
           1495     2.30654e+10 
           1505     2.14858e+10 
           1512     2.02607e+10 
           1517     2.06578e+10 
           1525     2.04756e+10 
           1535     1.74405e+10 
           1545     1.59907e+10 
           1555     1.56143e+10 
           1565     1.72304e+10 
           1575     1.82941e+10 
           1585      1.8181e+10 
           1595     1.81477e+10 
           1605     1.76049e+10 
           1615     1.68459e+10 
           1625     1.69773e+10 
           1635       1.752e+10 
           1645      1.7504e+10 
           1655     1.73467e+10 
           1665     1.71702e+10 
           1672      1.6101e+10 
           1677     1.84351e+10 
           1685     1.75307e+10 
           1695      1.6695e+10 
           1705     1.63779e+10 
           1715     1.55842e+10 
           1725      1.5023e+10 
           1735     1.55236e+10 
           1745     1.53499e+10 
           1755     1.52232e+10 
           1765     1.50499e+10 
           1775     1.42519e+10 
           1785     1.44592e+10 
           1795     1.44283e+10 
           1805     1.44793e+10 
           1815     1.35243e+10 
           1825     1.36785e+10 
           1835     1.34269e+10 
           1845     1.23056e+10 
           1855     1.26243e+10 
           1865     1.27482e+10 
           1875     1.26758e+10 
           1885     1.16447e+10 
           1895     1.10039e+10 
           1905     1.16506e+10 
           1915     1.11286e+10 
           1925     1.04795e+10 
           1935     1.11543e+10 
           1945     1.14074e+10 
           1955     1.02166e+10 
           1967     1.08849e+10 
           1976     1.13919e+10 
           1984     1.06226e+10 
           1995     1.04367e+10 
           2005     1.06505e+10 
           2015     1.06249e+10 
           2025     1.07232e+10 
           2035      9.98129e+9 
           2045      9.99921e+9 
           2055      8.93244e+9 
           2065      8.79869e+9 
           2074       9.1978e+9 
           2078      8.73842e+9 
           2085      9.14867e+9 
           2095      9.02892e+9 
           2105      9.33104e+9 
           2115      9.36091e+9 
           2125      9.32641e+9 
           2135      9.17644e+9 
           2145      8.84544e+9 
           2155      9.03935e+9 
           2165      8.83065e+9 
           2175      8.78149e+9 
           2185      8.57662e+9 
           2195      8.64096e+9 
           2205      8.54804e+9 
           2215      8.36123e+9 
           2225      8.22688e+9 
           2235      8.07575e+9 
           2245      8.05778e+9 
           2255      7.83756e+9 
           2265      7.84562e+9 
           2275      7.74549e+9 
           2285      7.58549e+9 
           2295      6.79576e+9 
           2305      7.31758e+9 
           2315      7.19685e+9 
           2325      7.14414e+9 
           2335      6.99671e+9 
           2345      7.01458e+9 
           2355      6.90554e+9 
           2365        6.821e+9 
           2375      6.66617e+9 
           2385      6.53376e+9 
           2395      6.46565e+9 
           2405      6.42456e+9 
           2415      6.29628e+9 
           2425      6.26425e+9 
           2435      6.12154e+9 
           2445      6.07995e+9 
           2455      6.02165e+9 
           2465      5.94213e+9 
           2475      5.83032e+9 
           2485      5.63414e+9 
           2495       4.0824e+9 
           2505      5.32708e+9 
           2513      5.28731e+9 
           2518      5.37846e+9 
           2525      5.46503e+9 
           2535       5.4363e+9 
           2545      5.22824e+9 
           2555      5.24695e+9 
           2565      5.16323e+9 
           2575      5.15099e+9 
           2585      5.09278e+9 
           2595      5.02658e+9 
           2605      4.99145e+9 
           2615      4.90041e+9 
           2625      4.85964e+9 
           2635      4.79705e+9 
           2645      4.72752e+9 
           2655      4.67177e+9 
           2665      4.52788e+9 
           2675      4.48956e+9 
           2685      4.49663e+9 
           2695       4.3561e+9 
           2705      4.29677e+9 
           2715       4.2731e+9 
           2725      4.23205e+9 
           2735      4.17528e+9 
           2745      4.14376e+9 
           2755      4.10391e+9 
           2765      4.03495e+9 
           2775      4.04526e+9 
           2785      3.96817e+9 
           2795      3.82057e+9 
           2805       3.8583e+9 
           2815      3.85452e+9 
           2825      3.79466e+9 
           2835      3.69332e+9 
           2845      3.71795e+9 
           2855      3.64443e+9 
           2865      3.61491e+9 
           2875      3.56651e+9 
           2885      3.53106e+9 
           2895      3.48252e+9 
           2910      3.38981e+9 
           2930      3.35581e+9 
           2950      3.25518e+9 
           2970       3.1982e+9 
           2990      3.11152e+9 
           3010      2.99339e+9 
           3030      2.94883e+9 
           3050      2.91328e+9 
           3070      2.87353e+9 
           3090       2.7483e+9 
           3110      2.74415e+9 
           3130      2.66213e+9 
           3150      2.62057e+9 
           3170      2.55619e+9 
           3190      2.50329e+9 
           3210      2.45852e+9 
           3230      2.39346e+9 
           3250      2.36185e+9 
           3270      2.29873e+9 
           3290      2.25566e+9 
           3310      2.20988e+9 
           3330      2.15603e+9 
           3350       2.1159e+9 
           3370      2.06933e+9 
           3390      2.04298e+9 
           3410      2.00169e+9 
           3430       1.9649e+9 
           3450      1.91579e+9 
           3470      1.87975e+9 
           3490      1.84042e+9 
           3510      1.80966e+9 
           3530      1.78547e+9 
           3550      1.74699e+9 
           3570      1.71668e+9 
           3590       1.6711e+9 
           3610      1.64613e+9 
           3630       1.6126e+9 
           3640      1.60543e+9 
           3650      1.57329e+9 
           3670      1.55364e+9 
           3690      1.52152e+9 
           3710      1.46092e+9 
           3730      1.41319e+9 
           3750      1.44686e+9 
           3770      1.42126e+9 
           3790      1.47208e+9 
           3810      1.50917e+9 
           3830      1.35186e+9 
           3850      1.50463e+9 
           3870      1.46273e+9 
           3890       1.2807e+9 
           3910      1.46723e+9 
           3930      1.41729e+9 
           3950      1.38931e+9 
           3970      1.18254e+9 
           3990      1.35674e+9 
           4010      1.34036e+9 
           4030      1.28447e+9 
           4050      1.29619e+9 
           4070      1.23181e+9 
           4090      1.16396e+9 
           4110       1.0658e+9 
           4130      1.18066e+9 
           4150      1.17058e+9 
           4170      1.16757e+9 
           4190      1.14739e+9 
           4210      1.13424e+9 
           4230      1.11127e+9 
           4250      1.07747e+9 
           4270      1.05007e+9 
           4290      1.02943e+9 
           4310      1.00053e+9 
           4330      9.45978e+8 
           4350      8.76358e+8 
           4370      9.57877e+8 
           4390      9.48778e+8 
           4410      9.37925e+8 
           4430      9.32604e+8 
           4450      9.13244e+8 
           4470      8.80919e+8 
           4490      8.87739e+8 
           4510       8.7666e+8 
           4530       8.6633e+8 
           4550      8.51051e+8 
           4570      8.37738e+8 
           4590      8.21566e+8 
           4610      8.03232e+8 
           4630      7.90789e+8 
           4650      7.56961e+8 
           4670      7.65813e+8 
           4690      7.57241e+8 
           4710      7.31158e+8 
           4730       7.3989e+8 
           4750      7.25959e+8 
           4770      7.23261e+8 
           4790      7.11307e+8 
           4810      6.96823e+8 
           4830      6.82263e+8 
           4850      6.49805e+8 
           4870      5.90186e+8 
           4890      6.53429e+8 
           4910        6.456e+8 
           4930      6.26221e+8 
           4950      6.22878e+8 
           4970      6.21291e+8 
           4990      6.11525e+8 
           5010      5.88716e+8 
           5030      5.90923e+8 
           5050      5.80505e+8 
           5070      5.76858e+8 
           5090      5.66779e+8 
           5110      5.58152e+8 
           5130      5.48827e+8 
           5150      5.41703e+8 
           5170       5.3418e+8 
           5190      5.27805e+8 
           5210      5.20138e+8 
           5230      5.13413e+8 
           5250      5.05914e+8 
           5270      4.97904e+8 
           5290      4.92207e+8 
           5310      4.85073e+8 
           5330      4.78655e+8 
           5350      4.71779e+8 
           5370      4.65619e+8 
           5390      4.58254e+8 
           5410      4.51937e+8 
           5430       4.4671e+8 
           5450       4.4014e+8 
           5470      4.34271e+8 
           5490      4.28575e+8 
           5510      4.23248e+8 
           5530        4.171e+8 
           5550      4.12106e+8 
           5570      4.06468e+8 
           5590       4.0084e+8 
           5610      3.95797e+8 
           5630      3.90791e+8 
           5650      3.84925e+8 
           5670      3.78746e+8 
           5690      3.71539e+8 
           5710      3.68166e+8 
           5730      3.64178e+8 
           5750      3.58025e+8 
           5770      3.55333e+8 
           5790      3.50511e+8 
           5810      3.46037e+8 
           5830      3.40963e+8 
           5850      3.37336e+8 
           5870       3.2542e+8 
           5890      3.27265e+8 
           5910      3.24374e+8 
           5930      3.20315e+8 
           5950      3.16313e+8 
           5970      3.13722e+8 
           5990      3.08837e+8 
           6010      3.05701e+8 
           6030      3.01459e+8 
           6050      2.98038e+8 
           6070      2.94687e+8 
           6090       2.9114e+8 
           6110      2.87521e+8 
           6130      2.84154e+8 
           6150      2.79739e+8 
           6170      2.76583e+8 
           6190      2.73786e+8 
           6210      2.70697e+8 
           6230      2.67486e+8 
           6250      2.63906e+8 
           6270      2.60941e+8 
           6290      2.57989e+8 
           6310      2.54634e+8 
           6330      2.51946e+8 
           6350       2.4854e+8 
           6370        2.461e+8 
           6390      2.43141e+8 
           6410      2.40269e+8 
           6430      2.37628e+8 
           6450      2.34808e+8 
           6470      2.31262e+8 
           6490      2.28756e+8 
           6510      2.26162e+8 
           6530      2.22896e+8 
           6550      2.16567e+8 
           6570      1.94688e+8 
           6590      2.14354e+8 
           6610      2.13731e+8 
           6630      2.11578e+8 
           6650      2.08868e+8 
           6670      2.05017e+8 
           6690      2.02792e+8 
           6710      2.02137e+8 
           6730       1.9934e+8 
           6750      1.97888e+8 
           6770       1.9575e+8 
           6790      1.92613e+8 
           6810      1.91272e+8 
           6830      1.88918e+8 
           6850      1.87182e+8 
           6870      1.85073e+8 
           6890      1.82682e+8 
           6910      1.80269e+8 
           6930      1.79215e+8 
           6950      1.77311e+8 
           6970      1.75403e+8 
           6990      1.73476e+8 
           7010      1.71567e+8 
           7030      1.69639e+8 
           7050      1.67898e+8 
           7070      1.63776e+8 
           7090      1.64405e+8 
           7110      1.61983e+8 
           7130      1.60401e+8 
           7150      1.59255e+8 
           7170      1.57547e+8 
           7190      1.55965e+8 
           7210      1.54332e+8 
           7230      1.51116e+8 
           7250      1.50677e+8 
           7270      1.49557e+8 
           7290      1.46909e+8 
           7310      1.46445e+8 
           7330      1.44924e+8 
           7350      1.43453e+8 
           7370      1.42024e+8 
           7390      1.40573e+8 
           7410      1.39136e+8 
           7430      1.37699e+8 
           7450      1.36295e+8 
           7470      1.34081e+8 
           7490      1.33406e+8 
           7510      1.32176e+8 
           7530      1.30757e+8 
           7550      1.29609e+8 
           7570      1.28314e+8 
           7590      1.26965e+8 
           7610      1.25453e+8 
           7630      1.24485e+8 
           7650      1.23217e+8 
           7670      1.22076e+8 
           7690      1.20805e+8 
           7710       1.1964e+8 
           7730      1.18328e+8 
           7750      1.17336e+8 
           7770      1.16046e+8 
           7790      1.15091e+8 
           7810      1.13928e+8 
           7830      1.12873e+8 
           7850       1.1184e+8 
           7870       1.1047e+8 
           7890      1.09281e+8 
           7910      1.08555e+8 
           7930      1.07487e+8 
           7950      1.06493e+8 
           7970       1.0539e+8 
           7990      1.04438e+8 
           8010      1.03401e+8 
           8030      1.02419e+8 
           8050      1.01527e+8 
           8070      1.00596e+8 
           8090      9.95239e+7 
           8110      9.79282e+7 
           8130      9.77947e+7 
           8150      9.67991e+7 
           8170      9.60436e+7 
           8190       9.4508e+7 
           8210      9.37519e+7 
           8230      9.28518e+7 
           8250      9.24132e+7 
           8270      9.05566e+7 
           8290      9.05643e+7 
           8310      8.98779e+7 
           8330      8.90396e+7 
           8350      8.78301e+7 
           8370      8.71904e+7 
           8390      8.66254e+7 
           8410      8.57505e+7 
           8430      8.50154e+7 
           8450      8.37218e+7 
           8470      8.34004e+7 
           8490      8.25793e+7 
           8510      8.15674e+7 
           8530      8.12009e+7 
           8550      7.95691e+7 
           8570      8.04549e+7 
           8590      7.76913e+7 
