# Kurucz ODFNEW /NOVER (2003)
# teff = 35000 K (value for the effective temperature for the model. Temperatures are given in K)
# logg = 5 log(cm/s2) (value for Log(G) for the model.)
# meta = 0  (value for the Metallicity for the model.)
# lh = 1.25  (l/Hp where l is the  mixing length of the convective element and Hp is the pressure scale height)
# vtur = 2 km/s (Microturbulence velocity)
# alpha = 0.4  (Alpha)
#
# column 1: WAVELENGTH (ANGSTROM), Wavelength in Angstrom
# column 2: FLUX (ERG/CM2/S/A), Flux in erg/cm2/s/A
          147.2     0.000174283 
            151      0.00043051 
          155.2      0.00110913 
          158.8      0.00240178 
            162      0.00463476 
            166       0.0102082 
          170.3       0.0227853 
          173.4       0.0399075 
          176.8       0.0724106 
          180.2        0.127595 
          181.7        0.164237 
          186.1        0.328169 
            191        0.684765 
          193.9         1.03869 
          198.4         1.94688 
          201.8         3.05893 
            205         4.61775 
          210.5         9.11933 
          216.2         17.6523 
          219.8         26.6733 
            223         37.8343 
          226.8         57.9402 
            230         18190.5 
            234           41651 
            240         62724.8 
          246.5         98822.7 
          252.4          157420 
          256.8          206925 
            260          313410 
            264          447253 
          268.5          654566 
          273.5          868567 
          278.5      1.04336e+6 
            284      2.04731e+6 
            290      2.82695e+6 
            296      3.56529e+6 
            301      5.07623e+6 
            308      1.01684e+7 
            318       1.9975e+7 
            328      2.73197e+7 
            338      4.51275e+7 
            348      6.52986e+7 
            357      1.22041e+8 
            366      2.39333e+8 
            375      2.72692e+8 
            385      3.78064e+8 
            395      6.68081e+8 
            405      7.86257e+8 
            414      1.01458e+9 
            422      1.08235e+9 
            430      1.17444e+9 
            441      1.37922e+9 
            451      1.53869e+9 
            460      1.56353e+9 
            470      1.77723e+9 
            480      2.00693e+9 
            490      2.06927e+9 
            500      2.46682e+9 
            506      3.31725e+9 
            512     2.08453e+10 
            520     1.91416e+10 
            530     1.74511e+10 
            540      1.6188e+10 
            550     1.79572e+10 
            560     2.23767e+10 
            570     2.33714e+10 
            580     2.15802e+10 
            590     2.27206e+10 
            600     1.77031e+10 
            610     2.13119e+10 
            620     2.49324e+10 
            630       2.413e+10 
            640     2.39383e+10 
            650     2.34598e+10 
            658     1.90095e+10 
            665     2.24721e+10 
            675     2.46977e+10 
            685     2.01682e+10 
            695     2.49915e+10 
            705     1.97769e+10 
            716     2.60625e+10 
            726     2.53237e+10 
            735     2.53601e+10 
            745     2.38116e+10 
            755       2.369e+10 
            765     2.43216e+10 
            775     2.47454e+10 
            785     2.48972e+10 
            795     2.49144e+10 
            805     2.37854e+10 
            815     2.36828e+10 
            825     2.47516e+10 
            835     2.03093e+10 
            845     2.36856e+10 
            855     2.33209e+10 
            865     2.38688e+10 
            875     2.37864e+10 
            885     2.38907e+10 
            895     2.38959e+10 
            905     2.31196e+10 
            915     2.22521e+10 
            925     4.94674e+10 
            935     7.71278e+10 
            945      1.1137e+11 
            955     1.26825e+11 
            965     1.52342e+11 
            975     7.00177e+10 
            985     1.31359e+11 
            995     1.15006e+11 
           1005     1.18835e+11 
           1015     1.23116e+11 
           1025     8.57643e+10 
           1035     1.18021e+11 
           1045     1.34516e+11 
           1055     1.28295e+11 
           1065     1.08569e+11 
           1075       1.139e+11 
           1085     1.03288e+11 
           1095     1.12193e+11 
           1105     1.05979e+11 
           1115     1.03865e+11 
           1125     8.29407e+10 
           1135     9.88245e+10 
           1145     9.32926e+10 
           1155     8.79367e+10 
           1165     8.64224e+10 
           1175     6.20995e+10 
           1185     7.93098e+10 
           1195     7.58062e+10 
           1205     7.15462e+10 
           1215     5.14887e+10 
           1225     6.93245e+10 
           1235      7.3959e+10 
           1245      7.1575e+10 
           1255     7.11517e+10 
           1265     7.18393e+10 
           1275     7.28071e+10 
           1285     7.23012e+10 
           1295     6.64512e+10 
           1305     6.65671e+10 
           1315     6.94103e+10 
           1325     6.65619e+10 
           1335     6.47821e+10 
           1345     6.32476e+10 
           1355     6.25801e+10 
           1365     5.95618e+10 
           1375      5.8027e+10 
           1385     5.59863e+10 
           1395     4.36079e+10 
           1405      4.4957e+10 
           1415     5.29996e+10 
           1425     4.78466e+10 
           1435     5.04056e+10 
           1442     5.00624e+10 
           1447     4.96342e+10 
           1455     4.73567e+10 
           1465     4.62753e+10 
           1475     4.59357e+10 
           1485     4.57889e+10 
           1495     4.43137e+10 
           1505     4.27804e+10 
           1512     4.22352e+10 
           1517     4.21602e+10 
           1525      4.0867e+10 
           1535     3.61104e+10 
           1545     3.15316e+10 
           1555     3.14686e+10 
           1565     3.40025e+10 
           1575      3.5185e+10 
           1585     3.48608e+10 
           1595     3.49626e+10 
           1605     3.30571e+10 
           1615     3.15195e+10 
           1625     3.19745e+10 
           1635      3.1865e+10 
           1645     3.14091e+10 
           1655     3.18807e+10 
           1665     3.09961e+10 
           1672     2.91497e+10 
           1677     3.28233e+10 
           1685     3.15252e+10 
           1695     3.04672e+10 
           1705     2.98219e+10 
           1715     2.88091e+10 
           1725     2.74531e+10 
           1735     2.83302e+10 
           1745     2.80324e+10 
           1755      2.7457e+10 
           1765     2.69121e+10 
           1775     2.61016e+10 
           1785     2.62462e+10 
           1795     2.56424e+10 
           1805     2.55002e+10 
           1815      2.4814e+10 
           1825     2.43765e+10 
           1835     2.42357e+10 
           1845     2.30374e+10 
           1855     2.30547e+10 
           1865     2.29944e+10 
           1875     2.23929e+10 
           1885       2.147e+10 
           1895     2.10541e+10 
           1905     2.13984e+10 
           1915     2.07091e+10 
           1925       1.955e+10 
           1935     2.04019e+10 
           1945     2.04884e+10 
           1955     1.89448e+10 
           1967     1.94602e+10 
           1976     1.97281e+10 
           1984     1.90506e+10 
           1995     1.85524e+10 
           2005     1.87314e+10 
           2015     1.85933e+10 
           2025     1.84027e+10 
           2035     1.77893e+10 
           2045     1.75148e+10 
           2055     1.43135e+10 
           2065     1.37723e+10 
           2074     1.39885e+10 
           2078     1.38492e+10 
           2085     1.42633e+10 
           2095     1.48648e+10 
           2105     1.58122e+10 
           2115     1.59999e+10 
           2125     1.55793e+10 
           2135     1.54932e+10 
           2145      1.5223e+10 
           2155     1.51348e+10 
           2165     1.44898e+10 
           2175     1.47255e+10 
           2185      1.4236e+10 
           2195     1.44311e+10 
           2205     1.42137e+10 
           2215     1.35957e+10 
           2225     1.37561e+10 
           2235     1.35571e+10 
           2245     1.33335e+10 
           2255     1.28021e+10 
           2265     1.29669e+10 
           2275     1.28043e+10 
           2285     1.24205e+10 
           2295     1.15357e+10 
           2305     1.18329e+10 
           2315     1.18708e+10 
           2325      1.1801e+10 
           2335     1.16393e+10 
           2345     1.14916e+10 
           2355     1.12787e+10 
           2365      1.1098e+10 
           2375     1.08652e+10 
           2385     1.03636e+10 
           2395     1.04546e+10 
           2405     1.04499e+10 
           2415     1.02595e+10 
           2425     1.01802e+10 
           2435      9.98495e+9 
           2445      9.87887e+9 
           2455      9.72292e+9 
           2465      9.62063e+9 
           2475      9.47416e+9 
           2485      9.23274e+9 
           2495      7.22833e+9 
           2505      8.81213e+9 
           2513      8.42145e+9 
           2518      8.57045e+9 
           2525      8.82494e+9 
           2535      8.75428e+9 
           2545      8.54021e+9 
           2555      8.45907e+9 
           2565      8.33941e+9 
           2575      8.27022e+9 
           2585      8.17197e+9 
           2595      8.01288e+9 
           2605      7.97202e+9 
           2615      7.82302e+9 
           2625      7.75588e+9 
           2635      7.65805e+9 
           2645      7.54048e+9 
           2655      7.45065e+9 
           2665      7.29035e+9 
           2675      7.12959e+9 
           2685      7.13982e+9 
           2695       6.9946e+9 
           2705      6.93526e+9 
           2715      6.84082e+9 
           2725      6.73135e+9 
           2735      6.55228e+9 
           2745      6.61412e+9 
           2755      6.52251e+9 
           2765      6.41185e+9 
           2775      6.39263e+9 
           2785      6.27735e+9 
           2795      6.06421e+9 
           2805      6.10005e+9 
           2815      6.06915e+9 
           2825      5.97102e+9 
           2835      5.86195e+9 
           2845      5.85898e+9 
           2855      5.76162e+9 
           2865      5.67924e+9 
           2875      5.60835e+9 
           2885      5.54827e+9 
           2895      5.46775e+9 
           2910      5.33278e+9 
           2930      5.25935e+9 
           2950        5.103e+9 
           2970      4.99735e+9 
           2990      4.84939e+9 
           3010      4.70033e+9 
           3030       4.5794e+9 
           3050      4.51792e+9 
           3070      4.44326e+9 
           3090       4.2936e+9 
           3110        4.244e+9 
           3130      4.12419e+9 
           3150      4.04882e+9 
           3170      3.95066e+9 
           3190      3.86425e+9 
           3210      3.75775e+9 
           3230      3.69583e+9 
           3250      3.63372e+9 
           3270        3.523e+9 
           3290      3.46571e+9 
           3310      3.38806e+9 
           3330      3.30532e+9 
           3350      3.22754e+9 
           3370       3.1645e+9 
           3390      3.11881e+9 
           3410      3.05013e+9 
           3430      2.99596e+9 
           3450      2.91325e+9 
           3470      2.86431e+9 
           3490      2.80652e+9 
           3510      2.75172e+9 
           3530      2.70491e+9 
           3550      2.64528e+9 
           3570      2.59805e+9 
           3590      2.53276e+9 
           3610      2.49006e+9 
           3630      2.43468e+9 
           3640      2.40978e+9 
           3650      2.31088e+9 
           3670      2.27483e+9 
           3690      2.23167e+9 
           3710       2.1523e+9 
           3730      2.12303e+9 
           3750      2.09099e+9 
           3770      2.02711e+9 
           3790      2.06935e+9 
           3810      2.11196e+9 
           3830      1.91029e+9 
           3850      2.10905e+9 
           3870      2.06691e+9 
           3890      1.78066e+9 
           3910      2.06847e+9 
           3930      2.02518e+9 
           3950      1.95561e+9 
           3970      1.63854e+9 
           3990      1.91156e+9 
           4010      1.89244e+9 
           4030      1.80579e+9 
           4050      1.84082e+9 
           4070      1.75778e+9 
           4090      1.63266e+9 
           4110       1.4913e+9 
           4130      1.67779e+9 
           4150      1.66122e+9 
           4170      1.65594e+9 
           4190      1.61974e+9 
           4210       1.5891e+9 
           4230      1.57289e+9 
           4250      1.52663e+9 
           4270      1.49397e+9 
           4290      1.46478e+9 
           4310      1.42368e+9 
           4330      1.31907e+9 
           4350      1.22672e+9 
           4370      1.36071e+9 
           4390      1.33057e+9 
           4410      1.32372e+9 
           4430      1.31362e+9 
           4450      1.28854e+9 
           4470      1.23182e+9 
           4490      1.24834e+9 
           4510      1.22729e+9 
           4530      1.21321e+9 
           4550      1.18319e+9 
           4570      1.17518e+9 
           4590      1.15203e+9 
           4610      1.12813e+9 
           4630      1.10258e+9 
           4650      1.05378e+9 
           4670      1.07208e+9 
           4690      1.04558e+9 
           4710      1.02827e+9 
           4730      1.03782e+9 
           4750      1.01926e+9 
           4770      1.00813e+9 
           4790      9.91899e+8 
           4810       9.7209e+8 
           4830      9.49474e+8 
           4850      8.87014e+8 
           4870      8.07819e+8 
           4890      9.04812e+8 
           4910       8.9594e+8 
           4930      8.68907e+8 
           4950      8.68373e+8 
           4970      8.63014e+8 
           4990      8.49771e+8 
           5010      8.21642e+8 
           5030      8.19692e+8 
           5050      8.07008e+8 
           5070      8.00185e+8 
           5090       7.8722e+8 
           5110      7.75429e+8 
           5130      7.63611e+8 
           5150      7.52578e+8 
           5170      7.40805e+8 
           5190      7.31218e+8 
           5210      7.20993e+8 
           5230      7.10862e+8 
           5250      6.99401e+8 
           5270      6.88799e+8 
           5290      6.80787e+8 
           5310      6.70845e+8 
           5330      6.61444e+8 
           5350      6.52085e+8 
           5370      6.42939e+8 
           5390      6.33314e+8 
           5410      6.18239e+8 
           5430      6.16351e+8 
           5450      6.07587e+8 
           5470      5.99098e+8 
           5490      5.90953e+8 
           5510        5.827e+8 
           5530      5.74822e+8 
           5550       5.6725e+8 
           5570      5.59419e+8 
           5590      5.50589e+8 
           5610      5.44492e+8 
           5630      5.37219e+8 
           5650      5.29752e+8 
           5670      5.22014e+8 
           5690      5.10135e+8 
           5710      4.99346e+8 
           5730      4.93354e+8 
           5750      4.85962e+8 
           5770      4.80891e+8 
           5790      4.74506e+8 
           5810      4.67908e+8 
           5830      4.61411e+8 
           5850      4.56622e+8 
           5870      4.40155e+8 
           5890      4.44132e+8 
           5910      4.40031e+8 
           5930      4.35139e+8 
           5950      4.30229e+8 
           5970      4.26093e+8 
           5990      4.20953e+8 
           6010      4.16665e+8 
           6030       4.1174e+8 
           6050       4.0755e+8 
           6070      4.02793e+8 
           6090      3.97877e+8 
           6110      3.92774e+8 
           6130      3.88029e+8 
           6150      3.82541e+8 
           6170      3.77987e+8 
           6190      3.73789e+8 
           6210      3.69343e+8 
           6230      3.64753e+8 
           6250      3.60021e+8 
           6270      3.55869e+8 
           6290       3.5159e+8 
           6310      3.47094e+8 
           6330      3.43203e+8 
           6350      3.38765e+8 
           6370      3.35062e+8 
           6390      3.31021e+8 
           6410      3.26997e+8 
           6430      3.23244e+8 
           6450      3.19313e+8 
           6470      3.14975e+8 
           6490      3.11284e+8 
           6510       3.0701e+8 
           6530      3.02216e+8 
           6550      2.90311e+8 
           6570      2.61926e+8 
           6590      2.90527e+8 
           6610      2.89789e+8 
           6630      2.87246e+8 
           6650        2.838e+8 
           6670      2.77334e+8 
           6690      2.74196e+8 
           6710      2.73677e+8 
           6730      2.70506e+8 
           6750      2.68004e+8 
           6770      2.65223e+8 
           6790      2.61751e+8 
           6810      2.59265e+8 
           6830      2.56214e+8 
           6850      2.53476e+8 
           6870       2.5055e+8 
           6890      2.46994e+8 
           6910      2.44312e+8 
           6930      2.42496e+8 
           6950      2.39823e+8 
           6970      2.37192e+8 
           6990      2.34534e+8 
           7010      2.31772e+8 
           7030      2.29113e+8 
           7050      2.26663e+8 
           7070      2.21433e+8 
           7090      2.22074e+8 
           7110       2.1953e+8 
           7130      2.17233e+8 
           7150       2.1501e+8 
           7170      2.12376e+8 
           7190      2.10241e+8 
           7210      2.08199e+8 
           7230      2.04901e+8 
           7250        2.035e+8 
           7270      2.01655e+8 
           7290      1.98246e+8 
           7310       1.9736e+8 
           7330      1.95338e+8 
           7350      1.93286e+8 
           7370      1.91288e+8 
           7390      1.89316e+8 
           7410      1.87335e+8 
           7430      1.85414e+8 
           7450      1.83435e+8 
           7470      1.81118e+8 
           7490      1.79339e+8 
           7510      1.77844e+8 
           7530       1.7599e+8 
           7550      1.74306e+8 
           7570      1.72512e+8 
           7590      1.70198e+8 
           7610      1.68732e+8 
           7630      1.67266e+8 
           7650      1.65549e+8 
           7670      1.63989e+8 
           7690      1.62003e+8 
           7710      1.60612e+8 
           7730       1.5861e+8 
           7750      1.57522e+8 
           7770      1.55982e+8 
           7790      1.54468e+8 
           7810      1.52906e+8 
           7830      1.51444e+8 
           7850      1.49964e+8 
           7870      1.48224e+8 
           7890      1.46771e+8 
           7910      1.45627e+8 
           7930      1.44192e+8 
           7950      1.42871e+8 
           7970      1.41378e+8 
           7990      1.40052e+8 
           8010      1.38725e+8 
           8030      1.37363e+8 
           8050      1.36112e+8 
           8070      1.34801e+8 
           8090      1.33422e+8 
           8110      1.31533e+8 
           8130      1.30967e+8 
           8150       1.2965e+8 
           8170       1.2848e+8 
           8190      1.26696e+8 
           8210      1.24917e+8 
           8230      1.23487e+8 
           8250      1.22723e+8 
           8270      1.21012e+8 
           8290        1.205e+8 
           8310      1.19534e+8 
           8330      1.18249e+8 
           8350      1.16851e+8 
           8370      1.16041e+8 
           8390       1.1521e+8 
           8410      1.14087e+8 
           8430      1.13112e+8 
           8450      1.11669e+8 
           8470       1.1109e+8 
           8490      1.09972e+8 
           8510      1.08789e+8 
           8530      1.07949e+8 
           8550      1.06991e+8 
           8570      1.06271e+8 
           8590      1.04312e+8 
