# Kurucz ODFNEW /NOVER (2003)
# teff = 8250 K (value for the effective temperature for the model. Temperatures are given in K)
# logg = 4.5 log(cm/s2) (value for Log(G) for the model.)
# meta = -0.5  (value for the Metallicity for the model.)
# lh = 1.25  (l/Hp where l is the  mixing length of the convective element and Hp is the pressure scale height)
# vtur = 2 km/s (Microturbulence velocity)
# alpha = 0.4  (Alpha)
#
# column 1: WAVELENGTH (ANGSTROM), Wavelength in Angstrom
# column 2: FLUX (ERG/CM2/S/A), Flux in erg/cm2/s/A
            318     2.44648e-23 
            328     3.68942e-22 
            338     3.82223e-21 
            348     3.42747e-20 
            357     2.21328e-19 
            366     1.29981e-18 
            375     6.99076e-18 
            385     4.11969e-17 
            395     2.45342e-17 
            405     1.10167e-16 
            414     3.98586e-16 
            422     1.18937e-15 
            430      3.3977e-15 
            441     1.34621e-14 
            451     4.41794e-14 
            460     1.22775e-13 
            470     3.63853e-13 
            480     1.02647e-12 
            490     2.76734e-12 
            500     7.13932e-12 
            506     1.63678e-11 
            512     3.15287e-11 
            520     6.28403e-11 
            530      1.4522e-10 
            540      3.1876e-10 
            550      6.8759e-10 
            560      1.42967e-9 
            570      2.88907e-9 
            580      5.61611e-9 
            590       1.0896e-8 
            600      2.03915e-8 
            610      3.73176e-8 
            620      6.67822e-8 
            630      1.17072e-7 
            640      2.01315e-7 
            650       3.3985e-7 
            658      5.09993e-7 
            665      7.20201e-7 
            675      1.16452e-6 
            685      1.85368e-6 
            695      2.90519e-6 
            705      4.47368e-6 
            716      7.12158e-6 
            726      1.06906e-5 
            735      1.52442e-5 
            745      2.23469e-5 
            755      3.23914e-5 
            765      4.64338e-5 
            775      6.58465e-5 
            785       9.2479e-5 
            795     0.000127475 
            805     0.000176364 
            815     0.000241184 
            825     0.000326208 
            835     0.000437405 
            845       0.0005818 
            855      0.00076776 
            865      0.00100559 
            875      0.00130424 
            885      0.00168782 
            895      0.00216441 
            905       0.0027517 
            915          1.2372 
            925         6.02679 
            935         8.53456 
            945         11.6964 
            955         16.0143 
            965         20.5124 
            975         22.4954 
            985         30.4707 
            995         35.8828 
           1005         46.1538 
           1015         55.4841 
           1025         57.1678 
           1035           79.61 
           1045         96.9953 
           1055         116.127 
           1065         135.805 
           1075         164.276 
           1085         195.935 
           1095         226.196 
           1105         564.126 
           1115         1513.46 
           1125         2011.78 
           1135         2693.41 
           1145         3219.24 
           1155         3387.96 
           1165         4254.64 
           1175         4728.82 
           1185         4834.72 
           1195         2452.29 
           1205         2022.89 
           1215         471.861 
           1225         2214.37 
           1235         5434.23 
           1245         9685.19 
           1255         15545.9 
           1265         16364.5 
           1275         22957.8 
           1285         31181.5 
           1295         36926.6 
           1305         33905.2 
           1315         46236.5 
           1325         53472.2 
           1335         59121.3 
           1345         68335.1 
           1355         70814.3 
           1365         78157.4 
           1375         84847.7 
           1385           90536 
           1395          100920 
           1405          109922 
           1415          118145 
           1425          127774 
           1435          129550 
           1442          147228 
           1447          152017 
           1455          166316 
           1465          169988 
           1475          182735 
           1485          196716 
           1495          215905 
           1505          233686 
           1512          239536 
           1517          252906 
           1525          265324 
           1535          406225 
           1545          724364 
           1555          696444 
           1565          625999 
           1575          924167 
           1585      1.13513e+6 
           1595      1.17713e+6 
           1605      1.30883e+6 
           1615      1.79047e+6 
           1625      2.27853e+6 
           1635      3.58124e+6 
           1645      7.61318e+6 
           1655      5.19742e+6 
           1665      9.87149e+6 
           1672      6.72244e+6 
           1677      1.23154e+7 
           1685      1.59358e+7 
           1695      1.12782e+7 
           1705      1.50133e+7 
           1715      2.06282e+7 
           1725      2.12152e+7 
           1735      2.61939e+7 
           1745      2.49604e+7 
           1755      2.99803e+7 
           1765      2.11207e+7 
           1775      2.80925e+7 
           1785      2.92506e+7 
           1795      3.37288e+7 
           1805      2.80891e+7 
           1815      2.93861e+7 
           1825      2.66907e+7 
           1835      2.73706e+7 
           1845      2.33595e+7 
           1855       2.6719e+7 
           1865       2.9532e+7 
           1875      2.93797e+7 
           1885      3.01428e+7 
           1895        3.099e+7 
           1905      2.84201e+7 
           1915      3.19805e+7 
           1925      3.23658e+7 
           1935      2.73545e+7 
           1945      3.38377e+7 
           1955      3.38167e+7 
           1967      3.59779e+7 
           1976      3.45394e+7 
           1984      3.33244e+7 
           1995      3.29437e+7 
           2005      3.10678e+7 
           2015      3.11369e+7 
           2025      2.85223e+7 
           2035      3.25756e+7 
           2045      3.47513e+7 
           2055      3.30464e+7 
           2065      3.27783e+7 
           2074      3.62158e+7 
           2078      3.74454e+7 
           2085      3.63304e+7 
           2095      3.47707e+7 
           2105      3.27925e+7 
           2115      3.34298e+7 
           2125      3.39919e+7 
           2135      2.83277e+7 
           2145      3.32152e+7 
           2155      3.27211e+7 
           2165      3.04206e+7 
           2175      3.01551e+7 
           2185      3.20031e+7 
           2195      3.43168e+7 
           2205      3.28277e+7 
           2215      2.94774e+7 
           2225      2.99245e+7 
           2235      3.44532e+7 
           2245      3.07803e+7 
           2255      2.92892e+7 
           2265      2.87558e+7 
           2275      3.10664e+7 
           2285      3.25448e+7 
           2295      2.95767e+7 
           2305      3.06431e+7 
           2315      3.04133e+7 
           2325      2.98986e+7 
           2335      2.78811e+7 
           2345      2.41451e+7 
           2355      3.00289e+7 
           2365      2.53792e+7 
           2375      2.80746e+7 
           2385      2.28784e+7 
           2395      2.54804e+7 
           2405      2.47231e+7 
           2415      2.49554e+7 
           2425       2.8319e+7 
           2435      2.69737e+7 
           2445      2.90196e+7 
           2455      2.84143e+7 
           2465      2.87521e+7 
           2475      2.65855e+7 
           2485      2.73657e+7 
           2495      2.61404e+7 
           2505      3.05309e+7 
           2513      2.60882e+7 
           2518      2.57191e+7 
           2525      2.38661e+7 
           2535      2.25731e+7 
           2545      2.13386e+7 
           2555      2.40054e+7 
           2565      2.47634e+7 
           2575      2.83924e+7 
           2585      2.90881e+7 
           2595        2.871e+7 
           2605      2.71904e+7 
           2615      2.62628e+7 
           2625       2.9748e+7 
           2635      2.98276e+7 
           2645      3.41597e+7 
           2655      3.45581e+7 
           2665      3.05607e+7 
           2675      3.23985e+7 
           2685      3.29629e+7 
           2695      3.01528e+7 
           2705      3.12483e+7 
           2715      2.89717e+7 
           2725      2.93555e+7 
           2735      3.17748e+7 
           2745      2.60275e+7 
           2755      2.71617e+7 
           2765      2.83679e+7 
           2775      3.05537e+7 
           2785      2.75676e+7 
           2795      1.40246e+7 
           2805      1.76169e+7 
           2815      3.12609e+7 
           2825      3.26577e+7 
           2835      3.17617e+7 
           2845      3.01718e+7 
           2855      2.74188e+7 
           2865      3.13478e+7 
           2875      3.07459e+7 
           2885      3.12229e+7 
           2895      3.02016e+7 
           2910      3.37193e+7 
           2930      3.21538e+7 
           2950      3.20072e+7 
           2970      3.28204e+7 
           2990      3.28067e+7 
           3010      3.30233e+7 
           3030      3.29015e+7 
           3050       3.2748e+7 
           3070      3.26489e+7 
           3090       3.2939e+7 
           3110      3.21724e+7 
           3130      3.22375e+7 
           3150      3.27482e+7 
           3170      3.26047e+7 
           3190      3.08133e+7 
           3210      3.15936e+7 
           3230      3.03878e+7 
           3250      3.13778e+7 
           3270      3.18213e+7 
           3290       3.2139e+7 
           3310      3.23759e+7 
           3330       3.1555e+7 
           3350      3.10581e+7 
           3370      3.09109e+7 
           3390      3.09026e+7 
           3410      3.12021e+7 
           3430      3.13881e+7 
           3450      3.10075e+7 
           3470      3.06833e+7 
           3490      3.06494e+7 
           3510      3.10157e+7 
           3530      3.08255e+7 
           3550      3.12444e+7 
           3570      3.02066e+7 
           3590      3.00025e+7 
           3610      3.00641e+7 
           3630      3.01426e+7 
           3640      2.97583e+7 
           3650      3.06671e+7 
           3670      3.05632e+7 
           3690      2.94193e+7 
           3710      2.93794e+7 
           3730      2.87619e+7 
           3750      3.44059e+7 
           3770       3.6271e+7 
           3790      4.36971e+7 
           3810      5.05607e+7 
           3830       4.0226e+7 
           3850      5.58264e+7 
           3870      6.26109e+7 
           3890      3.68661e+7 
           3910      6.27361e+7 
           3930      5.73769e+7 
           3950       6.2783e+7 
           3970      3.46734e+7 
           3990      6.15376e+7 
           4010       7.0962e+7 
           4030      7.16697e+7 
           4050      7.06444e+7 
           4070      6.63903e+7 
           4090      5.13225e+7 
           4110      3.96041e+7 
           4130      6.30507e+7 
           4150      6.76746e+7 
           4170      6.79607e+7 
           4190      6.74251e+7 
           4210      6.73578e+7 
           4230       6.5619e+7 
           4250      6.56411e+7 
           4270      6.40214e+7 
           4290      6.26583e+7 
           4310       5.7083e+7 
           4330      4.36128e+7 
           4350      3.73653e+7 
           4370      5.70946e+7 
           4390      5.97267e+7 
           4410      5.97886e+7 
           4430      5.94324e+7 
           4450      5.96299e+7 
           4470      5.94312e+7 
           4490      5.86581e+7 
           4510      5.91281e+7 
           4530      5.76709e+7 
           4550      5.68538e+7 
           4570      5.74829e+7 
           4590      5.63178e+7 
           4610      5.67555e+7 
           4630      5.55457e+7 
           4650      5.55254e+7 
           4670      5.51597e+7 
           4690      5.36524e+7 
           4710      5.17576e+7 
           4730      5.32606e+7 
           4750      5.28164e+7 
           4770      5.20383e+7 
           4790      5.11252e+7 
           4810      4.96833e+7 
           4830      4.66469e+7 
           4850      3.59521e+7 
           4870      2.91908e+7 
           4890       4.3688e+7 
           4910      4.69222e+7 
           4930      4.69918e+7 
           4950      4.73985e+7 
           4970       4.7547e+7 
           4990      4.65993e+7 
           5010      4.54745e+7 
           5030      4.59713e+7 
           5050      4.52888e+7 
           5070      4.54319e+7 
           5090       4.4968e+7 
           5110      4.46744e+7 
           5130      4.39918e+7 
           5150      4.33525e+7 
           5170      4.20987e+7 
           5190      4.17735e+7 
           5210      4.20224e+7 
           5230      4.14455e+7 
           5250      4.18069e+7 
           5270      3.99207e+7 
           5290      4.09145e+7 
           5310      4.03985e+7 
           5330      3.91557e+7 
           5350      3.97927e+7 
           5370      3.92721e+7 
           5390      3.89281e+7 
           5410      3.81581e+7 
           5430      3.81969e+7 
           5450      3.79995e+7 
           5470      3.76768e+7 
           5490      3.73141e+7 
           5510      3.70921e+7 
           5530      3.66001e+7 
           5550      3.65349e+7 
           5570      3.60289e+7 
           5590      3.55027e+7 
           5610       3.5359e+7 
           5630      3.52615e+7 
           5650      3.48955e+7 
           5670      3.44458e+7 
           5690      3.42635e+7 
           5710      3.39152e+7 
           5730       3.3812e+7 
           5750      3.33664e+7 
           5770      3.31559e+7 
           5790       3.2844e+7 
           5810      3.25949e+7 
           5830      3.23317e+7 
           5850        3.198e+7 
           5870      3.17198e+7 
           5890      3.11258e+7 
           5910      3.11884e+7 
           5930      3.09184e+7 
           5950      3.06247e+7 
           5970      3.03923e+7 
           5990      3.00837e+7 
           6010      2.97857e+7 
           6030      2.95305e+7 
           6050      2.93098e+7 
           6070      2.91303e+7 
           6090      2.88458e+7 
           6110      2.85604e+7 
           6130      2.81427e+7 
           6150      2.77488e+7 
           6170      2.75445e+7 
           6190      2.76539e+7 
           6210      2.74165e+7 
           6230      2.71039e+7 
           6250      2.66655e+7 
           6270      2.67438e+7 
           6290      2.65254e+7 
           6310      2.62185e+7 
           6330      2.60145e+7 
           6350      2.56098e+7 
           6370      2.54539e+7 
           6390      2.53806e+7 
           6410      2.50309e+7 
           6430      2.48818e+7 
           6450      2.43972e+7 
           6470      2.42727e+7 
           6490       2.3897e+7 
           6510      2.35015e+7 
           6530      2.24752e+7 
           6550      1.92525e+7 
           6570      1.55318e+7 
           6590      2.10771e+7 
           6610      2.23578e+7 
           6630      2.26345e+7 
           6650      2.26289e+7 
           6670      2.25137e+7 
           6690      2.23995e+7 
           6710      2.22335e+7 
           6730      2.20741e+7 
           6750      2.18269e+7 
           6770       2.1768e+7 
           6790      2.15934e+7 
           6810      2.14197e+7 
           6830      2.12395e+7 
           6850      2.10675e+7 
           6870      2.09218e+7 
           6890      2.07585e+7 
           6910      2.05943e+7 
           6930      2.04238e+7 
           6950      2.02706e+7 
           6970       2.0104e+7 
           6990      1.99591e+7 
           7010      1.96997e+7 
           7030      1.96167e+7 
           7050      1.94874e+7 
           7070      1.93366e+7 
           7090      1.91932e+7 
           7110      1.88737e+7 
           7130      1.88554e+7 
           7150      1.86867e+7 
           7170      1.85518e+7 
           7190       1.8405e+7 
           7210      1.82828e+7 
           7230      1.81457e+7 
           7250      1.79777e+7 
           7270      1.78917e+7 
           7290      1.76951e+7 
           7310      1.76132e+7 
           7330      1.74591e+7 
           7350      1.73635e+7 
           7370      1.72354e+7 
           7390      1.70746e+7 
           7410      1.68817e+7 
           7430      1.67609e+7 
           7450       1.6669e+7 
           7470      1.65218e+7 
           7490      1.64095e+7 
           7510      1.63276e+7 
           7530      1.62157e+7 
           7550      1.61127e+7 
           7570      1.59784e+7 
           7590      1.58701e+7 
           7610      1.57452e+7 
           7630      1.56381e+7 
           7650      1.55018e+7 
           7670      1.53531e+7 
           7690      1.52409e+7 
           7710      1.51613e+7 
           7730      1.50666e+7 
           7750      1.49356e+7 
           7770      1.45518e+7 
           7790      1.47497e+7 
           7810      1.46279e+7 
           7830      1.45066e+7 
           7850       1.4382e+7 
           7870      1.42573e+7 
           7890      1.41319e+7 
           7910      1.40768e+7 
           7930      1.39112e+7 
           7950      1.38216e+7 
           7970      1.38099e+7 
           7990      1.36116e+7 
           8010       1.3603e+7 
           8030      1.34927e+7 
           8050      1.34036e+7 
           8070      1.33135e+7 
           8090      1.32179e+7 
           8110      1.31316e+7 
           8130      1.30505e+7 
           8150      1.29553e+7 
           8170      1.28638e+7 
           8190      1.26673e+7 
           8210      1.26046e+7 
           8230      1.25111e+7 
           8250      1.24339e+7 
           8270      1.24548e+7 
           8290      1.23663e+7 
           8310      1.22572e+7 
           8330      1.21186e+7 
           8350      1.21093e+7 
           8370      1.20482e+7 
           8390      1.19395e+7 
           8410      1.18689e+7 
           8430      1.17639e+7 
           8450      1.15452e+7 
           8470      1.15296e+7 
           8490      1.15193e+7 
           8510      1.10875e+7 
           8530      1.13903e+7 
           8550      1.03888e+7 
           8570      1.13709e+7 
           8590      1.08462e+7 
           8610      1.06531e+7 
           8630      1.12675e+7 
           8650      1.08856e+7 
           8670      9.38705e+6 
           8690      1.08585e+7 
           8710      1.12015e+7 
           8730      1.07834e+7 
           8750       8.9613e+6 
           8770      1.03507e+7 
           8790      1.10243e+7 
           8810      1.10379e+7 
           8830      1.07705e+7 
           8850      9.73251e+6 
           8870      8.43365e+6 
           8890      1.02648e+7 
           8910      1.07009e+7 
           8930      1.07782e+7 
           8950      1.08119e+7 
           8970      1.05751e+7 
           8990      1.00172e+7 
           9010      8.14854e+6 
           9030      8.84616e+6 
           9050      1.00187e+7 
           9070      1.01797e+7 
           9090      1.01582e+7 
           9110      1.03202e+7 
           9130      1.03401e+7 
           9150      1.02522e+7 
           9170      1.00763e+7 
           9190      9.75322e+6 
           9210      8.97276e+6 
           9230      7.15713e+6 
           9250      8.63159e+6 
           9270      9.28618e+6 
           9290      9.68319e+6 
           9310       9.7442e+6 
           9330      9.72628e+6 
