# Kurucz ODFNEW /NOVER (2003)
# teff = 33000 K (value for the effective temperature for the model. Temperatures are given in K)
# logg = 5 log(cm/s2) (value for Log(G) for the model.)
# meta = 0  (value for the Metallicity for the model.)
# lh = 1.25  (l/Hp where l is the  mixing length of the convective element and Hp is the pressure scale height)
# vtur = 2 km/s (Microturbulence velocity)
# alpha = 0  (Alpha)
#
# column 1: WAVELENGTH (ANGSTROM), Wavelength in Angstrom
# column 2: FLUX (ERG/CM2/S/A), Flux in erg/cm2/s/A
          147.2      6.86091e-6 
            151      1.83102e-5 
          155.2       5.1305e-5 
          158.8     0.000119031 
            162     0.000243818 
            166     0.000575443 
          170.3      0.00138276 
          173.4      0.00254034 
          176.8      0.00482954 
          180.2      0.00895172 
          181.7        0.011687 
          186.1        0.024837 
            191       0.0552666 
          193.9        0.087031 
          198.4        0.171747 
          201.8        0.281146 
            205        0.440457 
          210.5        0.924602 
          216.2         1.91208 
          219.8         2.97838 
            223         4.35759 
          226.8         6.80883 
            230         1848.68 
            234         4233.15 
            240         6845.23 
          246.5         11597.2 
          252.4         18709.4 
          256.8         25048.9 
            260         39692.6 
            264         58242.4 
          268.5           84154 
          273.5          115801 
          278.5          149580 
            284          288498 
            290          410729 
            296          547405 
            301          753908 
            308      1.44006e+6 
            318      2.87483e+6 
            328       4.1639e+6 
            338      6.93153e+6 
            348       1.0428e+7 
            357      2.03338e+7 
            366      3.54692e+7 
            375      4.32063e+7 
            385        6.048e+7 
            395      9.34501e+7 
            405      1.14451e+8 
            414      1.45908e+8 
            422      1.64767e+8 
            430      1.93729e+8 
            441      2.39852e+8 
            451      2.77323e+8 
            460        3.053e+8 
            470      3.63205e+8 
            480      4.25276e+8 
            490      4.80789e+8 
            500      5.65139e+8 
            506      1.14695e+9 
            512      7.34549e+9 
            520      6.91279e+9 
            530      6.51102e+9 
            540      5.91191e+9 
            550      7.15686e+9 
            560      8.38115e+9 
            570      8.68762e+9 
            580      7.96832e+9 
            590      8.56867e+9 
            600      7.59089e+9 
            610      8.65516e+9 
            620      9.74861e+9 
            630      9.53356e+9 
            640      9.28947e+9 
            650      9.59701e+9 
            658      8.75686e+9 
            665      9.55741e+9 
            675       9.9378e+9 
            685      8.51771e+9 
            695     1.05931e+10 
            705      9.36243e+9 
            716     1.11221e+10 
            726     1.08721e+10 
            735     1.08885e+10 
            745     1.09647e+10 
            755     1.09207e+10 
            765     1.11263e+10 
            775     1.13227e+10 
            785     1.16939e+10 
            795     1.16191e+10 
            805     1.13427e+10 
            815     1.12998e+10 
            825     1.17636e+10 
            835     1.02084e+10 
            845     1.13769e+10 
            855     1.12994e+10 
            865     1.16001e+10 
            875     1.17055e+10 
            885     1.19177e+10 
            895     1.20188e+10 
            905     1.17141e+10 
            915     1.17142e+10 
            925     3.12136e+10 
            935     5.33706e+10 
            945     8.59662e+10 
            955     9.88144e+10 
            965     1.21819e+11 
            975     4.51421e+10 
            985     1.06438e+11 
            995      9.4473e+10 
           1005     1.00495e+11 
           1015     1.02104e+11 
           1025     6.33748e+10 
           1035     9.52915e+10 
           1045     1.13309e+11 
           1055     1.07445e+11 
           1065     9.12042e+10 
           1075     9.59798e+10 
           1085     8.64584e+10 
           1095     9.37279e+10 
           1105     8.88212e+10 
           1115     8.73351e+10 
           1125     7.19808e+10 
           1135     8.31555e+10 
           1145     7.78502e+10 
           1155     7.56721e+10 
           1165     7.30073e+10 
           1175     4.95939e+10 
           1185     6.66951e+10 
           1195      6.4428e+10 
           1205     5.95336e+10 
           1215     3.94536e+10 
           1225     5.79118e+10 
           1235      6.2807e+10 
           1245     6.05723e+10 
           1255     6.01298e+10 
           1265     6.11393e+10 
           1275     6.19082e+10 
           1285     6.14777e+10 
           1295     5.56729e+10 
           1305     5.61856e+10 
           1315     5.90881e+10 
           1325     5.62833e+10 
           1335     5.46231e+10 
           1345     5.39617e+10 
           1355     5.31313e+10 
           1365     5.06552e+10 
           1375      4.9403e+10 
           1385     4.76611e+10 
           1395     3.84584e+10 
           1405     3.94187e+10 
           1415     4.43125e+10 
           1425     4.02309e+10 
           1435     4.22992e+10 
           1442     4.23081e+10 
           1447     4.18183e+10 
           1455     4.00375e+10 
           1465     3.87169e+10 
           1475       3.854e+10 
           1485     3.83371e+10 
           1495     3.71079e+10 
           1505     3.54005e+10 
           1512      3.4098e+10 
           1517     3.43106e+10 
           1525     3.35223e+10 
           1535     2.91953e+10 
           1545     2.62887e+10 
           1555     2.59361e+10 
           1565     2.81068e+10 
           1575     2.92271e+10 
           1585     2.92839e+10 
           1595     2.90422e+10 
           1605     2.76826e+10 
           1615     2.63659e+10 
           1625     2.68442e+10 
           1635     2.70058e+10 
           1645     2.65894e+10 
           1655     2.69182e+10 
           1665     2.64939e+10 
           1672     2.48441e+10 
           1677     2.79125e+10 
           1685     2.66503e+10 
           1695     2.56588e+10 
           1705     2.51073e+10 
           1715     2.41519e+10 
           1725     2.31308e+10 
           1735     2.38486e+10 
           1745     2.35142e+10 
           1755     2.31467e+10 
           1765      2.2711e+10 
           1775     2.19201e+10 
           1785     2.20902e+10 
           1795      2.1722e+10 
           1805     2.16404e+10 
           1815     2.07656e+10 
           1825     2.05737e+10 
           1835     2.03635e+10 
           1845     1.90145e+10 
           1855     1.91845e+10 
           1865     1.92393e+10 
           1875     1.89606e+10 
           1885     1.77719e+10 
           1895     1.71379e+10 
           1905     1.76965e+10 
           1915     1.70725e+10 
           1925     1.60568e+10 
           1935     1.69095e+10 
           1945     1.71245e+10 
           1955     1.56299e+10 
           1967     1.62597e+10 
           1976     1.66966e+10 
           1984      1.5854e+10 
           1995     1.54704e+10 
           2005      1.5652e+10 
           2015     1.55963e+10 
           2025     1.55905e+10 
           2035     1.48246e+10 
           2045     1.46745e+10 
           2055     1.26239e+10 
           2065     1.22802e+10 
           2074     1.25644e+10 
           2078     1.21933e+10 
           2085     1.24556e+10 
           2095     1.25919e+10 
           2105     1.33857e+10 
           2115     1.35011e+10 
           2125     1.33251e+10 
           2135     1.31345e+10 
           2145      1.2824e+10 
           2155     1.28326e+10 
           2165     1.24378e+10 
           2175      1.2479e+10 
           2185     1.21528e+10 
           2195     1.22362e+10 
           2205      1.2055e+10 
           2215     1.16722e+10 
           2225     1.16581e+10 
           2235     1.14515e+10 
           2245     1.13123e+10 
           2255     1.09447e+10 
           2265     1.10055e+10 
           2275     1.08616e+10 
           2285     1.06232e+10 
           2295      9.77618e+9 
           2305     1.01453e+10 
           2315     1.01218e+10 
           2325     1.00301e+10 
           2335      9.85937e+9 
           2345      9.77615e+9 
           2355      9.60499e+9 
           2365      9.46736e+9 
           2375      9.27226e+9 
           2385      8.96154e+9 
           2395      8.96173e+9 
           2405       8.9069e+9 
           2415      8.77839e+9 
           2425       8.6914e+9 
           2435      8.51532e+9 
           2445      8.43069e+9 
           2455      8.32152e+9 
           2465      8.21818e+9 
           2475      8.09163e+9 
           2485      7.92903e+9 
           2495      6.66854e+9 
           2505      7.62942e+9 
           2513      7.25878e+9 
           2518       7.4219e+9 
           2525      7.54567e+9 
           2535      7.46925e+9 
           2545      7.28794e+9 
           2555      7.21427e+9 
           2565      7.13637e+9 
           2575      7.04923e+9 
           2585      6.97168e+9 
           2595      6.86938e+9 
           2605      6.80953e+9 
           2615      6.69584e+9 
           2625      6.63071e+9 
           2635      6.54738e+9 
           2645      6.44143e+9 
           2655      6.36841e+9 
           2665      6.21674e+9 
           2675       6.1177e+9 
           2685      6.11559e+9 
           2695      5.94839e+9 
           2705       5.8875e+9 
           2715      5.82428e+9 
           2725      5.75675e+9 
           2735      5.63717e+9 
           2745      5.63617e+9 
           2755      5.57697e+9 
           2765       5.4687e+9 
           2775        5.468e+9 
           2785      5.38024e+9 
           2795      5.20485e+9 
           2805      5.21281e+9 
           2815      5.19914e+9 
           2825      5.10103e+9 
           2835      4.98589e+9 
           2845      5.00861e+9 
           2855      4.92968e+9 
           2865      4.86687e+9 
           2875       4.8112e+9 
           2885      4.75301e+9 
           2895      4.69326e+9 
           2910      4.58805e+9 
           2930      4.51071e+9 
           2950      4.36578e+9 
           2970      4.29009e+9 
           2990      4.17111e+9 
           3010      4.05192e+9 
           3030       3.9677e+9 
           3050      3.89697e+9 
           3070      3.82729e+9 
           3090      3.69568e+9 
           3110      3.65298e+9 
           3130      3.55699e+9 
           3150      3.48493e+9 
           3170      3.40068e+9 
           3190      3.31827e+9 
           3210        3.249e+9 
           3230      3.18437e+9 
           3250      3.12822e+9 
           3270       3.0473e+9 
           3290      2.98816e+9 
           3310      2.92606e+9 
           3330      2.85551e+9 
           3350      2.79366e+9 
           3370      2.73681e+9 
           3390      2.69275e+9 
           3410      2.63566e+9 
           3430      2.57987e+9 
           3450      2.51606e+9 
           3470      2.46958e+9 
           3490       2.4189e+9 
           3510      2.37286e+9 
           3530      2.33084e+9 
           3550      2.28271e+9 
           3570      2.24638e+9 
           3590      2.18339e+9 
           3610      2.14851e+9 
           3630      2.10215e+9 
           3640       2.0924e+9 
           3650      2.02887e+9 
           3670      1.99887e+9 
           3690      1.96218e+9 
           3710      1.89436e+9 
           3730       1.8542e+9 
           3750      1.82116e+9 
           3770      1.75961e+9 
           3790      1.79438e+9 
           3810      1.83827e+9 
           3830      1.64461e+9 
           3850      1.85039e+9 
           3870      1.83733e+9 
           3890      1.53529e+9 
           3910      1.82481e+9 
           3930      1.79253e+9 
           3950      1.74045e+9 
           3970       1.4176e+9 
           3990      1.68465e+9 
           4010      1.67845e+9 
           4030      1.59018e+9 
           4050      1.63225e+9 
           4070      1.56317e+9 
           4090      1.44153e+9 
           4110      1.29999e+9 
           4130      1.48601e+9 
           4150      1.47428e+9 
           4170      1.46711e+9 
           4190      1.44058e+9 
           4210      1.41891e+9 
           4230      1.39725e+9 
           4250      1.35944e+9 
           4270       1.3265e+9 
           4290      1.30645e+9 
           4310      1.26778e+9 
           4330       1.1581e+9 
           4350      1.07194e+9 
           4370      1.20524e+9 
           4390      1.17966e+9 
           4410      1.17981e+9 
           4430      1.17016e+9 
           4450      1.14899e+9 
           4470       1.0887e+9 
           4490      1.11163e+9 
           4510      1.09534e+9 
           4530      1.08039e+9 
           4550      1.05823e+9 
           4570      1.04608e+9 
           4590      1.02656e+9 
           4610      1.00576e+9 
           4630       9.8491e+8 
           4650      9.45565e+8 
           4670       9.5721e+8 
           4690      9.38171e+8 
           4710      9.15769e+8 
           4730      9.20199e+8 
           4750      9.04434e+8 
           4770      8.96088e+8 
           4790      8.81182e+8 
           4810      8.63302e+8 
           4830      8.42845e+8 
           4850      7.80381e+8 
           4870      7.06651e+8 
           4890       8.0343e+8 
           4910      7.97179e+8 
           4930      7.69691e+8 
           4950      7.73862e+8 
           4970      7.67463e+8 
           4990      7.55483e+8 
           5010      7.29426e+8 
           5030      7.30993e+8 
           5050      7.17666e+8 
           5070       7.1178e+8 
           5090      7.00469e+8 
           5110      6.89701e+8 
           5130      6.78193e+8 
           5150      6.68575e+8 
           5170      6.59593e+8 
           5190      6.50924e+8 
           5210      6.41731e+8 
           5230      6.32466e+8 
           5250      6.22695e+8 
           5270      6.13529e+8 
           5290      6.05775e+8 
           5310      5.97105e+8 
           5330      5.88787e+8 
           5350      5.80326e+8 
           5370      5.72392e+8 
           5390      5.64042e+8 
           5410      5.53714e+8 
           5430       5.4885e+8 
           5450      5.41088e+8 
           5470      5.33587e+8 
           5490       5.2627e+8 
           5510      5.19279e+8 
           5530      5.11847e+8 
           5550      5.05364e+8 
           5570      4.98414e+8 
           5590      4.91357e+8 
           5610      4.85167e+8 
           5630      4.78719e+8 
           5650      4.71913e+8 
           5670      4.64618e+8 
           5690      4.55295e+8 
           5710      4.49846e+8 
           5730      4.44394e+8 
           5750       4.3773e+8 
           5770      4.33229e+8 
           5790      4.27398e+8 
           5810      4.21749e+8 
           5830      4.15591e+8 
           5850      4.10993e+8 
           5870       3.9441e+8 
           5890      3.98577e+8 
           5910       3.9528e+8 
           5930      3.90347e+8 
           5950      3.85567e+8 
           5970      3.81825e+8 
           5990      3.76508e+8 
           6010      3.72775e+8 
           6030      3.67924e+8 
           6050      3.63622e+8 
           6070      3.59338e+8 
           6090       3.5494e+8 
           6110      3.50461e+8 
           6130      3.46253e+8 
           6150      3.41255e+8 
           6170      3.37315e+8 
           6190      3.33536e+8 
           6210      3.29613e+8 
           6230      3.25617e+8 
           6250      3.21357e+8 
           6270      3.17643e+8 
           6290      3.13931e+8 
           6310      3.10004e+8 
           6330      3.06441e+8 
           6350       3.0257e+8 
           6370      2.99197e+8 
           6390      2.95574e+8 
           6410      2.92082e+8 
           6430      2.88691e+8 
           6450       2.8521e+8 
           6470      2.81245e+8 
           6490      2.78182e+8 
           6510      2.74635e+8 
           6530      2.70181e+8 
           6550      2.57988e+8 
           6570      2.31048e+8 
           6590      2.58699e+8 
           6610      2.58757e+8 
           6630       2.5665e+8 
           6650      2.53703e+8 
           6670      2.48077e+8 
           6690       2.4535e+8 
           6710      2.45069e+8 
           6730       2.4201e+8 
           6750      2.39693e+8 
           6770      2.37136e+8 
           6790      2.33633e+8 
           6810      2.31719e+8 
           6830      2.29112e+8 
           6850      2.26676e+8 
           6870      2.24129e+8 
           6890      2.21385e+8 
           6910      2.18796e+8 
           6930       2.1686e+8 
           6950      2.14483e+8 
           6970      2.12145e+8 
           6990      2.09807e+8 
           7010      2.07484e+8 
           7030      2.05078e+8 
           7050      2.02969e+8 
           7070      1.97948e+8 
           7090      1.98692e+8 
           7110      1.96458e+8 
           7130      1.94394e+8 
           7150      1.92394e+8 
           7170      1.90259e+8 
           7190      1.88306e+8 
           7210      1.86328e+8 
           7230      1.82891e+8 
           7250      1.82185e+8 
           7270      1.80492e+8 
           7290      1.77306e+8 
           7310      1.76696e+8 
           7330       1.7485e+8 
           7350      1.73056e+8 
           7370      1.71272e+8 
           7390      1.69504e+8 
           7410      1.67754e+8 
           7430      1.66026e+8 
           7450      1.64315e+8 
           7470      1.62281e+8 
           7490      1.60791e+8 
           7510      1.59301e+8 
           7530      1.57646e+8 
           7550      1.56131e+8 
           7570      1.54538e+8 
           7590      1.52848e+8 
           7610      1.51265e+8 
           7630      1.49891e+8 
           7650      1.48394e+8 
           7670      1.46936e+8 
           7690      1.45395e+8 
           7710      1.43964e+8 
           7730      1.42457e+8 
           7750      1.41183e+8 
           7770      1.39758e+8 
           7790      1.38427e+8 
           7810      1.37021e+8 
           7830      1.35726e+8 
           7850      1.34479e+8 
           7870      1.32999e+8 
           7890      1.31636e+8 
           7910      1.30544e+8 
           7930      1.29245e+8 
           7950      1.28065e+8 
           7970      1.26765e+8 
           7990      1.25588e+8 
           8010      1.24375e+8 
           8030      1.23154e+8 
           8050      1.22025e+8 
           8070      1.20854e+8 
           8090      1.19578e+8 
           8110      1.18027e+8 
           8130      1.17436e+8 
           8150      1.16242e+8 
           8170      1.15233e+8 
           8190      1.13761e+8 
           8210      1.12453e+8 
           8230      1.11295e+8 
           8250      1.10579e+8 
           8270      1.08976e+8 
           8290      1.08523e+8 
           8310      1.07619e+8 
           8330      1.06538e+8 
           8350      1.05218e+8 
           8370      1.04501e+8 
           8390       1.0373e+8 
           8410      1.02736e+8 
           8430      1.01815e+8 
           8450       1.0041e+8 
           8470      9.99943e+7 
           8490      9.89436e+7 
           8510      9.79693e+7 
           8530      9.70962e+7 
           8550      9.62251e+7 
           8570       9.5638e+7 
           8590      9.36155e+7 
