# Kurucz ODFNEW /NOVER (2003)
# teff = 24000 K (value for the effective temperature for the model. Temperatures are given in K)
# logg = 3 log(cm/s2) (value for Log(G) for the model.)
# meta = 0.2  (value for the Metallicity for the model.)
# lh = 1.25  (l/Hp where l is the  mixing length of the convective element and Hp is the pressure scale height)
# vtur = 2 km/s (Microturbulence velocity)
# alpha = 0.4  (Alpha)
#
# column 1: WAVELENGTH (ANGSTROM), Wavelength in Angstrom
# column 2: FLUX (ERG/CM2/S/A), Flux in erg/cm2/s/A
          147.2     2.11716e-15 
            151     9.52406e-15 
          155.2     4.63752e-14 
          158.8     1.69471e-13 
            162      5.1346e-13 
            166     1.94257e-12 
          170.3     7.59744e-12 
          173.4     1.96687e-11 
          176.8     5.36261e-11 
          180.2     1.41215e-10 
          181.7     2.14034e-10 
          186.1     7.01252e-10 
            191      2.48069e-9 
          193.9      5.09063e-9 
          198.4      1.49457e-8 
          201.8      3.27272e-8 
            205      6.69077e-8 
          210.5      2.18121e-7 
          216.2      6.98315e-7 
          219.8      1.41328e-6 
            223       2.5964e-6 
          226.8      5.30654e-6 
            230     0.000143584 
            234     0.000336288 
            240     0.000829328 
          246.5      0.00212284 
          252.4      0.00482046 
          256.8      0.00833936 
            260       0.0136263 
            264       0.0218959 
          268.5       0.0385716 
          273.5       0.0693353 
          278.5        0.120792 
            284        0.245657 
            290        0.453643 
            296        0.821817 
            301         1.31347 
            308         2.69156 
            318         6.79628 
            328         14.8634 
            338         33.4078 
            348         69.0503 
            357         589.618 
            366         1627.08 
            375         2494.14 
            385          4520.5 
            395         14653.9 
            405         22168.5 
            414         38223.3 
            422         53823.6 
            430         77966.1 
            441          117565 
            451          155703 
            460          200578 
            470          289753 
            480          394977 
            490          533980 
            500          695352 
            506      3.14451e+6 
            512      3.24169e+7 
            520      3.37844e+7 
            530      3.62835e+7 
            540      3.58901e+7 
            550      6.28347e+7 
            560       8.0407e+7 
            570      9.24871e+7 
            580      8.09453e+7 
            590      1.11688e+8 
            600      1.08749e+8 
            610      1.44091e+8 
            620      1.62492e+8 
            630      1.72893e+8 
            640      1.51538e+8 
            650      1.13786e+8 
            658       1.6621e+8 
            665      2.05741e+8 
            675      2.06768e+8 
            685      1.83176e+8 
            695      2.83211e+8 
            705      2.43194e+8 
            716      3.18377e+8 
            726      3.00196e+8 
            735      3.40219e+8 
            745      3.83296e+8 
            755      3.99335e+8 
            765      4.31502e+8 
            775      4.71018e+8 
            785      5.04193e+8 
            795      5.06693e+8 
            805      5.17012e+8 
            815      5.20408e+8 
            825      5.81512e+8 
            835      3.98134e+8 
            845      5.74941e+8 
            855      5.76412e+8 
            865      6.15324e+8 
            875      6.52957e+8 
            885      7.09327e+8 
            895      7.40032e+8 
            905       7.1558e+8 
            915      1.48406e+9 
            925     1.03316e+10 
            935     1.57716e+10 
            945     1.83529e+10 
            955     1.91949e+10 
            965     1.79548e+10 
            975      3.72404e+9 
            985     1.10787e+10 
            995     1.39474e+10 
           1005     1.77413e+10 
           1015     1.87921e+10 
           1025       1.609e+10 
           1035     1.56874e+10 
           1045      2.2684e+10 
           1055     2.07241e+10 
           1065     1.58663e+10 
           1075     1.88247e+10 
           1085     1.75298e+10 
           1095       1.967e+10 
           1105     1.72394e+10 
           1115     1.57883e+10 
           1125     1.07831e+10 
           1135     1.77093e+10 
           1145     1.66818e+10 
           1155     1.68116e+10 
           1165      1.6635e+10 
           1175      8.31213e+9 
           1185     1.53326e+10 
           1195     1.44598e+10 
           1205      7.96852e+9 
           1215     1.15975e+10 
           1225     1.46334e+10 
           1235     1.62567e+10 
           1245     1.53674e+10 
           1255     1.55052e+10 
           1265     1.59005e+10 
           1275     1.65994e+10 
           1285     1.63696e+10 
           1295     1.02252e+10 
           1305     1.20249e+10 
           1315     1.62236e+10 
           1325     1.52372e+10 
           1335     1.48041e+10 
           1345     1.49463e+10 
           1355     1.48213e+10 
           1365     1.36478e+10 
           1375     1.29215e+10 
           1385     1.14043e+10 
           1395      5.41469e+9 
           1405      7.14517e+9 
           1415     1.09198e+10 
           1425     1.09934e+10 
           1435     1.17593e+10 
           1442     1.20521e+10 
           1447     1.18679e+10 
           1455     1.13453e+10 
           1465     1.04455e+10 
           1475     1.09291e+10 
           1485     1.08297e+10 
           1495     1.05434e+10 
           1505      9.61257e+9 
           1512      8.68038e+9 
           1517      9.02056e+9 
           1525      9.19086e+9 
           1535      7.60998e+9 
           1545       7.0724e+9 
           1555      6.94216e+9 
           1565      7.83722e+9 
           1575      8.51695e+9 
           1585      8.55198e+9 
           1595        8.475e+9 
           1605       8.5009e+9 
           1615      8.25527e+9 
           1625      8.18351e+9 
           1635      8.75297e+9 
           1645      8.87589e+9 
           1655      8.66855e+9 
           1665      8.76124e+9 
           1672       8.1994e+9 
           1677      9.47768e+9 
           1685      9.00974e+9 
           1695      8.44034e+9 
           1705      8.36431e+9 
           1715      7.77469e+9 
           1725      7.70139e+9 
           1735      8.02712e+9 
           1745      7.89888e+9 
           1755      7.89927e+9 
           1765       7.9665e+9 
           1775      7.32109e+9 
           1785       7.5162e+9 
           1795      7.69939e+9 
           1805      7.80823e+9 
           1815      6.92076e+9 
           1825      7.24305e+9 
           1835       7.0681e+9 
           1845      6.41476e+9 
           1855      6.62003e+9 
           1865      6.70032e+9 
           1875      6.89983e+9 
           1885      6.16067e+9 
           1895      5.74007e+9 
           1905      6.30304e+9 
           1915      5.89026e+9 
           1925      5.54853e+9 
           1935      5.99531e+9 
           1945      6.11258e+9 
           1955      5.42676e+9 
           1967       6.0066e+9 
           1976        6.287e+9 
           1984       5.8574e+9 
           1995      5.75578e+9 
           2005      6.03897e+9 
           2015      5.98753e+9 
           2025      6.12303e+9 
           2035      5.55512e+9 
           2045      5.69289e+9 
           2055       5.3013e+9 
           2065      5.26059e+9 
           2074      5.67896e+9 
           2078      5.09604e+9 
           2085      5.53695e+9 
           2095      5.19719e+9 
           2105      5.39474e+9 
           2115      5.47759e+9 
           2125      5.49448e+9 
           2135       5.4352e+9 
           2145       5.1087e+9 
           2155      5.37275e+9 
           2165      5.35417e+9 
           2175       5.2908e+9 
           2185      5.10423e+9 
           2195      5.19834e+9 
           2205      5.21351e+9 
           2215      5.12255e+9 
           2225      4.98354e+9 
           2235      4.89153e+9 
           2245      4.95083e+9 
           2255      4.80129e+9 
           2265      4.85526e+9 
           2275      4.79127e+9 
           2285      4.75607e+9 
           2295      4.08936e+9 
           2305      4.58504e+9 
           2315      4.46538e+9 
           2325      4.43256e+9 
           2335      4.30429e+9 
           2345       4.3781e+9 
           2355      4.33373e+9 
           2365      4.30719e+9 
           2375      4.20387e+9 
           2385      4.16764e+9 
           2395      4.10893e+9 
           2405       4.0635e+9 
           2415      4.00285e+9 
           2425      3.99566e+9 
           2435      3.89188e+9 
           2445      3.89798e+9 
           2455      3.88454e+9 
           2465      3.80832e+9 
           2475      3.71082e+9 
           2485      3.47634e+9 
           2495      2.32555e+9 
           2505      3.21933e+9 
           2513      3.35426e+9 
           2518      3.47768e+9 
           2525      3.50817e+9 
           2535      3.51086e+9 
           2545      3.32965e+9 
           2555      3.41387e+9 
           2565      3.35277e+9 
           2575      3.38059e+9 
           2585      3.32556e+9 
           2595      3.30104e+9 
           2605      3.28269e+9 
           2615       3.2146e+9 
           2625      3.20076e+9 
           2635      3.17255e+9 
           2645      3.13116e+9 
           2655      3.11109e+9 
           2665      2.97756e+9 
           2675      2.98809e+9 
           2685      2.99331e+9 
           2695      2.88654e+9 
           2705      2.82188e+9 
           2715       2.8342e+9 
           2725      2.83216e+9 
           2735      2.80192e+9 
           2745      2.76039e+9 
           2755      2.74649e+9 
           2765       2.7137e+9 
           2775      2.72818e+9 
           2785      2.67428e+9 
           2795      2.57161e+9 
           2805      2.61177e+9 
           2815      2.61098e+9 
           2825      2.58875e+9 
           2835      2.49655e+9 
           2845      2.51981e+9 
           2855      2.46248e+9 
           2865      2.46538e+9 
           2875      2.43399e+9 
           2885      2.41394e+9 
           2895      2.37045e+9 
           2910      2.31009e+9 
           2930      2.30034e+9 
           2950      2.23557e+9 
           2970      2.19976e+9 
           2990      2.14624e+9 
           3010        2.048e+9 
           3030       2.0437e+9 
           3050      2.02602e+9 
           3070      2.00414e+9 
           3090      1.90718e+9 
           3110      1.91841e+9 
           3130      1.86125e+9 
           3150      1.83981e+9 
           3170      1.79137e+9 
           3190      1.76346e+9 
           3210      1.73519e+9 
           3230      1.68654e+9 
           3250      1.67095e+9 
           3270      1.62612e+9 
           3290      1.59715e+9 
           3310      1.56718e+9 
           3330      1.53122e+9 
           3350      1.50749e+9 
           3370      1.47366e+9 
           3390      1.45875e+9 
           3410      1.43275e+9 
           3430      1.40795e+9 
           3450      1.37575e+9 
           3470      1.35065e+9 
           3490      1.32343e+9 
           3510      1.30212e+9 
           3530       1.2891e+9 
           3550      1.26215e+9 
           3570      1.24016e+9 
           3590      1.20717e+9 
           3610       1.1875e+9 
           3630      1.16959e+9 
           3640      1.16548e+9 
           3650      1.14443e+9 
           3670      1.13132e+9 
           3690       1.0993e+9 
           3710      1.07333e+9 
           3730      1.05979e+9 
           3750      1.11134e+9 
           3770      1.09065e+9 
           3790      1.09897e+9 
           3810      1.11975e+9 
           3830      1.02906e+9 
           3850      1.09386e+9 
           3870      1.05577e+9 
           3890      9.88049e+8 
           3910      1.05423e+9 
           3930      1.01463e+9 
           3950      1.00339e+9 
           3970      9.13373e+8 
           3990      9.79798e+8 
           4010      9.67167e+8 
           4030      9.37526e+8 
           4050      9.32447e+8 
           4070      8.89919e+8 
           4090      8.57883e+8 
           4110      8.09299e+8 
           4130      8.53935e+8 
           4150      8.47212e+8 
           4170      8.44413e+8 
           4190      8.32959e+8 
           4210      8.25531e+8 
           4230      8.07068e+8 
           4250      7.84431e+8 
           4270      7.64207e+8 
           4290      7.50118e+8 
           4310      7.30072e+8 
           4330      7.08896e+8 
           4350      6.66158e+8 
           4370      7.00357e+8 
           4390      7.02142e+8 
           4410       6.8833e+8 
           4430      6.84394e+8 
           4450      6.70684e+8 
           4470      6.56437e+8 
           4490      6.54658e+8 
           4510      6.46567e+8 
           4530      6.39072e+8 
           4550      6.29936e+8 
           4570      6.19185e+8 
           4590      6.08275e+8 
           4610      5.94553e+8 
           4630      5.87864e+8 
           4650      5.63374e+8 
           4670      5.68664e+8 
           4690      5.65057e+8 
           4710      5.44985e+8 
           4730      5.50001e+8 
           4750      5.39986e+8 
           4770      5.40401e+8 
           4790      5.31448e+8 
           4810      5.20687e+8 
           4830      5.12024e+8 
           4850      5.00299e+8 
           4870      4.63492e+8 
           4890      4.92258e+8 
           4910      4.85411e+8 
           4930      4.73498e+8 
           4950      4.68235e+8 
           4970      4.67844e+8 
           4990       4.6047e+8 
           5010      4.42768e+8 
           5030      4.45791e+8 
           5050      4.37776e+8 
           5070      4.35384e+8 
           5090      4.28058e+8 
           5110      4.21539e+8 
           5130      4.13678e+8 
           5150      4.09378e+8 
           5170      4.04737e+8 
           5190      4.00085e+8 
           5210      3.93882e+8 
           5230      3.89443e+8 
           5250      3.84254e+8 
           5270      3.78033e+8 
           5290      3.74278e+8 
           5310      3.68792e+8 
           5330      3.64464e+8 
           5350      3.59296e+8 
           5370      3.55057e+8 
           5390       3.4951e+8 
           5410      3.45592e+8 
           5430      3.41019e+8 
           5450      3.36187e+8 
           5470      3.31945e+8 
           5490      3.27819e+8 
           5510      3.24239e+8 
           5530      3.19373e+8 
           5550      3.16158e+8 
           5570      3.11754e+8 
           5590        3.079e+8 
           5610      3.03973e+8 
           5630      3.00522e+8 
           5650      2.95518e+8 
           5670      2.90601e+8 
           5690      2.85444e+8 
           5710      2.83632e+8 
           5730      2.80864e+8 
           5750      2.76076e+8 
           5770      2.74743e+8 
           5790      2.70972e+8 
           5810       2.6777e+8 
           5830      2.63775e+8 
           5850      2.61225e+8 
           5870      2.53282e+8 
           5890      2.53215e+8 
           5910      2.50998e+8 
           5930      2.47625e+8 
           5950      2.44548e+8 
           5970      2.43378e+8 
           5990      2.39099e+8 
           6010      2.37145e+8 
           6030      2.33741e+8 
           6050      2.31261e+8 
           6070      2.29014e+8 
           6090      2.26384e+8 
           6110      2.23674e+8 
           6130      2.21214e+8 
           6150      2.17546e+8 
           6170      2.15238e+8 
           6190      2.13348e+8 
           6210      2.11116e+8 
           6230      2.08724e+8 
           6250      2.05876e+8 
           6270      2.03712e+8 
           6290      2.01552e+8 
           6310      1.98867e+8 
           6330      1.97067e+8 
           6350      1.94202e+8 
           6370      1.92594e+8 
           6390       1.9032e+8 
           6410      1.88172e+8 
           6430      1.86274e+8 
           6450      1.84106e+8 
           6470      1.81224e+8 
           6490      1.79304e+8 
           6510      1.77555e+8 
           6530      1.75276e+8 
           6550      1.72583e+8 
           6570      1.57858e+8 
           6590      1.68898e+8 
           6610      1.68033e+8 
           6630      1.66455e+8 
           6650      1.64279e+8 
           6670      1.61729e+8 
           6690       1.6009e+8 
           6710       1.5933e+8 
           6730       1.5702e+8 
           6750      1.56075e+8 
           6770      1.54439e+8 
           6790      1.51692e+8 
           6810      1.50924e+8 
           6830      1.49072e+8 
           6850       1.4785e+8 
           6870      1.46232e+8 
           6890      1.44384e+8 
           6910      1.42445e+8 
           6930      1.41749e+8 
           6950      1.40319e+8 
           6970      1.38863e+8 
           6990      1.37345e+8 
           7010       1.3588e+8 
           7030      1.34414e+8 
           7050      1.33099e+8 
           7070      1.29966e+8 
           7090      1.30403e+8 
           7110      1.28023e+8 
           7130      1.26861e+8 
           7150      1.26425e+8 
           7170      1.25135e+8 
           7190      1.23915e+8 
           7210      1.22648e+8 
           7230      1.19758e+8 
           7250      1.19744e+8 
           7270      1.18943e+8 
           7290      1.16944e+8 
           7310      1.16545e+8 
           7330      1.15328e+8 
           7350      1.14234e+8 
           7370      1.13136e+8 
           7390      1.12014e+8 
           7410       1.1091e+8 
           7430      1.09767e+8 
           7450      1.08683e+8 
           7470      1.06718e+8 
           7490      1.06424e+8 
           7510      1.05491e+8 
           7530      1.04326e+8 
           7550      1.03504e+8 
           7570      1.02504e+8 
           7590      1.01448e+8 
           7610      1.00226e+8 
           7630      9.95066e+7 
           7650      9.85235e+7 
           7670      9.76454e+7 
           7690      9.66731e+7 
           7710      9.57349e+7 
           7730      9.47105e+7 
           7750      9.39589e+7 
           7770       9.2727e+7 
           7790      9.22143e+7 
           7810      9.12979e+7 
           7830       9.0488e+7 
           7850      8.96423e+7 
           7870      8.85486e+7 
           7890      8.75496e+7 
           7910      8.70412e+7 
           7930      8.61653e+7 
           7950      8.53866e+7 
           7970      8.45613e+7 
           7990      8.37903e+7 
           8010      8.30318e+7 
           8030      8.22974e+7 
           8050      8.16157e+7 
           8070      8.08878e+7 
           8090      8.00624e+7 
           8110      7.87286e+7 
           8130      7.86951e+7 
           8150       7.7901e+7 
           8170      7.73282e+7 
           8190      7.60692e+7 
           8210      7.54531e+7 
           8230      7.46474e+7 
           8250      7.44409e+7 
           8270      7.28419e+7 
           8290      7.29623e+7 
           8310      7.24151e+7 
           8330      7.18018e+7 
           8350      7.08747e+7 
           8370      7.02245e+7 
           8390      6.97937e+7 
           8410      6.90467e+7 
           8430      6.85233e+7 
           8450      6.75346e+7 
           8470      6.69587e+7 
           8490      6.69676e+7 
           8510      6.54048e+7 
           8530       6.6077e+7 
           8550      6.36141e+7 
           8570      6.55539e+7 
