# Kurucz ODFNEW /NOVER (2003)
# teff = 7750 K (value for the effective temperature for the model. Temperatures are given in K)
# logg = 3 log(cm/s2) (value for Log(G) for the model.)
# meta = -0.5  (value for the Metallicity for the model.)
# lh = 1.25  (l/Hp where l is the  mixing length of the convective element and Hp is the pressure scale height)
# vtur = 2 km/s (Microturbulence velocity)
# alpha = 0.4  (Alpha)
#
# column 1: WAVELENGTH (ANGSTROM), Wavelength in Angstrom
# column 2: FLUX (ERG/CM2/S/A), Flux in erg/cm2/s/A
            338     8.80884e-26 
            348     9.03561e-25 
            357     6.52431e-24 
            366     4.25957e-23 
            375     2.52632e-22 
            385     1.64757e-21 
            395     9.71154e-21 
            405     5.21783e-20 
            414     2.20218e-19 
            422     7.49444e-19 
            430     2.42969e-18 
            441     1.13704e-17 
            451      4.3107e-17 
            460     1.35678e-16 
            470      4.5917e-16 
            480     1.47109e-15 
            490     4.48059e-15 
            500     1.29958e-14 
            506     3.19439e-14 
            512     6.56629e-14 
            520     1.42667e-13 
            530     3.65692e-13 
            540     8.87498e-13 
            550     2.10831e-12 
            560     4.81171e-12 
            570     1.06385e-11 
            580     2.25623e-11 
            590     4.75874e-11 
            600     9.65809e-11 
            610     1.91159e-10 
            620     3.69056e-10 
            630     6.96309e-10 
            640      1.28563e-9 
            650      2.32529e-9 
            658       3.6819e-9 
            665       5.4437e-9 
            675      9.38299e-9 
            685      1.58921e-8 
            695      2.64547e-8 
            705      4.31944e-8 
            716      7.31963e-8 
            726      1.16112e-7 
            735      1.73781e-7 
            745      2.68457e-7 
            755      4.09494e-7 
            765       6.1691e-7 
            775      9.18201e-7 
            785      1.35188e-6 
            795      1.95135e-6 
            805      2.82321e-6 
            815      4.03333e-6 
            825       5.6928e-6 
            835      7.95847e-6 
            845       1.1025e-5 
            855      1.51382e-5 
            865      2.06112e-5 
            875      2.77647e-5 
            885      3.72874e-5 
            895        4.958e-5 
            905      6.52932e-5 
            915       0.0751366 
            925        0.257592 
            935        0.340348 
            945        0.452358 
            955        0.629435 
            965        0.817075 
            975        0.980596 
            985         1.29689 
            995         1.58005 
           1005         2.09837 
           1015         2.60285 
           1025         2.96948 
           1035         4.01233 
           1045         4.98879 
           1055         6.14431 
           1065          7.3647 
           1075         9.11812 
           1085         11.1432 
           1095         13.1878 
           1105         41.9207 
           1115         133.431 
           1125         188.608 
           1135         257.716 
           1145         315.343 
           1155         332.922 
           1165         425.381 
           1175         462.622 
           1185         494.043 
           1195         182.908 
           1205         144.109 
           1215         35.6537 
           1225         163.643 
           1235         453.046 
           1245         1032.64 
           1255         2000.65 
           1265          2139.5 
           1275         3498.88 
           1285         5033.71 
           1295         6283.45 
           1305         5215.73 
           1315          8328.8 
           1325         10072.6 
           1335         11321.2 
           1345         13626.4 
           1355         14306.7 
           1365           15861 
           1375         17483.4 
           1385         19324.7 
           1395         22024.6 
           1405           24386 
           1415         25799.9 
           1425         28552.1 
           1435         29026.4 
           1442         33292.8 
           1447         35236.6 
           1455         38930.6 
           1465         39984.2 
           1475         43506.2 
           1485         47755.2 
           1495         53366.9 
           1505         58286.8 
           1512         59757.1 
           1517         64127.6 
           1525         68557.7 
           1535          130859 
           1545          374879 
           1555          370836 
           1565          332919 
           1575          538739 
           1585          653804 
           1595          734586 
           1605          740070 
           1615          895782 
           1625      1.01222e+6 
           1635      1.39605e+6 
           1645      2.47809e+6 
           1655      1.46385e+6 
           1665      2.79888e+6 
           1672      1.45432e+6 
           1677      3.88581e+6 
           1685      5.59211e+6 
           1695      5.57641e+6 
           1705      7.12268e+6 
           1715      9.71813e+6 
           1725      9.94066e+6 
           1735      1.20521e+7 
           1745      1.13225e+7 
           1755      1.37077e+7 
           1765      9.87601e+6 
           1775      1.28098e+7 
           1785      1.24704e+7 
           1795      1.55999e+7 
           1805      1.24431e+7 
           1815      1.38136e+7 
           1825      1.16877e+7 
           1835      1.17431e+7 
           1845      1.03172e+7 
           1855      1.17594e+7 
           1865      1.29886e+7 
           1875      1.27069e+7 
           1885      1.31492e+7 
           1895      1.39382e+7 
           1905      1.25205e+7 
           1915      1.39526e+7 
           1925      1.40388e+7 
           1935      1.11261e+7 
           1945      1.48958e+7 
           1955       1.5007e+7 
           1967      1.61545e+7 
           1976      1.55253e+7 
           1984      1.49323e+7 
           1995      1.46138e+7 
           2005      1.39398e+7 
           2015      1.34659e+7 
           2025      1.24577e+7 
           2035      1.44116e+7 
           2045      1.56537e+7 
           2055      1.44544e+7 
           2065      1.41664e+7 
           2074       1.6566e+7 
           2078      1.73338e+7 
           2085      1.66066e+7 
           2095      1.57077e+7 
           2105      1.45921e+7 
           2115      1.49177e+7 
           2125      1.51355e+7 
           2135      1.19972e+7 
           2145      1.46057e+7 
           2155      1.46026e+7 
           2165       1.3506e+7 
           2175      1.34697e+7 
           2185      1.41839e+7 
           2195      1.54616e+7 
           2205      1.47716e+7 
           2215      1.29584e+7 
           2225      1.28871e+7 
           2235      1.53528e+7 
           2245      1.36638e+7 
           2255      1.26954e+7 
           2265      1.26261e+7 
           2275      1.39479e+7 
           2285      1.45699e+7 
           2295      1.31672e+7 
           2305      1.38779e+7 
           2315      1.35108e+7 
           2325      1.30951e+7 
           2335      1.12489e+7 
           2345       9.3281e+6 
           2355      1.28696e+7 
           2365      9.75968e+6 
           2375      1.17621e+7 
           2385       8.3317e+6 
           2395      9.96004e+6 
           2405      9.62727e+6 
           2415      1.02563e+7 
           2425      1.27645e+7 
           2435      1.23498e+7 
           2445      1.33058e+7 
           2455       1.3072e+7 
           2465      1.31044e+7 
           2475      1.20615e+7 
           2485      1.25173e+7 
           2495      1.19282e+7 
           2505      1.45336e+7 
           2513      1.18957e+7 
           2518       1.2047e+7 
           2525      1.06165e+7 
           2535      9.80248e+6 
           2545      1.00042e+7 
           2555      1.18137e+7 
           2565      1.14653e+7 
           2575      1.30775e+7 
           2585      1.30949e+7 
           2595      1.25712e+7 
           2605       1.1681e+7 
           2615      1.10817e+7 
           2625      1.33959e+7 
           2635      1.39727e+7 
           2645      1.70567e+7 
           2655      1.73213e+7 
           2665      1.48008e+7 
           2675      1.59839e+7 
           2685      1.60078e+7 
           2695      1.47299e+7 
           2705      1.54079e+7 
           2715      1.40128e+7 
           2725      1.42932e+7 
           2735      1.56706e+7 
           2745      1.15888e+7 
           2755        1.257e+7 
           2765      1.33224e+7 
           2775      1.49955e+7 
           2785      1.27159e+7 
           2795      5.13733e+6 
           2805      6.71819e+6 
           2815      1.49095e+7 
           2825       1.6588e+7 
           2835      1.61332e+7 
           2845      1.53908e+7 
           2855      1.39345e+7 
           2865      1.62052e+7 
           2875      1.57964e+7 
           2885      1.61198e+7 
           2895      1.53829e+7 
           2910      1.77814e+7 
           2930      1.69633e+7 
           2950      1.68977e+7 
           2970      1.76357e+7 
           2990        1.776e+7 
           3010      1.80932e+7 
           3030      1.79926e+7 
           3050      1.79267e+7 
           3070      1.79373e+7 
           3090       1.8392e+7 
           3110      1.78232e+7 
           3130      1.78565e+7 
           3150      1.84186e+7 
           3170      1.84003e+7 
           3190      1.72255e+7 
           3210      1.79259e+7 
           3230      1.71709e+7 
           3250      1.79293e+7 
           3270      1.82634e+7 
           3290       1.8554e+7 
           3310      1.88432e+7 
           3330      1.83471e+7 
           3350       1.8079e+7 
           3370      1.79868e+7 
           3390      1.81541e+7 
           3410       1.8502e+7 
           3430      1.87918e+7 
           3450      1.85765e+7 
           3470      1.83423e+7 
           3490      1.82904e+7 
           3510      1.87177e+7 
           3530      1.87384e+7 
           3550      1.91556e+7 
           3570      1.84048e+7 
           3590       1.8347e+7 
           3610      1.84825e+7 
           3630       1.8629e+7 
           3640      1.83369e+7 
           3650      1.90512e+7 
           3670      1.88333e+7 
           3690      1.82617e+7 
           3710      2.10106e+7 
           3730      2.34068e+7 
           3750      3.09608e+7 
           3770      3.33394e+7 
           3790      4.11294e+7 
           3810      4.78746e+7 
           3830      3.76039e+7 
           3850      5.23926e+7 
           3870      5.84555e+7 
           3890       3.4374e+7 
           3910      5.75958e+7 
           3930      4.68762e+7 
           3950       5.6638e+7 
           3970      3.05764e+7 
           3990      5.64854e+7 
           4010      6.28394e+7 
           4030      6.23912e+7 
           4050      6.17558e+7 
           4070      5.90149e+7 
           4090      4.79647e+7 
           4110      3.67739e+7 
           4130      5.63364e+7 
           4150      5.91086e+7 
           4170      5.81877e+7 
           4190      5.77043e+7 
           4210      5.76229e+7 
           4230      5.60939e+7 
           4250      5.60553e+7 
           4270      5.45871e+7 
           4290      5.38398e+7 
           4310      4.96848e+7 
           4330      4.00643e+7 
           4350      3.42655e+7 
           4370      5.04682e+7 
           4390      5.10377e+7 
           4410      5.02813e+7 
           4430      5.01201e+7 
           4450      5.02281e+7 
           4470      4.99908e+7 
           4490      4.94436e+7 
           4510      4.99951e+7 
           4530      4.82273e+7 
           4550      4.73803e+7 
           4570      4.84637e+7 
           4590       4.7023e+7 
           4610       4.7855e+7 
           4630      4.65444e+7 
           4650      4.66833e+7 
           4670      4.63793e+7 
           4690      4.50957e+7 
           4710       4.3518e+7 
           4730      4.48161e+7 
           4750      4.45964e+7 
           4770      4.38325e+7 
           4790      4.32406e+7 
           4810      4.24063e+7 
           4830      4.08237e+7 
           4850       3.2821e+7 
           4870      2.64079e+7 
           4890      3.85566e+7 
           4910      4.01074e+7 
           4930      3.96153e+7 
           4950      3.99062e+7 
           4970      3.99883e+7 
           4990      3.88816e+7 
           5010      3.76638e+7 
           5030      3.83044e+7 
           5050      3.77224e+7 
           5070      3.79178e+7 
           5090      3.75056e+7 
           5110      3.72645e+7 
           5130      3.65436e+7 
           5150      3.59493e+7 
           5170      3.50022e+7 
           5190       3.4628e+7 
           5210      3.47832e+7 
           5230      3.43111e+7 
           5250      3.47514e+7 
           5270      3.28983e+7 
           5290      3.39599e+7 
           5310      3.34307e+7 
           5330      3.24178e+7 
           5350      3.31051e+7 
           5370      3.26382e+7 
           5390      3.22667e+7 
           5410      3.16733e+7 
           5430      3.16257e+7 
           5450      3.16033e+7 
           5470       3.1316e+7 
           5490       3.1027e+7 
           5510      3.08046e+7 
           5530      3.04134e+7 
           5550       3.0416e+7 
           5570      2.99624e+7 
           5590      2.95229e+7 
           5610      2.94097e+7 
           5630      2.93569e+7 
           5650      2.89995e+7 
           5670       2.8609e+7 
           5690      2.85094e+7 
           5710      2.82165e+7 
           5730      2.81771e+7 
           5750      2.77854e+7 
           5770      2.76191e+7 
           5790      2.73455e+7 
           5810      2.71419e+7 
           5830      2.69294e+7 
           5850      2.66234e+7 
           5870      2.64204e+7 
           5890      2.58982e+7 
           5910      2.59767e+7 
           5930      2.57546e+7 
           5950      2.55009e+7 
           5970      2.53229e+7 
           5990      2.50375e+7 
           6010      2.47898e+7 
           6030      2.46039e+7 
           6050      2.44075e+7 
           6070      2.42807e+7 
           6090      2.40311e+7 
           6110      2.37791e+7 
           6130      2.34127e+7 
           6150      2.30186e+7 
           6170      2.29221e+7 
           6190      2.30485e+7 
           6210      2.28554e+7 
           6230      2.25768e+7 
           6250      2.21105e+7 
           6270       2.2305e+7 
           6290      2.21272e+7 
           6310      2.18358e+7 
           6330      2.16971e+7 
           6350      2.13616e+7 
           6370      2.12286e+7 
           6390      2.11873e+7 
           6410      2.08902e+7 
           6430       2.0806e+7 
           6450      2.03829e+7 
           6470      2.03597e+7 
           6490       2.0051e+7 
           6510      1.99156e+7 
           6530      1.94457e+7 
           6550       1.7253e+7 
           6570      1.38124e+7 
           6590      1.85181e+7 
           6610      1.90942e+7 
           6630      1.91309e+7 
           6650       1.9033e+7 
           6670      1.88894e+7 
           6690      1.87901e+7 
           6710      1.86348e+7 
           6730      1.84776e+7 
           6750      1.82517e+7 
           6770      1.82237e+7 
           6790      1.80683e+7 
           6810      1.79307e+7 
           6830      1.77685e+7 
           6850      1.76352e+7 
           6870      1.75231e+7 
           6890      1.73874e+7 
           6910      1.72521e+7 
           6930      1.71096e+7 
           6950      1.69847e+7 
           6970      1.68463e+7 
           6990      1.67292e+7 
           7010      1.64882e+7 
           7030      1.64433e+7 
           7050      1.63418e+7 
           7070      1.62186e+7 
           7090      1.61017e+7 
           7110      1.57989e+7 
           7130      1.58104e+7 
           7150      1.56712e+7 
           7170      1.55649e+7 
           7190      1.54391e+7 
           7210      1.53325e+7 
           7230      1.52211e+7 
           7250      1.50864e+7 
           7270      1.50277e+7 
           7290      1.48575e+7 
           7310      1.47791e+7 
           7330      1.46593e+7 
           7350      1.45866e+7 
           7370      1.44923e+7 
           7390      1.43539e+7 
           7410      1.41839e+7 
           7430      1.40817e+7 
           7450      1.40069e+7 
           7470      1.38733e+7 
           7490      1.37953e+7 
           7510      1.37292e+7 
           7530      1.36464e+7 
           7550      1.35689e+7 
           7570      1.34467e+7 
           7590      1.33681e+7 
           7610       1.3266e+7 
           7630      1.31778e+7 
           7650      1.30582e+7 
           7670      1.29331e+7 
           7690      1.28475e+7 
           7710      1.27663e+7 
           7730      1.27029e+7 
           7750       1.2596e+7 
           7770      1.22673e+7 
           7790      1.24484e+7 
           7810      1.23458e+7 
           7830      1.22404e+7 
           7850       1.2131e+7 
           7870       1.2036e+7 
           7890      1.19297e+7 
           7910      1.18827e+7 
           7930      1.17473e+7 
           7950      1.16716e+7 
           7970       1.1673e+7 
           7990      1.14937e+7 
           8010      1.14992e+7 
           8030      1.14057e+7 
           8050      1.13352e+7 
           8070      1.12594e+7 
           8090      1.11802e+7 
           8110      1.11142e+7 
           8130      1.10471e+7 
           8150       1.0968e+7 
           8170      1.08929e+7 
           8190      1.07145e+7 
           8210      1.06679e+7 
           8230      1.05917e+7 
           8250      1.05304e+7 
           8270      1.05616e+7 
           8290      1.04861e+7 
           8310      1.03915e+7 
           8330      1.02537e+7 
           8350      1.02549e+7 
           8370       1.0165e+7 
           8390      1.00562e+7 
           8410       9.9743e+6 
           8430      9.93498e+6 
           8450      9.75136e+6 
           8470        9.541e+6 
           8490      9.90272e+6 
           8510      9.09206e+6 
           8530      9.91465e+6 
           8550      8.38568e+6 
           8570      1.00357e+7 
           8590      9.31458e+6 
           8610      9.01371e+6 
           8630      1.00924e+7 
           8650      9.74217e+6 
           8670      7.85094e+6 
           8690      9.77492e+6 
           8710      1.01725e+7 
           8730      9.82198e+6 
           8750      7.86254e+6 
           8770      9.44066e+6 
           8790       1.0036e+7 
           8810      1.00225e+7 
           8830      9.79404e+6 
           8850      8.96868e+6 
           8870      7.61677e+6 
           8890      9.42061e+6 
           8910       9.6982e+6 
           8930      9.70064e+6 
           8950      9.73305e+6 
           8970      9.58154e+6 
           8990      9.22152e+6 
           9010      7.49049e+6 
           9030      8.23122e+6 
           9050       9.1806e+6 
           9070      9.15527e+6 
           9090      9.06624e+6 
           9110      9.19988e+6 
           9130      9.21837e+6 
           9150      9.16687e+6 
           9170      9.05972e+6 
           9190      8.87402e+6 
           9210      8.32566e+6 
           9230      6.62206e+6 
           9250      8.01341e+6 
           9270        8.437e+6 
           9290      8.71456e+6 
           9310      8.70628e+6 
           9330      8.65385e+6 
           9350      8.61988e+6 
           9370      8.57969e+6 
