# Kurucz ODFNEW /NOVER (2003)
# teff = 22000 K (value for the effective temperature for the model. Temperatures are given in K)
# logg = 3.5 log(cm/s2) (value for Log(G) for the model.)
# meta = -2.5  (value for the Metallicity for the model.)
# lh = 1.25  (l/Hp where l is the  mixing length of the convective element and Hp is the pressure scale height)
# vtur = 2 km/s (Microturbulence velocity)
# alpha = 0  (Alpha)
#
# column 1: WAVELENGTH (ANGSTROM), Wavelength in Angstrom
# column 2: FLUX (ERG/CM2/S/A), Flux in erg/cm2/s/A
          147.2     2.01232e-17 
            151     1.22311e-16 
          155.2     8.09075e-16 
          158.8     3.76544e-15 
            162     1.39261e-14 
            166     6.63843e-14 
          170.3     3.26952e-13 
          173.4     9.80829e-13 
          176.8     3.12561e-12 
          180.2     9.51881e-12 
          181.7     1.53454e-11 
          186.1     5.94629e-11 
            191     2.48967e-10 
          193.9     5.60747e-10 
          198.4      1.88199e-9 
          201.8      4.52557e-9 
            205      1.00509e-8 
          210.5      3.73292e-8 
          216.2      1.35056e-7 
          219.8      2.93448e-7 
            223      5.72136e-7 
          226.8       1.2321e-6 
            230      3.45729e-6 
            234      7.77457e-6 
            240       2.2265e-5 
          246.5      6.56028e-5 
          252.4     0.000167195 
          256.8     0.000321098 
            260     0.000519457 
            264     0.000917986 
          268.5      0.00170424 
          273.5       0.0033051 
          278.5      0.00625792 
            284       0.0122861 
            290       0.0248682 
            296       0.0488111 
            301        0.083811 
            308        0.171816 
            318        0.460872 
            328         1.15049 
            338         2.71052 
            348         6.05889 
            357         11.9877 
            366         22.8879 
            375         42.2366 
            385         80.4621 
            395         147.908 
            405         263.142 
            414         430.611 
            422         654.227 
            430          976.99 
            441         1652.58 
            451         2599.49 
            460          3835.3 
            470         5794.88 
            480         8587.93 
            490         12501.4 
            500         17890.1 
            506          111390 
            512          320892 
            520          403842 
            530          579512 
            540          633980 
            550          911274 
            560      1.10896e+6 
            570      1.35746e+6 
            580      1.37332e+6 
            590      1.82477e+6 
            600      2.31479e+6 
            610      2.74969e+6 
            620      3.21563e+6 
            630      3.75828e+6 
            640      4.30811e+6 
            650      5.00662e+6 
            658      5.61922e+6 
            665       6.1673e+6 
            675      6.94414e+6 
            685      7.84988e+6 
            695      9.02232e+6 
            705      1.01121e+7 
            716      1.14528e+7 
            726      1.27519e+7 
            735      1.41166e+7 
            745      1.56977e+7 
            755      1.73665e+7 
            765      1.91247e+7 
            775      2.10511e+7 
            785       2.3076e+7 
            795      2.51856e+7 
            805       2.7449e+7 
            815      2.97878e+7 
            825      3.23557e+7 
            835      3.46004e+7 
            845      3.76875e+7 
            855      4.04452e+7 
            865       4.3626e+7 
            875      4.68633e+7 
            885      5.01969e+7 
            895      5.36058e+7 
            905      5.66089e+7 
            915      1.08772e+8 
            925      1.22658e+9 
            935      3.96085e+9 
            945     1.03355e+10 
            955      1.3008e+10 
            965      1.6244e+10 
            975      7.32396e+9 
            985     1.71547e+10 
            995      1.6554e+10 
           1005     1.70628e+10 
           1015     1.58184e+10 
           1025      6.50888e+9 
           1035     1.45156e+10 
           1045     1.67178e+10 
           1055      1.6332e+10 
           1065     1.52658e+10 
           1075     1.56602e+10 
           1085     1.47216e+10 
           1095     1.53466e+10 
           1105     1.47745e+10 
           1115     1.46113e+10 
           1125     1.39009e+10 
           1135     1.41632e+10 
           1145     1.36637e+10 
           1155     1.37927e+10 
           1165     1.35886e+10 
           1175     1.21716e+10 
           1185     1.30428e+10 
           1195     1.23102e+10 
           1205     1.09984e+10 
           1215      4.35572e+9 
           1225      1.0897e+10 
           1235     1.18216e+10 
           1245     1.16638e+10 
           1255     1.15265e+10 
           1265      1.1261e+10 
           1275     1.12361e+10 
           1285     1.10352e+10 
           1295     1.03701e+10 
           1305     1.03786e+10 
           1315     1.04743e+10 
           1325      1.0161e+10 
           1335      9.80831e+9 
           1345      9.90999e+9 
           1355      9.79791e+9 
           1365      9.59321e+9 
           1375      9.43066e+9 
           1385      9.28908e+9 
           1395      8.94034e+9 
           1405       8.8599e+9 
           1415      8.81188e+9 
           1425      8.68474e+9 
           1435      8.55918e+9 
           1442      8.47701e+9 
           1447      8.40162e+9 
           1455      8.28742e+9 
           1465      8.14184e+9 
           1475      8.01277e+9 
           1485      7.87874e+9 
           1495      7.75127e+9 
           1505       7.5864e+9 
           1512      7.49358e+9 
           1517      7.45146e+9 
           1525      7.34935e+9 
           1535      7.13399e+9 
           1545      7.06183e+9 
           1555      6.90959e+9 
           1565      6.89264e+9 
           1575      6.80767e+9 
           1585      6.70299e+9 
           1595      6.60647e+9 
           1605      6.43724e+9 
           1615      6.33639e+9 
           1625      6.29018e+9 
           1635      6.20966e+9 
           1645      6.04905e+9 
           1655      6.02211e+9 
           1665      5.94374e+9 
           1672      5.83869e+9 
           1677      5.84934e+9 
           1685      5.77376e+9 
           1695      5.67187e+9 
           1705      5.57586e+9 
           1715      5.47183e+9 
           1725      5.40389e+9 
           1735      5.33502e+9 
           1745      5.25066e+9 
           1755      5.19308e+9 
           1765      5.05011e+9 
           1775      5.01501e+9 
           1785      4.96323e+9 
           1795      4.89967e+9 
           1805      4.83859e+9 
           1815       4.7526e+9 
           1825      4.69149e+9 
           1835      4.62528e+9 
           1845      4.50899e+9 
           1855      4.39153e+9 
           1865        4.362e+9 
           1875      4.35728e+9 
           1885       4.2271e+9 
           1895      4.12333e+9 
           1905      4.15033e+9 
           1915      4.03539e+9 
           1925       3.9771e+9 
           1935      3.96277e+9 
           1945      3.93995e+9 
           1955      3.81586e+9 
           1967        3.823e+9 
           1976      3.80244e+9 
           1984      3.72398e+9 
           1995       3.6286e+9 
           2005      3.64123e+9 
           2015      3.61195e+9 
           2025      3.57489e+9 
           2035      3.50864e+9 
           2045      3.46234e+9 
           2055      3.38492e+9 
           2065      3.34224e+9 
           2074      3.35656e+9 
           2078      3.28999e+9 
           2085       3.2877e+9 
           2095      3.22179e+9 
           2105      3.20894e+9 
           2115      3.17741e+9 
           2125      3.14599e+9 
           2135      3.10369e+9 
           2145      3.05762e+9 
           2155      3.02607e+9 
           2165      2.98958e+9 
           2175      2.95029e+9 
           2185      2.91569e+9 
           2195      2.88121e+9 
           2205      2.84514e+9 
           2215      2.81044e+9 
           2225      2.77443e+9 
           2235      2.74016e+9 
           2245      2.70922e+9 
           2255      2.67458e+9 
           2265      2.64411e+9 
           2275      2.61211e+9 
           2285      2.58158e+9 
           2295      2.53374e+9 
           2305      2.51981e+9 
           2315      2.48853e+9 
           2325      2.45943e+9 
           2335      2.42846e+9 
           2345      2.39985e+9 
           2355      2.37421e+9 
           2365      2.34535e+9 
           2375      2.31817e+9 
           2385      2.28989e+9 
           2395      2.26391e+9 
           2405      2.23816e+9 
           2415      2.21139e+9 
           2425      2.18832e+9 
           2435      2.16232e+9 
           2445      2.13792e+9 
           2455      2.11441e+9 
           2465      2.08985e+9 
           2475      2.06648e+9 
           2485      2.04293e+9 
           2495      2.00213e+9 
           2505      1.99705e+9 
           2513      1.97415e+9 
           2518      1.96804e+9 
           2525      1.95254e+9 
           2535       1.9306e+9 
           2545      1.90708e+9 
           2555      1.88895e+9 
           2565      1.86778e+9 
           2575      1.84813e+9 
           2585      1.82788e+9 
           2595      1.80789e+9 
           2605      1.80281e+9 
           2615      1.78359e+9 
           2625      1.76287e+9 
           2635      1.73899e+9 
           2645      1.72199e+9 
           2655      1.70134e+9 
           2665      1.68117e+9 
           2675      1.66252e+9 
           2685       1.6547e+9 
           2695      1.62554e+9 
           2705      1.61967e+9 
           2715      1.60249e+9 
           2725      1.57371e+9 
           2735      1.56897e+9 
           2745      1.55101e+9 
           2755       1.5352e+9 
           2765      1.50786e+9 
           2775      1.50464e+9 
           2785      1.48895e+9 
           2795      1.46558e+9 
           2805      1.45597e+9 
           2815       1.4436e+9 
           2825      1.41536e+9 
           2835      1.40722e+9 
           2845      1.39981e+9 
           2855      1.38559e+9 
           2865      1.37167e+9 
           2875      1.35781e+9 
           2885      1.34416e+9 
           2895      1.33066e+9 
           2910      1.31066e+9 
           2930      1.28462e+9 
           2950      1.25142e+9 
           2970      1.23475e+9 
           2990      1.21058e+9 
           3010      1.18714e+9 
           3030      1.16438e+9 
           3050      1.14203e+9 
           3070      1.12025e+9 
           3090      1.09881e+9 
           3110      1.07826e+9 
           3130      1.05929e+9 
           3150      1.03935e+9 
           3170      1.01957e+9 
           3190      9.93051e+8 
           3210      9.82214e+8 
           3230      9.64094e+8 
           3250      9.46344e+8 
           3270      9.30294e+8 
           3290      9.12196e+8 
           3310      8.97148e+8 
           3330      8.81138e+8 
           3350      8.63901e+8 
           3370      8.50161e+8 
           3390       8.3521e+8 
           3410      8.20614e+8 
           3430      8.02522e+8 
           3450      7.85775e+8 
           3470      7.74615e+8 
           3490      7.61587e+8 
           3510      7.52444e+8 
           3530      7.40283e+8 
           3550       7.2805e+8 
           3570      7.18821e+8 
           3590      7.03264e+8 
           3610        6.924e+8 
           3630      6.79902e+8 
           3640      6.78133e+8 
           3650      6.71397e+8 
           3670      6.62897e+8 
           3690      6.43446e+8 
           3710      6.30259e+8 
           3730      6.20188e+8 
           3750      6.82654e+8 
           3770      6.88922e+8 
           3790      7.18388e+8 
           3810      7.48315e+8 
           3830      6.57079e+8 
           3850      7.63574e+8 
           3870      7.59828e+8 
           3890      6.26907e+8 
           3910      7.46357e+8 
           3930      7.32243e+8 
           3950      7.22263e+8 
           3970       5.8232e+8 
           3990      6.95525e+8 
           4010      6.85957e+8 
           4030      6.52791e+8 
           4050       6.7004e+8 
           4070      6.57262e+8 
           4090      6.18037e+8 
           4110      5.42387e+8 
           4130      6.18404e+8 
           4150      6.11276e+8 
           4170      6.05015e+8 
           4190      5.96978e+8 
           4210      5.87409e+8 
           4230      5.77972e+8 
           4250      5.68708e+8 
           4270      5.59178e+8 
           4290      5.50783e+8 
           4310      5.40369e+8 
           4330      5.00205e+8 
           4350      4.56714e+8 
           4370      5.14664e+8 
           4390      4.97631e+8 
           4410       5.0107e+8 
           4430      4.91181e+8 
           4450      4.85844e+8 
           4470      4.61671e+8 
           4490      4.70984e+8 
           4510      4.63982e+8 
           4530      4.56957e+8 
           4550      4.50037e+8 
           4570      4.43275e+8 
           4590      4.36666e+8 
           4610      4.30174e+8 
           4630      4.23794e+8 
           4650      4.17403e+8 
           4670      4.11366e+8 
           4690      4.05279e+8 
           4710      3.94746e+8 
           4730      3.93536e+8 
           4750      3.87741e+8 
           4770      3.82294e+8 
           4790      3.76793e+8 
           4810      3.71338e+8 
           4830      3.64733e+8 
           4850       3.4264e+8 
           4870      3.06792e+8 
           4890        3.487e+8 
           4910       3.4549e+8 
           4930      3.34121e+8 
           4950      3.36101e+8 
           4970      3.31418e+8 
           4990      3.26815e+8 
           5010      3.18703e+8 
           5030      3.17826e+8 
           5050      3.11621e+8 
           5070      3.09152e+8 
           5090      3.04925e+8 
           5110      3.00782e+8 
           5130      2.96695e+8 
           5150      2.92676e+8 
           5170      2.88739e+8 
           5190      2.84854e+8 
           5210      2.81033e+8 
           5230       2.7729e+8 
           5250       2.7361e+8 
           5270      2.69977e+8 
           5290      2.66405e+8 
           5310      2.62905e+8 
           5330      2.59451e+8 
           5350      2.56054e+8 
           5370      2.52726e+8 
           5390       2.4944e+8 
           5410      2.46209e+8 
           5430      2.43032e+8 
           5450      2.39907e+8 
           5470      2.36821e+8 
           5490      2.33799e+8 
           5510      2.30827e+8 
           5530      2.27891e+8 
           5550      2.25004e+8 
           5570      2.22165e+8 
           5590      2.19372e+8 
           5610      2.16626e+8 
           5630      2.13913e+8 
           5650      2.11245e+8 
           5670       2.0862e+8 
           5690      2.06028e+8 
           5710      2.03501e+8 
           5730      2.01004e+8 
           5750      1.98537e+8 
           5770      1.96111e+8 
           5790      1.93713e+8 
           5810      1.91366e+8 
           5830      1.89047e+8 
           5850      1.86766e+8 
           5870      1.79569e+8 
           5890      1.82185e+8 
           5910      1.80113e+8 
           5930      1.77968e+8 
           5950      1.75848e+8 
           5970      1.73763e+8 
           5990      1.71712e+8 
           6010      1.69684e+8 
           6030       1.6769e+8 
           6050      1.65729e+8 
           6070       1.6379e+8 
           6090      1.61883e+8 
           6110      1.60008e+8 
           6130      1.58153e+8 
           6150      1.56329e+8 
           6170      1.54526e+8 
           6190      1.52752e+8 
           6210      1.51008e+8 
           6230      1.49283e+8 
           6250      1.47586e+8 
           6270      1.45908e+8 
           6290      1.44258e+8 
           6310      1.42636e+8 
           6330      1.41031e+8 
           6350      1.39443e+8 
           6370      1.37882e+8 
           6390      1.36346e+8 
           6410      1.34837e+8 
           6430      1.33343e+8 
           6450      1.31865e+8 
           6470      1.30413e+8 
           6490      1.28975e+8 
           6510      1.27561e+8 
           6530      1.25854e+8 
           6550      1.21398e+8 
           6570      1.08433e+8 
           6590        1.213e+8 
           6610       1.2073e+8 
           6630      1.19472e+8 
           6650      1.18277e+8 
           6670      1.16002e+8 
           6690      1.14788e+8 
           6710      1.14523e+8 
           6730      1.13303e+8 
           6750      1.12103e+8 
           6770      1.10916e+8 
           6790      1.09748e+8 
           6810      1.08593e+8 
           6830      1.07449e+8 
           6850      1.06325e+8 
           6870      1.05212e+8 
           6890      1.04118e+8 
           6910      1.03035e+8 
           6930      1.01962e+8 
           6950      1.00916e+8 
           6970      9.98803e+7 
           6990      9.88392e+7 
           7010      9.78391e+7 
           7030      9.68334e+7 
           7050      9.58451e+7 
           7070      9.33893e+7 
           7090      9.39124e+7 
           7110        9.296e+7 
           7130      9.20242e+7 
           7150      9.10974e+7 
           7170      9.01576e+7 
           7190      8.92778e+7 
           7210      8.83846e+7 
           7230      8.74638e+7 
           7250      8.66307e+7 
           7270       8.5777e+7 
           7290      8.42436e+7 
           7310      8.40723e+7 
           7330      8.32636e+7 
           7350      8.24415e+7 
           7370       8.1634e+7 
           7390      8.08409e+7 
           7410      8.00483e+7 
           7430      7.92699e+7 
           7450      7.85191e+7 
           7470      7.77549e+7 
           7490      7.70044e+7 
           7510      7.62341e+7 
           7530      7.55307e+7 
           7550      7.48073e+7 
           7570      7.40904e+7 
           7590      7.33865e+7 
           7610       7.2689e+7 
           7630      7.19978e+7 
           7650      7.13193e+7 
           7670      7.06469e+7 
           7690      6.99805e+7 
           7710      6.93137e+7 
           7730      6.86718e+7 
           7750       6.8023e+7 
           7770      6.73925e+7 
           7790      6.67675e+7 
           7810      6.60924e+7 
           7830       6.5534e+7 
           7850      6.50049e+7 
           7870      6.44012e+7 
           7890      6.37725e+7 
           7910      6.32277e+7 
           7930      6.25437e+7 
           7950      6.19195e+7 
           7970      6.13126e+7 
           7990      6.07818e+7 
           8010      6.02026e+7 
           8030      5.96811e+7 
           8050      5.91814e+7 
           8070       5.8686e+7 
           8090      5.80336e+7 
           8110      5.75873e+7 
           8130      5.71561e+7 
           8150      5.65277e+7 
           8170      5.61503e+7 
           8190      5.55753e+7 
           8210      5.49857e+7 
           8230      5.46843e+7 
           8250       5.4212e+7 
           8270      5.34383e+7 
           8290      5.31885e+7 
           8310      5.27418e+7 
           8330      5.22684e+7 
           8350      5.15466e+7 
           8370      5.12221e+7 
           8390       5.0846e+7 
           8410      5.03722e+7 
           8430      4.98514e+7 
           8450       4.9152e+7 
           8470      4.87426e+7 
           8490      4.86502e+7 
           8510      4.76508e+7 
           8530      4.80386e+7 
           8550      4.60609e+7 
           8570       4.8019e+7 
