# Kurucz ODFNEW /NOVER (2003)
# teff = 7750 K (value for the effective temperature for the model. Temperatures are given in K)
# logg = 3 log(cm/s2) (value for Log(G) for the model.)
# meta = -4  (value for the Metallicity for the model.)
# lh = 1.25  (l/Hp where l is the  mixing length of the convective element and Hp is the pressure scale height)
# vtur = 2 km/s (Microturbulence velocity)
# alpha = 0.4  (Alpha)
#
# column 1: WAVELENGTH (ANGSTROM), Wavelength in Angstrom
# column 2: FLUX (ERG/CM2/S/A), Flux in erg/cm2/s/A
          147.2     1.73866e-35 
            151     1.65225e-35 
          155.2     1.56403e-35 
          158.8     1.49392e-35 
            162     1.43549e-35 
            166     1.36714e-35 
          170.3     1.29897e-35 
          173.4     1.25294e-35 
          176.8     1.20522e-35 
          180.2     1.16017e-35 
          181.7     1.14109e-35 
          186.1     1.08777e-35 
            191     1.03267e-35 
          193.9     1.00201e-35 
          198.4     9.57076e-36 
          201.8     9.25097e-36 
            205     8.96441e-36 
          210.5     8.50208e-36 
          216.2     8.05969e-36 
          219.8     7.79784e-36 
            223     7.57565e-36 
          226.8     7.32392e-36 
            230     7.12154e-36 
            234     6.88015e-36 
            240     6.54044e-36 
          246.5     6.20006e-36 
          252.4     5.91358e-36 
          256.8     5.71267e-36 
            260     5.57292e-36 
            264     5.40532e-36 
          268.5     5.22566e-36 
          273.5     5.03634e-36 
          278.5     4.85712e-36 
            284     4.67082e-36 
            290     4.47954e-36 
            296      2.2748e-23 
            301     1.13471e-22 
            308     7.26423e-22 
            318     8.53084e-21 
            328     8.55751e-20 
            338     7.45419e-19 
            348     5.71079e-18 
            357     3.22728e-17 
            366     1.67056e-16 
            375     7.96617e-16 
            385      4.1357e-15 
            395     1.96853e-14 
            405     8.65036e-14 
            414     3.07611e-13 
            422     9.06051e-13 
            430     2.55927e-12 
            441     1.00053e-11 
            451     3.25441e-11 
            460      8.9856e-11 
            470     2.64802e-10 
            480     7.44319e-10 
            490      2.00117e-9 
            500      5.16059e-9 
            506      9.15589e-9 
            512      1.58441e-8 
            520      3.17183e-8 
            530      7.32819e-8 
            540      1.63534e-7 
            550       3.5435e-7 
            560       7.4529e-7 
            570      1.52466e-6 
            580      3.03534e-6 
            590      5.90776e-6 
            600      1.12171e-5 
            610      2.08229e-5 
            620      3.78513e-5 
            630      6.74307e-5 
            640     0.000117838 
            650     0.000202168 
            658     0.000307395 
            665     0.000439638 
            675      0.00072294 
            685      0.00117035 
            695      0.00186725 
            705      0.00293675 
            716      0.00475688 
            726      0.00727476 
            735       0.0105496 
            745       0.0157615 
            755       0.0232782 
            765       0.0340014 
            775       0.0491515 
            785       0.0703359 
            795       0.0996624 
            805        0.139884 
            815        0.194551 
            825        0.268234 
            835        0.366763 
            845        0.497498 
            855        0.669587 
            865        0.894363 
            875          1.1859 
            885         1.56151 
            895         2.04222 
            905         2.65377 
            915         5.27954 
            925         18.2574 
            935          30.992 
            945         55.2971 
            955          83.221 
            965         99.6494 
            975         73.6557 
            985         202.855 
            995          259.24 
           1005          253.32 
           1015         204.731 
           1025         175.466 
           1035          326.55 
           1045         569.669 
           1055         808.207 
           1065          1446.4 
           1075         3386.12 
           1085         8703.44 
           1095         9773.71 
           1105         8307.93 
           1115          4866.6 
           1125         3129.92 
           1135          2480.6 
           1145         2220.59 
           1155         2123.82 
           1165         1997.22 
           1175         2070.77 
           1185         3581.84 
           1195         2201.06 
           1205         1670.29 
           1215         1213.39 
           1225         2005.17 
           1235         3377.22 
           1245         1196.62 
           1255         2574.16 
           1265            5269 
           1275            6782 
           1285         8908.86 
           1295         11905.8 
           1305           19925 
           1315         34217.1 
           1325         63486.9 
           1335          113324 
           1345          191530 
           1355          288063 
           1365          402383 
           1375          408068 
           1385          370047 
           1395          377441 
           1405          784251 
           1415      1.58481e+6 
           1425      1.78405e+6 
           1435      2.11359e+6 
           1442      2.43645e+6 
           1447      2.14435e+6 
           1455      2.61234e+6 
           1465      2.40337e+6 
           1475      2.68674e+6 
           1485      2.88233e+6 
           1495      3.10836e+6 
           1505       3.3882e+6 
           1512      3.56173e+6 
           1517      3.07779e+6 
           1525      3.27529e+6 
           1535       3.2465e+6 
           1545      2.75781e+6 
           1555      2.56541e+6 
           1565      1.98407e+6 
           1575      1.72887e+6 
           1585      1.52748e+6 
           1595      1.34133e+6 
           1605      1.38214e+6 
           1615      2.38512e+6 
           1625      4.17614e+6 
           1635      6.27336e+6 
           1645      9.23257e+6 
           1655      1.00601e+7 
           1665      1.30846e+7 
           1672      1.36807e+7 
           1677      1.43347e+7 
           1685      1.50215e+7 
           1695      1.54519e+7 
           1705      1.57663e+7 
           1715      1.63771e+7 
           1725       1.6508e+7 
           1735      1.69153e+7 
           1745      1.67863e+7 
           1755      1.70297e+7 
           1765      1.70719e+7 
           1775      1.72053e+7 
           1785      1.71976e+7 
           1795      1.74905e+7 
           1805      1.72684e+7 
           1815      1.73622e+7 
           1825      1.73489e+7 
           1835      1.75844e+7 
           1845      1.73378e+7 
           1855      1.76211e+7 
           1865      1.78128e+7 
           1875       1.7858e+7 
           1885      1.79118e+7 
           1895      1.79645e+7 
           1905      1.78668e+7 
           1915      1.80238e+7 
           1925      1.81013e+7 
           1935      1.78443e+7 
           1945      1.81771e+7 
           1955      1.82006e+7 
           1967      1.82401e+7 
           1976      1.81815e+7 
           1984        1.815e+7 
           1995      1.82855e+7 
           2005       1.8245e+7 
           2015      1.81998e+7 
           2025      1.81446e+7 
           2035      1.83369e+7 
           2045        1.834e+7 
           2055      1.81298e+7 
           2065      1.81923e+7 
           2074      1.84184e+7 
           2078      1.84226e+7 
           2085      1.84143e+7 
           2095      1.84269e+7 
           2105      1.84376e+7 
           2115      1.84422e+7 
           2125      1.83558e+7 
           2135      1.84206e+7 
           2145      1.84851e+7 
           2155      1.84697e+7 
           2165      1.82818e+7 
           2175      1.83657e+7 
           2185      1.84655e+7 
           2195      1.85377e+7 
           2205      1.83939e+7 
           2215      1.81169e+7 
           2225      1.83105e+7 
           2235       1.8546e+7 
           2245      1.84978e+7 
           2255      1.83185e+7 
           2265      1.82071e+7 
           2275      1.84331e+7 
           2285      1.84734e+7 
           2295      1.84015e+7 
           2305      1.85024e+7 
           2315      1.84694e+7 
           2325       1.8444e+7 
           2335      1.82767e+7 
           2345      1.78094e+7 
           2355       1.8331e+7 
           2365       1.7855e+7 
           2375      1.82507e+7 
           2385      1.76582e+7 
           2395      1.81652e+7 
           2405      1.81825e+7 
           2415      1.81782e+7 
           2425        1.855e+7 
           2435      1.84469e+7 
           2445      1.84684e+7 
           2455      1.85451e+7 
           2465      1.84464e+7 
           2475       1.8425e+7 
           2485      1.83685e+7 
           2495      1.82827e+7 
           2505      1.85044e+7 
           2513      1.82675e+7 
           2518      1.82597e+7 
           2525      1.82083e+7 
           2535      1.81822e+7 
           2545      1.83804e+7 
           2555      1.85582e+7 
           2565      1.83525e+7 
           2575      1.84415e+7 
           2585      1.84384e+7 
           2595      1.83995e+7 
           2605      1.83418e+7 
           2615      1.82882e+7 
           2625      1.82957e+7 
           2635      1.83833e+7 
           2645      1.87303e+7 
           2655      1.87247e+7 
           2665      1.86401e+7 
           2675      1.86627e+7 
           2685      1.87282e+7 
           2695      1.87036e+7 
           2705      1.87216e+7 
           2715      1.85773e+7 
           2725      1.85523e+7 
           2735      1.85937e+7 
           2745      1.81539e+7 
           2755      1.82949e+7 
           2765      1.85491e+7 
           2775      1.87273e+7 
           2785      1.87033e+7 
           2795       1.7993e+7 
           2805      1.83902e+7 
           2815      1.87665e+7 
           2825      1.87614e+7 
           2835      1.87024e+7 
           2845       1.8727e+7 
           2855      1.85448e+7 
           2865       1.8684e+7 
           2875      1.87266e+7 
           2885      1.86861e+7 
           2895      1.87627e+7 
           2910      1.87744e+7 
           2930      1.87011e+7 
           2950      1.86865e+7 
           2970      1.87444e+7 
           2990      1.87271e+7 
           3010      1.87556e+7 
           3030      1.87538e+7 
           3050      1.87492e+7 
           3070      1.87104e+7 
           3090      1.87333e+7 
           3110      1.87276e+7 
           3130      1.87151e+7 
           3150      1.86973e+7 
           3170      1.86961e+7 
           3190      1.86434e+7 
           3210      1.86688e+7 
           3230      1.86001e+7 
           3250      1.86376e+7 
           3270       1.8646e+7 
           3290      1.86369e+7 
           3310      1.86224e+7 
           3330      1.85897e+7 
           3350      1.85473e+7 
           3370      1.85401e+7 
           3390      1.85265e+7 
           3410      1.85301e+7 
           3430      1.85084e+7 
           3450      1.84844e+7 
           3470      1.84615e+7 
           3490      1.84401e+7 
           3510      1.84177e+7 
           3530      1.83934e+7 
           3550      1.83682e+7 
           3570      1.83374e+7 
           3590      1.83102e+7 
           3610      1.82819e+7 
           3630      1.82522e+7 
           3640      1.82362e+7 
           3650      1.83135e+7 
           3670      1.81346e+7 
           3690      1.77996e+7 
           3710       2.0819e+7 
           3730      2.38238e+7 
           3750      3.18931e+7 
           3770      3.38855e+7 
           3790      4.02482e+7 
           3810      4.67716e+7 
           3830      3.79737e+7 
           3850      5.15133e+7 
           3870      5.73059e+7 
           3890      3.34727e+7 
           3910       5.7029e+7 
           3930      6.05137e+7 
           3950      5.64907e+7 
           3970      3.24504e+7 
           3990      5.39889e+7 
           4010      5.95618e+7 
           4030      5.97213e+7 
           4050      5.89147e+7 
           4070      5.67133e+7 
           4090      4.49064e+7 
           4110      3.48337e+7 
           4130       5.3792e+7 
           4150      5.57094e+7 
           4170      5.56204e+7 
           4190      5.51701e+7 
           4210      5.46174e+7 
           4230      5.40137e+7 
           4250      5.33876e+7 
           4270      5.26717e+7 
           4290      5.17069e+7 
           4310      4.95509e+7 
           4330       3.8278e+7 
           4350      3.27464e+7 
           4370      4.74736e+7 
           4390      4.89578e+7 
           4410      4.88905e+7 
           4430      4.85345e+7 
           4450      4.81106e+7 
           4470      4.76849e+7 
           4490      4.71993e+7 
           4510      4.67168e+7 
           4530      4.62373e+7 
           4550      4.57607e+7 
           4570      4.52997e+7 
           4590      4.48415e+7 
           4610      4.43894e+7 
           4630        4.394e+7 
           4650      4.34983e+7 
           4670      4.30609e+7 
           4690      4.26311e+7 
           4710      4.21968e+7 
           4730      4.17817e+7 
           4750      4.12737e+7 
           4770      4.08124e+7 
           4790      4.02933e+7 
           4810      3.95877e+7 
           4830      3.80542e+7 
           4850      3.09824e+7 
           4870      2.54167e+7 
           4890      3.62722e+7 
           4910       3.7579e+7 
           4930      3.76033e+7 
           4950        3.738e+7 
           4970      3.70798e+7 
           4990      3.68104e+7 
           5010      3.64601e+7 
           5030      3.61186e+7 
           5050      3.57784e+7 
           5070       3.5441e+7 
           5090      3.51092e+7 
           5110      3.47815e+7 
           5130      3.44565e+7 
           5150      3.41368e+7 
           5170       3.3807e+7 
           5190      3.35022e+7 
           5210      3.31996e+7 
           5230      3.28925e+7 
           5250      3.25932e+7 
           5270      3.22947e+7 
           5290      3.20025e+7 
           5310      3.17098e+7 
           5330      3.14219e+7 
           5350      3.11373e+7 
           5370      3.08562e+7 
           5390      3.05784e+7 
           5410      3.03038e+7 
           5430      3.00337e+7 
           5450      2.97655e+7 
           5470      2.95004e+7 
           5490      2.92383e+7 
           5510      2.89805e+7 
           5530      2.87245e+7 
           5550      2.84726e+7 
           5570      2.82223e+7 
           5590      2.79749e+7 
           5610      2.77315e+7 
           5630      2.74897e+7 
           5650      2.72506e+7 
           5670      2.70141e+7 
           5690      2.67815e+7 
           5710      2.65492e+7 
           5730      2.63205e+7 
           5750      2.60945e+7 
           5770      2.58709e+7 
           5790      2.56498e+7 
           5810      2.54311e+7 
           5830      2.52148e+7 
           5850      2.50008e+7 
           5870       2.4787e+7 
           5890      2.45788e+7 
           5910      2.43728e+7 
           5930       2.4168e+7 
           5950      2.39653e+7 
           5970      2.37649e+7 
           5990      2.35665e+7 
           6010      2.33703e+7 
           6030      2.31762e+7 
           6050      2.29841e+7 
           6070       2.2795e+7 
           6090       2.2607e+7 
           6110      2.24219e+7 
           6130      2.22377e+7 
           6150      2.20554e+7 
           6170      2.18751e+7 
           6190      2.16976e+7 
           6210      2.15209e+7 
           6230      2.13461e+7 
           6250       2.1173e+7 
           6270      2.10027e+7 
           6290      2.08332e+7 
           6310      2.06654e+7 
           6330      2.05002e+7 
           6350      2.03358e+7 
           6370       2.0173e+7 
           6390      2.00128e+7 
           6410      1.98532e+7 
           6430      1.96953e+7 
           6450      1.95236e+7 
           6470      1.93301e+7 
           6490       1.9137e+7 
           6510      1.88862e+7 
           6530      1.84067e+7 
           6550      1.64302e+7 
           6570      1.33525e+7 
           6590      1.75621e+7 
           6610      1.80725e+7 
           6630       1.8087e+7 
           6650      1.80014e+7 
           6670      1.78953e+7 
           6690      1.77843e+7 
           6710      1.76474e+7 
           6730      1.75119e+7 
           6750      1.73769e+7 
           6770       1.7244e+7 
           6790      1.71123e+7 
           6810      1.69819e+7 
           6830      1.68527e+7 
           6850      1.67239e+7 
           6870      1.65971e+7 
           6890      1.64716e+7 
           6910      1.63472e+7 
           6930      1.62239e+7 
           6950      1.61018e+7 
           6970      1.59808e+7 
           6990       1.5861e+7 
           7010      1.57423e+7 
           7030      1.56246e+7 
           7050       1.5508e+7 
           7070      1.53933e+7 
           7090      1.52788e+7 
           7110      1.51654e+7 
           7130      1.50531e+7 
           7150      1.49424e+7 
           7170      1.48321e+7 
           7190      1.47234e+7 
           7210      1.46151e+7 
           7230      1.45076e+7 
           7250      1.44019e+7 
           7270      1.42964e+7 
           7290      1.41925e+7 
           7310      1.40889e+7 
           7330      1.39869e+7 
           7350      1.38851e+7 
           7370      1.37848e+7 
           7390      1.36855e+7 
           7410      1.35863e+7 
           7430      1.34887e+7 
           7450       1.3392e+7 
           7470       1.3296e+7 
           7490       1.3201e+7 
           7510       1.3106e+7 
           7530      1.30126e+7 
           7550      1.29206e+7 
           7570      1.28287e+7 
           7590      1.27377e+7 
           7610      1.26474e+7 
           7630      1.25579e+7 
           7650      1.24691e+7 
           7670      1.23818e+7 
           7690      1.22945e+7 
           7710       1.2208e+7 
           7730      1.21228e+7 
           7750      1.20378e+7 
           7770      1.19522e+7 
           7790      1.18704e+7 
           7810      1.17881e+7 
           7830      1.17058e+7 
           7850      1.16248e+7 
           7870      1.15439e+7 
           7890      1.14643e+7 
           7910      1.13853e+7 
           7930       1.1307e+7 
           7950      1.12293e+7 
           7970      1.11523e+7 
           7990      1.10759e+7 
           8010      1.10001e+7 
           8030      1.09249e+7 
           8050      1.08503e+7 
           8070      1.07764e+7 
           8090       1.0703e+7 
           8110      1.06302e+7 
           8130      1.05586e+7 
           8150       1.0487e+7 
           8170       1.0416e+7 
           8190      1.03461e+7 
           8210      1.02924e+7 
           8230      1.02279e+7 
           8250      1.01651e+7 
           8270      1.01028e+7 
           8290      1.00393e+7 
           8310      9.97195e+6 
           8330      9.89914e+6 
           8350      9.82909e+6 
           8370      9.72678e+6 
           8390      9.65049e+6 
           8410      9.55192e+6 
           8430      9.53792e+6 
           8450      9.49388e+6 
           8470      9.16028e+6 
           8490      9.53948e+6 
           8510      8.91987e+6 
           8530      9.55222e+6 
           8550      8.52688e+6 
           8570      9.61509e+6 
           8590      8.96332e+6 
