# Kurucz ODFNEW /NOVER (2003)
# teff = 38000 K (value for the effective temperature for the model. Temperatures are given in K)
# logg = 5 log(cm/s2) (value for Log(G) for the model.)
# meta = 0.2  (value for the Metallicity for the model.)
# lh = 1.25  (l/Hp where l is the  mixing length of the convective element and Hp is the pressure scale height)
# vtur = 2 km/s (Microturbulence velocity)
# alpha = 0.4  (Alpha)
#
# column 1: WAVELENGTH (ANGSTROM), Wavelength in Angstrom
# column 2: FLUX (ERG/CM2/S/A), Flux in erg/cm2/s/A
          147.2       0.0111065 
            151       0.0251522 
          155.2       0.0581586 
          158.8        0.115273 
            162        0.204902 
            166        0.415214 
          170.3        0.843566 
          173.4         1.38826 
          176.8         2.37211 
          180.2         3.91939 
          181.7         4.92665 
          186.1           9.139 
            191         17.5813 
          193.9         25.5033 
          198.4         44.7395 
          201.8         66.6838 
            205         96.1164 
          210.5         175.798 
          216.2         314.247 
          219.8         455.643 
            223         620.824 
          226.8         928.599 
            230          320783 
            234          781447 
            240      1.07433e+6 
          246.5      1.53668e+6 
          252.4      2.55473e+6 
          256.8      3.44931e+6 
            260      4.70098e+6 
            264      8.05609e+6 
          268.5      1.23618e+7 
          273.5      1.52405e+7 
          278.5      1.58765e+7 
            284      3.03869e+7 
            290      4.03436e+7 
            296      4.60033e+7 
            301      7.90874e+7 
            308      1.65772e+8 
            318      2.53474e+8 
            328      3.44871e+8 
            338      5.53929e+8 
            348      7.63202e+8 
            357      1.47471e+9 
            366      3.36384e+9 
            375      4.01925e+9 
            385       5.2385e+9 
            395     1.04212e+10 
            405     1.50035e+10 
            414     1.54942e+10 
            422     1.56019e+10 
            430     1.45517e+10 
            441     1.61775e+10 
            451     1.72302e+10 
            460     1.44596e+10 
            470     1.56824e+10 
            480     1.78096e+10 
            490     1.37813e+10 
            500     1.81252e+10 
            506     1.59352e+10 
            512     6.26249e+10 
            520     5.68535e+10 
            530     5.08752e+10 
            540     4.64129e+10 
            550     4.43906e+10 
            560     5.98839e+10 
            570     6.76084e+10 
            580     6.38704e+10 
            590     6.50029e+10 
            600     4.56523e+10 
            610     5.29598e+10 
            620     6.76633e+10 
            630     6.41256e+10 
            640     6.74912e+10 
            650     6.20663e+10 
            658     4.63651e+10 
            665     5.98985e+10 
            675     6.83872e+10 
            685     5.33102e+10 
            695     6.61099e+10 
            705     4.81242e+10 
            716     6.83528e+10 
            726     6.71432e+10 
            735     6.71659e+10 
            745      5.9676e+10 
            755     5.92728e+10 
            765     5.85779e+10 
            775     6.09177e+10 
            785     5.65444e+10 
            795     6.01909e+10 
            805     5.71607e+10 
            815     5.69894e+10 
            825     5.90756e+10 
            835     4.63336e+10 
            845     5.58479e+10 
            855      5.3771e+10 
            865     5.56163e+10 
            875     5.51052e+10 
            885     5.44249e+10 
            895     5.38786e+10 
            905     5.17608e+10 
            915     4.37541e+10 
            925      7.9139e+10 
            935     1.13498e+11 
            945     1.44474e+11 
            955     1.64443e+11 
            965     1.89917e+11 
            975     1.06723e+11 
            985      1.6062e+11 
            995     1.39375e+11 
           1005     1.40621e+11 
           1015     1.47854e+11 
           1025     1.17007e+11 
           1035     1.46349e+11 
           1045     1.61021e+11 
           1055     1.53694e+11 
           1065     1.33377e+11 
           1075     1.38522e+11 
           1085     1.24259e+11 
           1095     1.34567e+11 
           1105     1.27518e+11 
           1115     1.25525e+11 
           1125     1.05352e+11 
           1135     1.19576e+11 
           1145     1.16189e+11 
           1155     1.05784e+11 
           1165     1.02769e+11 
           1175     7.86571e+10 
           1185     9.54577e+10 
           1195     9.03264e+10 
           1205     8.76011e+10 
           1215     6.80868e+10 
           1225     8.30794e+10 
           1235     8.70598e+10 
           1245     8.45878e+10 
           1255     8.42473e+10 
           1265     8.50677e+10 
           1275     8.68601e+10 
           1285     8.63051e+10 
           1295     8.19515e+10 
           1305     8.05189e+10 
           1315     8.28915e+10 
           1325     8.02888e+10 
           1335     7.81477e+10 
           1345     7.63236e+10 
           1355     7.45754e+10 
           1365      7.1481e+10 
           1375     6.89585e+10 
           1385     6.71317e+10 
           1395     5.67487e+10 
           1405     5.60469e+10 
           1415     6.46276e+10 
           1425     5.78909e+10 
           1435     6.12654e+10 
           1442     5.95976e+10 
           1447      5.9424e+10 
           1455     5.66422e+10 
           1465     5.57838e+10 
           1475     5.54525e+10 
           1485     5.55418e+10 
           1495     5.36939e+10 
           1505      5.2695e+10 
           1512     5.23318e+10 
           1517      5.1989e+10 
           1525      5.0324e+10 
           1535     4.48051e+10 
           1545     3.71139e+10 
           1555     3.77333e+10 
           1565     4.16318e+10 
           1575     4.30199e+10 
           1585     4.22328e+10 
           1595     4.26897e+10 
           1605     4.01953e+10 
           1615     3.84396e+10 
           1625     3.90065e+10 
           1635     3.86379e+10 
           1645     3.80318e+10 
           1655     3.86932e+10 
           1665     3.73437e+10 
           1672     3.51074e+10 
           1677     3.97891e+10 
           1685     3.83069e+10 
           1695     3.71953e+10 
           1705     3.64013e+10 
           1715     3.49521e+10 
           1725     3.34959e+10 
           1735     3.45476e+10 
           1745     3.42642e+10 
           1755     3.34602e+10 
           1765     3.27652e+10 
           1775     3.17729e+10 
           1785     3.20848e+10 
           1795     3.10899e+10 
           1805      3.0781e+10 
           1815     3.01946e+10 
           1825     2.94506e+10 
           1835     2.93666e+10 
           1845     2.85699e+10 
           1855     2.84718e+10 
           1865     2.82626e+10 
           1875     2.72901e+10 
           1885     2.65666e+10 
           1895     2.65041e+10 
           1905     2.64788e+10 
           1915     2.58496e+10 
           1925     2.43781e+10 
           1935     2.53392e+10 
           1945     2.52346e+10 
           1955      2.3542e+10 
           1967     2.40297e+10 
           1976     2.39821e+10 
           1984     2.35852e+10 
           1995     2.29908e+10 
           2005     2.31378e+10 
           2015     2.28206e+10 
           2025     2.24873e+10 
           2035     2.19294e+10 
           2045     2.15001e+10 
           2055     1.63733e+10 
           2065     1.56108e+10 
           2074      1.5861e+10 
           2078     1.59396e+10 
           2085     1.67123e+10 
           2095     1.81042e+10 
           2105     1.92853e+10 
           2115     1.95329e+10 
           2125     1.89265e+10 
           2135     1.88901e+10 
           2145      1.8594e+10 
           2155     1.84559e+10 
           2165     1.73896e+10 
           2175     1.80265e+10 
           2185     1.71935e+10 
           2195     1.76729e+10 
           2205     1.73859e+10 
           2215      1.6393e+10 
           2225     1.68441e+10 
           2235     1.66191e+10 
           2245     1.62935e+10 
           2255     1.54951e+10 
           2265      1.5844e+10 
           2275     1.56984e+10 
           2285      1.5114e+10 
           2295     1.42737e+10 
           2305     1.43189e+10 
           2315      1.4445e+10 
           2325     1.44235e+10 
           2335     1.42615e+10 
           2345     1.40017e+10 
           2355     1.36949e+10 
           2365     1.34494e+10 
           2375     1.31179e+10 
           2385     1.23472e+10 
           2395     1.26259e+10 
           2405     1.26338e+10 
           2415     1.24312e+10 
           2425      1.2384e+10 
           2435     1.21478e+10 
           2445     1.20051e+10 
           2455     1.17925e+10 
           2465     1.16883e+10 
           2475     1.15541e+10 
           2485     1.11941e+10 
           2495      8.65173e+9 
           2505     1.06685e+10 
           2513     1.00852e+10 
           2518     1.03958e+10 
           2525      1.0691e+10 
           2535     1.06349e+10 
           2545     1.04346e+10 
           2555     1.03012e+10 
           2565     1.01477e+10 
           2575     1.00554e+10 
           2585      9.93039e+9 
           2595      9.66324e+9 
           2605      9.66858e+9 
           2615      9.44878e+9 
           2625      9.41082e+9 
           2635      9.31131e+9 
           2645      9.13765e+9 
           2655      9.06413e+9 
           2665      8.88326e+9 
           2675      8.61585e+9 
           2685      8.64637e+9 
           2695      8.51645e+9 
           2705      8.47419e+9 
           2715      8.33318e+9 
           2725      8.20262e+9 
           2735      7.89748e+9 
           2745      8.06153e+9 
           2755      7.93065e+9 
           2765      7.82066e+9 
           2775      7.75706e+9 
           2785      7.59751e+9 
           2795      7.36819e+9 
           2805      7.41534e+9 
           2815        7.358e+9 
           2825      7.25265e+9 
           2835      7.15142e+9 
           2845      7.11613e+9 
           2855       7.0049e+9 
           2865      6.88219e+9 
           2875      6.80568e+9 
           2885      6.74003e+9 
           2895      6.63196e+9 
           2910      6.47346e+9 
           2930      6.38319e+9 
           2950      6.21468e+9 
           2970      6.05695e+9 
           2990      5.86579e+9 
           3010      5.69454e+9 
           3030      5.52482e+9 
           3050      5.46151e+9 
           3070      5.34901e+9 
           3090      5.21568e+9 
           3110      5.13479e+9 
           3130      4.99171e+9 
           3150      4.90992e+9 
           3170      4.78817e+9 
           3190      4.69352e+9 
           3210      4.51566e+9 
           3230      4.48158e+9 
           3250      4.40234e+9 
           3270      4.24895e+9 
           3290      4.19153e+9 
           3310      4.09289e+9 
           3330      3.99461e+9 
           3350       3.8826e+9 
           3370      3.81808e+9 
           3390      3.75972e+9 
           3410      3.67687e+9 
           3430      3.62035e+9 
           3450      3.50696e+9 
           3470      3.46196e+9 
           3490      3.39796e+9 
           3510      3.33091e+9 
           3530      3.26274e+9 
           3550       3.1929e+9 
           3570      3.13328e+9 
           3590      3.06426e+9 
           3610      3.00063e+9 
           3630      2.93849e+9 
           3640      2.88114e+9 
           3650      2.66905e+9 
           3670      2.62406e+9 
           3690      2.57232e+9 
           3710      2.49306e+9 
           3730      2.48332e+9 
           3750      2.46607e+9 
           3770      2.42425e+9 
           3790      2.47513e+9 
           3810      2.51405e+9 
           3830      2.31846e+9 
           3850      2.48843e+9 
           3870      2.42578e+9 
           3890        2.156e+9 
           3910      2.41975e+9 
           3930      2.36286e+9 
           3950      2.28474e+9 
           3970      1.97829e+9 
           3990      2.23942e+9 
           4010      2.20535e+9 
           4030      2.11694e+9 
           4050       2.1428e+9 
           4070      2.05616e+9 
           4090      1.92931e+9 
           4110      1.78805e+9 
           4130      1.95979e+9 
           4150      1.93627e+9 
           4170      1.92575e+9 
           4190      1.87881e+9 
           4210      1.83077e+9 
           4230      1.82881e+9 
           4250      1.77927e+9 
           4270      1.74706e+9 
           4290      1.71075e+9 
           4310       1.6657e+9 
           4330      1.56258e+9 
           4350      1.46644e+9 
           4370      1.59298e+9 
           4390      1.55541e+9 
           4410      1.53763e+9 
           4430      1.52553e+9 
           4450      1.49691e+9 
           4470      1.44684e+9 
           4490      1.45139e+9 
           4510      1.41821e+9 
           4530      1.40111e+9 
           4550      1.35772e+9 
           4570      1.36235e+9 
           4590      1.33443e+9 
           4610      1.31052e+9 
           4630      1.27882e+9 
           4650      1.21862e+9 
           4670      1.24232e+9 
           4690      1.20076e+9 
           4710      1.20173e+9 
           4730      1.20691e+9 
           4750       1.1866e+9 
           4770      1.17028e+9 
           4790      1.15156e+9 
           4810      1.13075e+9 
           4830      1.10768e+9 
           4850      1.04624e+9 
           4870      9.61437e+8 
           4890      1.05363e+9 
           4910      1.04141e+9 
           4930      1.01596e+9 
           4950      1.00953e+9 
           4970      1.00176e+9 
           4990      9.86755e+8 
           5010      9.57865e+8 
           5030      9.51081e+8 
           5050      9.37964e+8 
           5070      9.28747e+8 
           5090      9.14541e+8 
           5110      9.00861e+8 
           5130      8.87351e+8 
           5150      8.74336e+8 
           5170      8.60509e+8 
           5190      8.48869e+8 
           5210      8.36951e+8 
           5230      8.25246e+8 
           5250      8.11016e+8 
           5270      7.98388e+8 
           5290      7.90249e+8 
           5310      7.78575e+8 
           5330      7.67637e+8 
           5350      7.57052e+8 
           5370      7.46211e+8 
           5390      7.35289e+8 
           5410      7.10915e+8 
           5430      7.15105e+8 
           5450      7.05401e+8 
           5470      6.95367e+8 
           5490       6.8586e+8 
           5510      6.75492e+8 
           5530      6.67092e+8 
           5550       6.5822e+8 
           5570        6.489e+8 
           5590      6.37598e+8 
           5610      6.31791e+8 
           5630      6.23257e+8 
           5650      6.14745e+8 
           5670      6.06116e+8 
           5690      5.89295e+8 
           5710      5.63429e+8 
           5730      5.56427e+8 
           5750      5.48757e+8 
           5770       5.4247e+8 
           5790      5.35448e+8 
           5810      5.26846e+8 
           5830      5.21132e+8 
           5850       5.1654e+8 
           5870      5.02256e+8 
           5890      5.05193e+8 
           5910      5.00971e+8 
           5930      4.96494e+8 
           5950      4.92268e+8 
           5970      4.88637e+8 
           5990       4.8455e+8 
           6010      4.80694e+8 
           6030       4.7606e+8 
           6050      4.72012e+8 
           6070      4.66606e+8 
           6090      4.61352e+8 
           6110      4.55289e+8 
           6130      4.49977e+8 
           6150      4.43878e+8 
           6170      4.38264e+8 
           6190      4.33716e+8 
           6210      4.28611e+8 
           6230       4.2269e+8 
           6250      4.17645e+8 
           6270      4.12944e+8 
           6290      4.07856e+8 
           6310      4.01764e+8 
           6330      3.98111e+8 
           6350      3.93009e+8 
           6370      3.88707e+8 
           6390      3.83962e+8 
           6410      3.78241e+8 
           6430      3.74963e+8 
           6450      3.70196e+8 
           6470      3.65463e+8 
           6490      3.61139e+8 
           6510      3.55794e+8 
           6530      3.49969e+8 
           6550      3.39283e+8 
           6570      3.09222e+8 
           6590      3.38343e+8 
           6610      3.36609e+8 
           6630      3.33244e+8 
           6650      3.29241e+8 
           6670      3.21672e+8 
           6690      3.17049e+8 
           6710      3.16919e+8 
           6730      3.13558e+8 
           6750      3.10429e+8 
           6770      3.07398e+8 
           6790      3.03873e+8 
           6810      3.00645e+8 
           6830      2.97199e+8 
           6850      2.93804e+8 
           6870      2.90324e+8 
           6890      2.84618e+8 
           6910      2.83233e+8 
           6930      2.81106e+8 
           6950       2.7797e+8 
           6970      2.74927e+8 
           6990      2.71791e+8 
           7010      2.68379e+8 
           7030      2.65268e+8 
           7050      2.62416e+8 
           7070       2.5712e+8 
           7090      2.57365e+8 
           7110      2.54436e+8 
           7130      2.51744e+8 
           7150      2.49158e+8 
           7170      2.44986e+8 
           7190       2.4283e+8 
           7210      2.41239e+8 
           7230      2.38154e+8 
           7250      2.35954e+8 
           7270      2.33638e+8 
           7290      2.30025e+8 
           7310      2.28486e+8 
           7330      2.26316e+8 
           7350      2.23928e+8 
           7370      2.21501e+8 
           7390       2.1931e+8 
           7410      2.16907e+8 
           7430      2.14778e+8 
           7450      2.12283e+8 
           7470      2.10094e+8 
           7490      2.07396e+8 
           7510      2.05898e+8 
           7530      2.03836e+8 
           7550      2.01826e+8 
           7570      1.99735e+8 
           7590      1.95394e+8 
           7610      1.95214e+8 
           7630      1.93603e+8 
           7650      1.91608e+8 
           7670      1.89828e+8 
           7690      1.87173e+8 
           7710       1.8576e+8 
           7730      1.83217e+8 
           7750      1.82279e+8 
           7770      1.80618e+8 
           7790       1.7881e+8 
           7810      1.77037e+8 
           7830      1.75286e+8 
           7850      1.73238e+8 
           7870      1.71483e+8 
           7890      1.69943e+8 
           7910      1.68537e+8 
           7930      1.66909e+8 
           7950      1.65355e+8 
           7970        1.635e+8 
           7990      1.62087e+8 
           8010      1.60568e+8 
           8030      1.58887e+8 
           8050      1.57523e+8 
           8070      1.56002e+8 
           8090      1.54466e+8 
           8110      1.52657e+8 
           8130      1.51582e+8 
           8150      1.50091e+8 
           8170      1.48561e+8 
           8190       1.4664e+8 
           8210      1.42299e+8 
           8230       1.4014e+8 
           8250      1.39511e+8 
           8270      1.38126e+8 
           8290      1.37214e+8 
           8310      1.36085e+8 
           8330      1.34439e+8 
           8350      1.33088e+8 
           8370      1.32178e+8 
           8390      1.31212e+8 
           8410      1.29971e+8 
           8430      1.28878e+8 
           8450      1.27466e+8 
           8470      1.26623e+8 
           8490      1.25463e+8 
           8510      1.24042e+8 
           8530      1.23305e+8 
           8550      1.22245e+8 
           8570      1.21352e+8 
