# Kurucz ODFNEW /NOVER (2003)
# teff = 26000 K (value for the effective temperature for the model. Temperatures are given in K)
# logg = 3.5 log(cm/s2) (value for Log(G) for the model.)
# meta = -4  (value for the Metallicity for the model.)
# lh = 1.25  (l/Hp where l is the  mixing length of the convective element and Hp is the pressure scale height)
# vtur = 2 km/s (Microturbulence velocity)
# alpha = 0.4  (Alpha)
#
# column 1: WAVELENGTH (ANGSTROM), Wavelength in Angstrom
# column 2: FLUX (ERG/CM2/S/A), Flux in erg/cm2/s/A
          147.2     5.69567e-12 
            151     2.53653e-11 
          155.2     1.20975e-10 
          158.8     4.30967e-10 
            162       1.2688e-9 
            166      4.60248e-9 
          170.3      1.71348e-8 
          173.4      4.23683e-8 
          176.8      1.10057e-7 
          180.2      2.75272e-7 
          181.7       4.0778e-7 
          186.1      1.24267e-6 
            191      4.03321e-6 
          193.9       7.8599e-6 
          198.4       2.1249e-5 
          201.8      4.36692e-5 
            205      8.40584e-5 
          210.5     0.000246603 
          216.2       0.0007076 
          219.8      0.00133639 
            223      0.00230891 
          226.8       0.0043266 
            230       0.0189326 
            234       0.0416366 
            240       0.0956343 
          246.5        0.226321 
          252.4        0.476304 
          256.8         0.74836 
            260         1.15939 
            264          1.8117 
          268.5         2.94137 
          273.5         4.93989 
          278.5         8.14685 
            284         13.8181 
            290         23.9933 
            296         40.5903 
            301         61.1576 
            308         103.682 
            318         235.163 
            328         480.506 
            338         937.932 
            348         1756.82 
            357         2989.62 
            366         4949.43 
            375         7972.06 
            385         13164.2 
            395         21126.3 
            405         33046.1 
            414         48435.3 
            422         66979.7 
            430         91368.6 
            441          137263 
            451          194828 
            460          263087 
            470          361790 
            480          489928 
            490          654263 
            500          861836 
            506       6.5683e+6 
            512      1.81924e+7 
            520      2.03105e+7 
            530      2.54564e+7 
            540      2.60197e+7 
            550      3.25208e+7 
            560      3.63383e+7 
            570      4.07526e+7 
            580      4.05085e+7 
            590      4.90928e+7 
            600      5.59412e+7 
            610      6.19533e+7 
            620      6.82023e+7 
            630      7.50678e+7 
            640      8.20601e+7 
            650      9.00049e+7 
            658       9.6496e+7 
            665      1.02398e+8 
            675      1.10788e+8 
            685      1.19323e+8 
            695      1.30289e+8 
            705      1.39694e+8 
            716      1.51711e+8 
            726      1.62728e+8 
            735      1.73718e+8 
            745      1.85736e+8 
            755      1.98125e+8 
            765      2.10849e+8 
            775      2.24165e+8 
            785      2.37773e+8 
            795      2.51636e+8 
            805      2.65991e+8 
            815      2.80563e+8 
            825      2.95588e+8 
            835      3.07419e+8 
            845      3.26387e+8 
            855      3.42158e+8 
            865      3.58334e+8 
            875      3.74734e+8 
            885      3.91306e+8 
            895      4.08054e+8 
            905      4.24385e+8 
            915      8.24172e+8 
            925       9.1868e+9 
            935     1.79073e+10 
            945     3.04893e+10 
            955     3.36147e+10 
            965      3.9079e+10 
            975     2.53277e+10 
            985     3.84466e+10 
            995     3.68257e+10 
           1005     3.76347e+10 
           1015     3.62945e+10 
           1025     2.23963e+10 
           1035     3.45396e+10 
           1045     3.49743e+10 
           1055     3.43754e+10 
           1065     3.33077e+10 
           1075     3.27626e+10 
           1085     3.13845e+10 
           1095     3.18407e+10 
           1105     3.08483e+10 
           1115     3.04268e+10 
           1125     2.95451e+10 
           1135     2.94722e+10 
           1145     2.88763e+10 
           1155     2.83587e+10 
           1165     2.78378e+10 
           1175     2.59307e+10 
           1185     2.67862e+10 
           1195     2.60559e+10 
           1205     2.48315e+10 
           1215     1.49199e+10 
           1225     2.41388e+10 
           1235      2.4306e+10 
           1245      2.3868e+10 
           1255     2.35047e+10 
           1265      2.3062e+10 
           1275     2.26361e+10 
           1285     2.22119e+10 
           1295     2.14398e+10 
           1305     2.11994e+10 
           1315     2.09952e+10 
           1325     2.06012e+10 
           1335     1.99612e+10 
           1345     1.98648e+10 
           1355     1.95131e+10 
           1365     1.91601e+10 
           1375     1.88217e+10 
           1385     1.84902e+10 
           1395     1.79207e+10 
           1405     1.76343e+10 
           1415      1.7515e+10 
           1425     1.72036e+10 
           1435     1.68999e+10 
           1442     1.66919e+10 
           1447      1.6544e+10 
           1455       1.631e+10 
           1465     1.60221e+10 
           1475      1.5739e+10 
           1485     1.54623e+10 
           1495     1.51909e+10 
           1505     1.49211e+10 
           1512     1.47441e+10 
           1517     1.46156e+10 
           1525     1.44115e+10 
           1535     1.41557e+10 
           1545     1.38268e+10 
           1555     1.36028e+10 
           1565     1.34561e+10 
           1575     1.32317e+10 
           1585     1.30104e+10 
           1595      1.2794e+10 
           1605     1.25729e+10 
           1615     1.23651e+10 
           1625     1.21625e+10 
           1635     1.19016e+10 
           1645     1.14254e+10 
           1655     1.15693e+10 
           1665     1.13777e+10 
           1672     1.12468e+10 
           1677      1.1157e+10 
           1685     1.10108e+10 
           1695      1.0831e+10 
           1705     1.06541e+10 
           1715     1.04778e+10 
           1725     1.03107e+10 
           1735     1.01505e+10 
           1745      9.98826e+9 
           1755      9.83158e+9 
           1765      9.67429e+9 
           1775      9.52398e+9 
           1785      9.37631e+9 
           1795      9.23144e+9 
           1805      9.08919e+9 
           1815      8.94757e+9 
           1825      8.80816e+9 
           1835      8.67225e+9 
           1845      8.53512e+9 
           1855      8.38564e+9 
           1865      8.26379e+9 
           1875      8.14909e+9 
           1885       8.0196e+9 
           1895      7.88724e+9 
           1905      7.78171e+9 
           1915      7.65196e+9 
           1925      7.53972e+9 
           1935      7.43382e+9 
           1945       7.3285e+9 
           1955      7.21429e+9 
           1967      7.09528e+9 
           1976      7.00359e+9 
           1984      6.91918e+9 
           1995      6.80343e+9 
           2005      6.71333e+9 
           2015      6.61829e+9 
           2025      6.52433e+9 
           2035      6.43043e+9 
           2045       6.3386e+9 
           2055      6.05529e+9 
           2065       5.9557e+9 
           2074      5.92042e+9 
           2078      5.90279e+9 
           2085       5.9225e+9 
           2095      5.89837e+9 
           2105      5.82325e+9 
           2115      5.74321e+9 
           2125      5.66284e+9 
           2135      5.58322e+9 
           2145        5.505e+9 
           2155      5.43505e+9 
           2165      5.35289e+9 
           2175      5.28745e+9 
           2185      5.20705e+9 
           2195      5.14501e+9 
           2205      5.07552e+9 
           2215      4.99877e+9 
           2225      4.94024e+9 
           2235      4.87433e+9 
           2245       4.8097e+9 
           2255      4.73736e+9 
           2265       4.6824e+9 
           2275      4.62051e+9 
           2285      4.55967e+9 
           2295      4.48375e+9 
           2305      4.43316e+9 
           2315      4.38208e+9 
           2325      4.32474e+9 
           2335      4.26836e+9 
           2345      4.21306e+9 
           2355      4.15861e+9 
           2365      4.10513e+9 
           2375      4.05246e+9 
           2385      3.99464e+9 
           2395      3.94986e+9 
           2405      3.89995e+9 
           2415      3.85093e+9 
           2425       3.8027e+9 
           2435      3.75514e+9 
           2445      3.70836e+9 
           2455       3.6622e+9 
           2465      3.61656e+9 
           2475      3.57183e+9 
           2485      3.52777e+9 
           2495      3.45028e+9 
           2505       3.4417e+9 
           2513      3.39566e+9 
           2518      3.38712e+9 
           2525      3.35832e+9 
           2535      3.31764e+9 
           2545      3.27696e+9 
           2555      3.23762e+9 
           2565      3.19863e+9 
           2575      3.16019e+9 
           2585      3.12237e+9 
           2595       3.0851e+9 
           2605      3.06673e+9 
           2615      3.03015e+9 
           2625      2.99229e+9 
           2635      2.95134e+9 
           2645      2.91733e+9 
           2655      2.88011e+9 
           2665      2.84379e+9 
           2675      2.80872e+9 
           2685       2.7894e+9 
           2695      2.74141e+9 
           2705      2.72514e+9 
           2715       2.6937e+9 
           2725      2.64551e+9 
           2735      2.62912e+9 
           2745      2.60225e+9 
           2755      2.57267e+9 
           2765      2.52512e+9 
           2775      2.51478e+9 
           2785      2.48646e+9 
           2795      2.45814e+9 
           2805      2.43102e+9 
           2815      2.40389e+9 
           2825      2.35692e+9 
           2835      2.34483e+9 
           2845      2.32446e+9 
           2855      2.29873e+9 
           2865      2.27326e+9 
           2875      2.24822e+9 
           2885      2.22352e+9 
           2895      2.19915e+9 
           2910      2.16323e+9 
           2930      2.11656e+9 
           2950      2.05904e+9 
           2970      2.02704e+9 
           2990      1.98413e+9 
           3010      1.94242e+9 
           3030      1.90185e+9 
           3050        1.862e+9 
           3070      1.82331e+9 
           3090      1.78558e+9 
           3110      1.74894e+9 
           3130      1.71501e+9 
           3150      1.68005e+9 
           3170      1.64538e+9 
           3190      1.60027e+9 
           3210      1.57915e+9 
           3230      1.54824e+9 
           3250      1.51733e+9 
           3270      1.48907e+9 
           3290      1.45797e+9 
           3310       1.4315e+9 
           3330      1.40372e+9 
           3350      1.37429e+9 
           3370      1.35026e+9 
           3390      1.32451e+9 
           3410      1.29939e+9 
           3430       1.2692e+9 
           3450      1.24108e+9 
           3470      1.22153e+9 
           3490      1.19887e+9 
           3510      1.18195e+9 
           3530        1.161e+9 
           3550      1.14013e+9 
           3570      1.12417e+9 
           3590      1.09811e+9 
           3610      1.07979e+9 
           3630      1.05861e+9 
           3640      1.05533e+9 
           3650      1.04319e+9 
           3670      1.02836e+9 
           3690      1.00009e+9 
           3710      9.73238e+8 
           3730       9.4818e+8 
           3750      1.01428e+9 
           3770      1.01317e+9 
           3790      1.04111e+9 
           3810      1.07532e+9 
           3830      9.58613e+8 
           3850      1.08105e+9 
           3870       1.0696e+9 
           3890      9.14332e+8 
           3910      1.04539e+9 
           3930      1.02485e+9 
           3950      1.00993e+9 
           3970      8.47258e+8 
           3990      9.72675e+8 
           4010      9.56999e+8 
           4030      9.16023e+8 
           4050      9.30816e+8 
           4070      9.13935e+8 
           4090      8.70585e+8 
           4110      7.76582e+8 
           4130      8.60517e+8 
           4150      8.47956e+8 
           4170      8.38303e+8 
           4190      8.26092e+8 
           4210       8.1214e+8 
           4230      7.98962e+8 
           4250      7.85829e+8 
           4270      7.72947e+8 
           4290      7.60353e+8 
           4310      7.46965e+8 
           4330      7.02526e+8 
           4350      6.46448e+8 
           4370      7.10635e+8 
           4390      6.88614e+8 
           4410      6.89686e+8 
           4430       6.7635e+8 
           4450      6.67944e+8 
           4470      6.38488e+8 
           4490      6.47033e+8 
           4510      6.36918e+8 
           4530      6.26992e+8 
           4550      6.17052e+8 
           4570      6.07712e+8 
           4590      5.98351e+8 
           4610      5.89182e+8 
           4630      5.80184e+8 
           4650      5.71319e+8 
           4670      5.62687e+8 
           4690      5.53034e+8 
           4710      5.40247e+8 
           4730      5.37641e+8 
           4750        5.296e+8 
           4770      5.21708e+8 
           4790      5.13945e+8 
           4810      5.06326e+8 
           4830      4.98007e+8 
           4850      4.73905e+8 
           4870      4.28927e+8 
           4890      4.75747e+8 
           4910      4.70269e+8 
           4930      4.55704e+8 
           4950      4.56872e+8 
           4970       4.5032e+8 
           4990      4.43858e+8 
           5010      4.33192e+8 
           5030      4.31303e+8 
           5050      4.23136e+8 
           5070      4.19189e+8 
           5090      4.13299e+8 
           5110      4.07502e+8 
           5130      4.01825e+8 
           5150      3.96225e+8 
           5170      3.90727e+8 
           5190      3.85329e+8 
           5210      3.80017e+8 
           5230      3.74803e+8 
           5250       3.6967e+8 
           5270      3.64631e+8 
           5290      3.59671e+8 
           5310      3.54789e+8 
           5330      3.49997e+8 
           5350      3.45292e+8 
           5370      3.40661e+8 
           5390      3.36114e+8 
           5410      3.31549e+8 
           5430      3.27232e+8 
           5450      3.22907e+8 
           5470      3.18649e+8 
           5490      3.14469e+8 
           5510      3.10366e+8 
           5530      3.06315e+8 
           5550      3.02338e+8 
           5570      2.98422e+8 
           5590      2.94566e+8 
           5610      2.90758e+8 
           5630       2.8702e+8 
           5650      2.83339e+8 
           5670      2.79727e+8 
           5690      2.76158e+8 
           5710      2.72655e+8 
           5730      2.69206e+8 
           5750       2.6581e+8 
           5770      2.62477e+8 
           5790      2.59183e+8 
           5810      2.55951e+8 
           5830      2.52768e+8 
           5850      2.49623e+8 
           5870      2.40392e+8 
           5890       2.4341e+8 
           5910      2.40514e+8 
           5930      2.37566e+8 
           5950      2.34662e+8 
           5970      2.31814e+8 
           5990      2.28998e+8 
           6010      2.26225e+8 
           6030      2.23483e+8 
           6050      2.20794e+8 
           6070      2.18145e+8 
           6090      2.15536e+8 
           6110      2.12967e+8 
           6130      2.10426e+8 
           6150      2.07935e+8 
           6170       2.0548e+8 
           6190      2.03053e+8 
           6210      2.00673e+8 
           6230      1.98319e+8 
           6250      1.96001e+8 
           6270      1.93717e+8 
           6290      1.91468e+8 
           6310      1.89254e+8 
           6330      1.87072e+8 
           6350      1.84924e+8 
           6370      1.82799e+8 
           6390      1.80706e+8 
           6410      1.78654e+8 
           6430      1.76615e+8 
           6450      1.74616e+8 
           6470      1.72638e+8 
           6490      1.70691e+8 
           6510      1.68763e+8 
           6530      1.66671e+8 
           6550      1.61835e+8 
           6570      1.45997e+8 
           6590      1.60726e+8 
           6610      1.59557e+8 
           6630      1.57799e+8 
           6650      1.56152e+8 
           6670      1.53168e+8 
           6690      1.51513e+8 
           6710      1.51063e+8 
           6730      1.49418e+8 
           6750       1.4779e+8 
           6770      1.46186e+8 
           6790      1.44607e+8 
           6810      1.43044e+8 
           6830      1.41505e+8 
           6850      1.39981e+8 
           6870      1.38489e+8 
           6890      1.37004e+8 
           6910      1.35549e+8 
           6930      1.34101e+8 
           6950      1.32683e+8 
           6970      1.31287e+8 
           6990      1.29889e+8 
           7010      1.28535e+8 
           7030      1.27188e+8 
           7050      1.25853e+8 
           7070      1.22617e+8 
           7090      1.23253e+8 
           7110      1.21972e+8 
           7130       1.2071e+8 
           7150      1.19461e+8 
           7170       1.1821e+8 
           7190      1.17021e+8 
           7210      1.15822e+8 
           7230      1.14641e+8 
           7250      1.13472e+8 
           7270      1.12321e+8 
           7290      1.10295e+8 
           7310      1.10038e+8 
           7330      1.08947e+8 
           7350      1.07846e+8 
           7370      1.06769e+8 
           7390      1.05695e+8 
           7410      1.04638e+8 
           7430      1.03598e+8 
           7450      1.02581e+8 
           7470      1.01567e+8 
           7490      1.00562e+8 
           7510      9.95325e+7 
           7530      9.85926e+7 
           7550      9.76215e+7 
           7570      9.66725e+7 
           7590      9.57255e+7 
           7610      9.47937e+7 
           7630      9.38703e+7 
           7650      9.29617e+7 
           7670      9.20613e+7 
           7690      9.11753e+7 
           7710      9.02973e+7 
           7730      8.94334e+7 
           7750      8.85647e+7 
           7770      8.77287e+7 
           7790       8.6894e+7 
           7810      8.60048e+7 
           7830      8.52526e+7 
           7850      8.45314e+7 
           7870      8.37313e+7 
           7890      8.28958e+7 
           7910      8.21641e+7 
           7930      8.13428e+7 
           7950      8.04512e+7 
           7970      7.96506e+7 
           7990      7.89396e+7 
           8010      7.81935e+7 
           8030      7.75007e+7 
           8050      7.68138e+7 
           8070      7.61559e+7 
           8090      7.53078e+7 
           8110      7.46905e+7 
           8130      7.41069e+7 
           8150      7.32842e+7 
           8170      7.27791e+7 
           8190      7.20253e+7 
           8210      7.12333e+7 
           8230      7.08096e+7 
           8250        7.019e+7 
           8270      6.91954e+7 
           8290      6.88345e+7 
           8310      6.82417e+7 
           8330      6.76104e+7 
           8350      6.66817e+7 
           8370      6.62559e+7 
           8390      6.57477e+7 
           8410      6.51318e+7 
           8430      6.44679e+7 
           8450      6.35458e+7 
           8470       6.3078e+7 
           8490      6.28282e+7 
           8510      6.16853e+7 
           8530      6.19349e+7 
           8550       5.9749e+7 
           8570      6.17223e+7 
