# Kurucz ODFNEW /NOVER (2003)
# teff = 31000 K (value for the effective temperature for the model. Temperatures are given in K)
# logg = 5 log(cm/s2) (value for Log(G) for the model.)
# meta = -1  (value for the Metallicity for the model.)
# lh = 1.25  (l/Hp where l is the  mixing length of the convective element and Hp is the pressure scale height)
# vtur = 2 km/s (Microturbulence velocity)
# alpha = 0  (Alpha)
#
# column 1: WAVELENGTH (ANGSTROM), Wavelength in Angstrom
# column 2: FLUX (ERG/CM2/S/A), Flux in erg/cm2/s/A
          147.2      8.04859e-8 
            151      2.48531e-7 
          155.2      8.11921e-7 
          158.8      2.13467e-6 
            162      4.86975e-6 
            166      1.30667e-5 
          170.3      3.58724e-5 
          173.4      7.20718e-5 
          176.8     0.000150616 
          180.2     0.000306214 
          181.7      0.00041522 
          186.1     0.000987162 
            191      0.00247088 
          193.9      0.00416066 
          198.4      0.00906197 
          201.8       0.0159459 
            205       0.0266781 
          210.5       0.0623296 
          216.2        0.143438 
          219.8        0.237436 
            223        0.366555 
          226.8         0.60445 
            230          143.77 
            234         432.266 
            240         775.631 
          246.5         1422.91 
          252.4         2410.02 
          256.8         3063.08 
            260         4653.05 
            264         6215.04 
          268.5         8940.06 
          273.5           12889 
          278.5           18002 
            284           28052 
            290         40984.7 
            296         58528.6 
            301         75503.1 
            308          106299 
            318          209767 
            328          335689 
            338          551521 
            348          856774 
            357       1.3521e+6 
            366      2.00067e+6 
            375      2.68298e+6 
            385      3.85841e+6 
            395      5.39168e+6 
            405      7.21855e+6 
            414      9.45318e+6 
            422      1.14812e+7 
            430      1.41651e+7 
            441      1.85762e+7 
            451      2.35242e+7 
            460      2.82939e+7 
            470      3.52956e+7 
            480      4.29903e+7 
            490      5.19576e+7 
            500      6.29289e+7 
            506      2.54198e+8 
            512      1.12343e+9 
            520      1.13856e+9 
            530      1.21582e+9 
            540      1.13174e+9 
            550      1.34489e+9 
            560       1.4549e+9 
            570      1.55446e+9 
            580      1.46884e+9 
            590      1.64501e+9 
            600      1.67174e+9 
            610      1.77167e+9 
            620      1.88512e+9 
            630      1.94496e+9 
            640      1.92752e+9 
            650      2.06252e+9 
            658      2.09733e+9 
            665      2.16356e+9 
            675      2.18236e+9 
            685      2.15532e+9 
            695      2.41445e+9 
            705      2.38821e+9 
            716      2.56414e+9 
            726       2.5917e+9 
            735      2.66223e+9 
            745      2.77464e+9 
            755      2.83275e+9 
            765      2.90916e+9 
            775      2.99126e+9 
            785      3.10841e+9 
            795      3.14771e+9 
            805      3.19969e+9 
            815      3.23878e+9 
            825      3.35596e+9 
            835       3.2164e+9 
            845      3.42949e+9 
            855      3.47806e+9 
            865      3.57252e+9 
            875      3.66295e+9 
            885      3.75024e+9 
            895      3.81802e+9 
            905      3.82435e+9 
            915       4.0674e+9 
            925     1.38509e+10 
            935     2.76213e+10 
            945     5.69592e+10 
            955     7.04903e+10 
            965     9.22339e+10 
            975     3.82212e+10 
            985     9.37722e+10 
            995     8.56106e+10 
           1005     9.08753e+10 
           1015     8.55611e+10 
           1025      3.9386e+10 
           1035     7.78446e+10 
           1045      9.1134e+10 
           1055     8.81453e+10 
           1065     7.89214e+10 
           1075     8.11796e+10 
           1085     7.30818e+10 
           1095     7.90487e+10 
           1105     7.55295e+10 
           1115     7.38747e+10 
           1125     6.65395e+10 
           1135     7.06858e+10 
           1145     6.59508e+10 
           1155     6.61241e+10 
           1165     6.45164e+10 
           1175     5.12939e+10 
           1185     5.98324e+10 
           1195     5.74819e+10 
           1205     5.14024e+10 
           1215     2.62088e+10 
           1225     4.99812e+10 
           1235     5.41818e+10 
           1245     5.26295e+10 
           1255     5.22198e+10 
           1265     5.15929e+10 
           1275     5.09536e+10 
           1285     4.99629e+10 
           1295     4.58651e+10 
           1305     4.60984e+10 
           1315      4.6694e+10 
           1325     4.47945e+10 
           1335     4.32444e+10 
           1345     4.29328e+10 
           1355     4.24738e+10 
           1365     4.08003e+10 
           1375     4.01134e+10 
           1385     3.91611e+10 
           1395     3.50842e+10 
           1405     3.51591e+10 
           1415     3.62613e+10 
           1425     3.46039e+10 
           1435     3.47508e+10 
           1442     3.46987e+10 
           1447     3.41624e+10 
           1455     3.33518e+10 
           1465     3.24908e+10 
           1475     3.18249e+10 
           1485     3.13533e+10 
           1495     3.05324e+10 
           1505     2.93629e+10 
           1512     2.86847e+10 
           1517     2.85647e+10 
           1525     2.80454e+10 
           1535     2.59241e+10 
           1545     2.50608e+10 
           1555     2.43251e+10 
           1565     2.48366e+10 
           1575     2.49703e+10 
           1585     2.47521e+10 
           1595     2.43672e+10 
           1605     2.32499e+10 
           1615     2.25556e+10 
           1625     2.25428e+10 
           1635     2.23623e+10 
           1645      2.1494e+10 
           1655     2.18856e+10 
           1665     2.15324e+10 
           1672     2.09024e+10 
           1677     2.16085e+10 
           1685     2.10615e+10 
           1695     2.05226e+10 
           1705     1.99728e+10 
           1715     1.93768e+10 
           1725     1.89465e+10 
           1735     1.90366e+10 
           1745     1.86569e+10 
           1755      1.8363e+10 
           1765     1.78677e+10 
           1775     1.75437e+10 
           1785     1.74009e+10 
           1795     1.71702e+10 
           1805     1.69978e+10 
           1815     1.64702e+10 
           1825     1.62665e+10 
           1835      1.6008e+10 
           1845     1.51687e+10 
           1855     1.49399e+10 
           1865     1.49176e+10 
           1875     1.48318e+10 
           1885     1.40514e+10 
           1895     1.35437e+10 
           1905     1.38234e+10 
           1915     1.33332e+10 
           1925     1.28981e+10 
           1935     1.30982e+10 
           1945     1.31222e+10 
           1955     1.23585e+10 
           1967     1.25548e+10 
           1976     1.26809e+10 
           1984     1.21836e+10 
           1995     1.18129e+10 
           2005      1.1895e+10 
           2015     1.18357e+10 
           2025     1.17604e+10 
           2035     1.13513e+10 
           2045     1.11838e+10 
           2055      1.0292e+10 
           2065     1.00874e+10 
           2074     1.02234e+10 
           2078      9.95548e+9 
           2085       9.9936e+9 
           2095      9.91645e+9 
           2105     1.01982e+10 
           2115     1.01778e+10 
           2125     1.00823e+10 
           2135      9.90953e+9 
           2145      9.70763e+9 
           2155      9.62667e+9 
           2165      9.45435e+9 
           2175      9.34771e+9 
           2185      9.18343e+9 
           2195      9.10855e+9 
           2205       8.9711e+9 
           2215       8.7943e+9 
           2225      8.69793e+9 
           2235      8.55465e+9 
           2245       8.4517e+9 
           2255      8.26874e+9 
           2265      8.20838e+9 
           2275      8.09052e+9 
           2285      7.96574e+9 
           2295      7.66044e+9 
           2305      7.68913e+9 
           2315      7.61722e+9 
           2325      7.51211e+9 
           2335      7.39401e+9 
           2345      7.31053e+9 
           2355      7.20714e+9 
           2365      7.10793e+9 
           2375      6.99811e+9 
           2385      6.85742e+9 
           2395      6.79634e+9 
           2405      6.71193e+9 
           2415      6.61641e+9 
           2425      6.53185e+9 
           2435      6.42811e+9 
           2445      6.34854e+9 
           2455       6.2663e+9 
           2465      6.18307e+9 
           2475      6.09631e+9 
           2485      6.01324e+9 
           2495      5.64608e+9 
           2505      5.83961e+9 
           2513      5.65604e+9 
           2518      5.71987e+9 
           2525      5.69914e+9 
           2535      5.62565e+9 
           2545      5.51755e+9 
           2555      5.46054e+9 
           2565      5.40184e+9 
           2575      5.33269e+9 
           2585      5.26592e+9 
           2595      5.19783e+9 
           2605      5.15361e+9 
           2615       5.0859e+9 
           2625      5.02224e+9 
           2635      4.95679e+9 
           2645      4.88982e+9 
           2655      4.82537e+9 
           2665      4.74769e+9 
           2675      4.68351e+9 
           2685      4.65094e+9 
           2695      4.54875e+9 
           2705      4.52213e+9 
           2715      4.46971e+9 
           2725      4.38557e+9 
           2735      4.34193e+9 
           2745       4.3061e+9 
           2755      4.25708e+9 
           2765      4.16997e+9 
           2775      4.15758e+9 
           2785      4.10432e+9 
           2795      4.01371e+9 
           2805      3.99271e+9 
           2815      3.95983e+9 
           2825      3.87288e+9 
           2835      3.81894e+9 
           2845      3.81932e+9 
           2855      3.76987e+9 
           2865      3.72593e+9 
           2875      3.68251e+9 
           2885      3.63987e+9 
           2895      3.59656e+9 
           2910      3.53062e+9 
           2930       3.4516e+9 
           2950      3.34336e+9 
           2970      3.29412e+9 
           2990      3.21704e+9 
           3010      3.14021e+9 
           3030      3.07407e+9 
           3050      3.00723e+9 
           3070       2.9424e+9 
           3090      2.86502e+9 
           3110      2.81302e+9 
           3130      2.75092e+9 
           3150      2.69123e+9 
           3170      2.63256e+9 
           3190      2.55493e+9 
           3210      2.51833e+9 
           3230      2.46709e+9 
           3250      2.41606e+9 
           3270      2.36659e+9 
           3290      2.31465e+9 
           3310      2.27012e+9 
           3330      2.22207e+9 
           3350       2.1735e+9 
           3370      2.13225e+9 
           3390      2.09022e+9 
           3410      2.04812e+9 
           3430      1.99929e+9 
           3450       1.9526e+9 
           3470      1.91855e+9 
           3490       1.8806e+9 
           3510      1.84559e+9 
           3530      1.81128e+9 
           3550      1.77676e+9 
           3570      1.75336e+9 
           3590      1.70462e+9 
           3610      1.67986e+9 
           3630      1.64087e+9 
           3640      1.63918e+9 
           3650       1.6064e+9 
           3670      1.58306e+9 
           3690      1.55469e+9 
           3710       1.5048e+9 
           3730      1.46174e+9 
           3750      1.43584e+9 
           3770      1.38919e+9 
           3790      1.42274e+9 
           3810       1.4671e+9 
           3830       1.2968e+9 
           3850      1.49342e+9 
           3870      1.51392e+9 
           3890      1.21326e+9 
           3910      1.48463e+9 
           3930      1.47471e+9 
           3950      1.43419e+9 
           3970      1.12393e+9 
           3990      1.37255e+9 
           4010      1.37627e+9 
           4030      1.29132e+9 
           4050      1.34435e+9 
           4070      1.30368e+9 
           4090       1.1847e+9 
           4110      1.04568e+9 
           4130      1.22453e+9 
           4150      1.21741e+9 
           4170      1.20973e+9 
           4190      1.18994e+9 
           4210      1.17133e+9 
           4230      1.15138e+9 
           4250      1.12872e+9 
           4270      1.10348e+9 
           4290      1.08679e+9 
           4310      1.05835e+9 
           4330      9.47646e+8 
           4350      8.69051e+8 
           4370       1.0025e+9 
           4390      9.69889e+8 
           4410      9.81355e+8 
           4430      9.66851e+8 
           4450      9.52853e+8 
           4470      8.90817e+8 
           4490      9.20628e+8 
           4510      9.08462e+8 
           4530      8.93757e+8 
           4550      8.77801e+8 
           4570      8.64128e+8 
           4590      8.49765e+8 
           4610      8.36274e+8 
           4630      8.22862e+8 
           4650       8.0254e+8 
           4670      7.96613e+8 
           4690      7.81818e+8 
           4710      7.61063e+8 
           4730      7.60955e+8 
           4750       7.4855e+8 
           4770      7.38594e+8 
           4790      7.26725e+8 
           4810      7.13057e+8 
           4830       6.9607e+8 
           4850      6.35487e+8 
           4870      5.71696e+8 
           4890      6.61842e+8 
           4910      6.58789e+8 
           4930      6.33568e+8 
           4950      6.42281e+8 
           4970      6.33935e+8 
           4990      6.24415e+8 
           5010      6.06217e+8 
           5030      6.05932e+8 
           5050      5.93726e+8 
           5070      5.88524e+8 
           5090      5.79851e+8 
           5110      5.71397e+8 
           5130      5.62885e+8 
           5150      5.54743e+8 
           5170      5.46978e+8 
           5190      5.39274e+8 
           5210      5.31561e+8 
           5230      5.24046e+8 
           5250      5.16616e+8 
           5270      5.09284e+8 
           5290      5.02169e+8 
           5310       4.9512e+8 
           5330      4.88242e+8 
           5350        4.814e+8 
           5370      4.74803e+8 
           5390      4.68187e+8 
           5410      4.61347e+8 
           5430      4.55463e+8 
           5450      4.49196e+8 
           5470      4.43097e+8 
           5490      4.37087e+8 
           5510      4.31215e+8 
           5530      4.25366e+8 
           5550      4.19701e+8 
           5570      4.14058e+8 
           5590      4.08532e+8 
           5610      4.03099e+8 
           5630      3.97768e+8 
           5650      3.92443e+8 
           5670      3.87078e+8 
           5690      3.81557e+8 
           5710      3.77075e+8 
           5730      3.72244e+8 
           5750      3.67209e+8 
           5770      3.62722e+8 
           5790      3.58018e+8 
           5810      3.53426e+8 
           5830      3.48788e+8 
           5850      3.44382e+8 
           5870      3.28755e+8 
           5890      3.34366e+8 
           5910      3.31331e+8 
           5930      3.27107e+8 
           5950      3.22985e+8 
           5970      3.19134e+8 
           5990      3.15032e+8 
           6010      3.11176e+8 
           6030      3.07271e+8 
           6050      3.03514e+8 
           6070        2.998e+8 
           6090      2.96107e+8 
           6110      2.92476e+8 
           6130      2.88897e+8 
           6150      2.85277e+8 
           6170      2.81848e+8 
           6190      2.78476e+8 
           6210      2.75132e+8 
           6230      2.71815e+8 
           6250      2.68535e+8 
           6270       2.6533e+8 
           6290      2.62169e+8 
           6310      2.59034e+8 
           6330       2.5598e+8 
           6350      2.52922e+8 
           6370      2.49962e+8 
           6390      2.47016e+8 
           6410       2.4412e+8 
           6430      2.41282e+8 
           6450      2.38466e+8 
           6470       2.3559e+8 
           6490      2.32879e+8 
           6510       2.2978e+8 
           6530      2.25936e+8 
           6550      2.14223e+8 
           6570      1.90892e+8 
           6590      2.16297e+8 
           6610      2.16534e+8 
           6630      2.14783e+8 
           6650      2.12539e+8 
           6670       2.0771e+8 
           6690      2.05418e+8 
           6710      2.05467e+8 
           6730      2.03108e+8 
           6750      2.00906e+8 
           6770      1.98677e+8 
           6790      1.96307e+8 
           6810       1.9427e+8 
           6830      1.92124e+8 
           6850      1.90025e+8 
           6870      1.87938e+8 
           6890      1.85849e+8 
           6910      1.83796e+8 
           6930       1.8185e+8 
           6950      1.79877e+8 
           6970      1.77923e+8 
           6990      1.76005e+8 
           7010      1.74105e+8 
           7030      1.72231e+8 
           7050      1.70391e+8 
           7070      1.65924e+8 
           7090      1.66773e+8 
           7110      1.64994e+8 
           7130      1.63247e+8 
           7150      1.61524e+8 
           7170      1.59811e+8 
           7190      1.58144e+8 
           7210      1.56485e+8 
           7230      1.54359e+8 
           7250        1.532e+8 
           7270      1.51639e+8 
           7290      1.48851e+8 
           7310      1.48496e+8 
           7330      1.46979e+8 
           7350      1.45462e+8 
           7370      1.43973e+8 
           7390      1.42498e+8 
           7410      1.41037e+8 
           7430      1.39603e+8 
           7450      1.38196e+8 
           7470      1.36741e+8 
           7490      1.35407e+8 
           7510      1.34006e+8 
           7530      1.32697e+8 
           7550      1.31367e+8 
           7570      1.30049e+8 
           7590       1.2875e+8 
           7610       1.2745e+8 
           7630        1.262e+8 
           7650      1.24949e+8 
           7670      1.23715e+8 
           7690      1.22493e+8 
           7710      1.21288e+8 
           7730        1.201e+8 
           7750      1.18923e+8 
           7770      1.17743e+8 
           7790      1.16612e+8 
           7810      1.15429e+8 
           7830       1.1436e+8 
           7850      1.13344e+8 
           7870      1.12222e+8 
           7890      1.11109e+8 
           7910      1.10102e+8 
           7930      1.09038e+8 
           7950      1.07995e+8 
           7970      1.06903e+8 
           7990      1.05937e+8 
           8010       1.0491e+8 
           8030      1.03874e+8 
           8050       1.0287e+8 
           8070      1.01921e+8 
           8090      1.00779e+8 
           8110      9.98756e+7 
           8130      9.90714e+7 
           8150      9.80753e+7 
           8170      9.72345e+7 
           8190      9.61929e+7 
           8210      9.51156e+7 
           8230      9.43813e+7 
           8250        9.357e+7 
           8270      9.23524e+7 
           8290       9.1836e+7 
           8310      9.10399e+7 
           8330      9.01581e+7 
           8350       8.9008e+7 
           8370       8.8438e+7 
           8390      8.77493e+7 
           8410      8.69542e+7 
           8430      8.61339e+7 
           8450      8.48667e+7 
           8470      8.45976e+7 
           8490      8.36821e+7 
           8510      8.30551e+7 
           8530      8.21328e+7 
           8550       8.1378e+7 
           8570      8.09678e+7 
           8590      7.89983e+7 
