# Kurucz ODFNEW /NOVER (2003)
# teff = 9000 K (value for the effective temperature for the model. Temperatures are given in K)
# logg = 4.5 log(cm/s2) (value for Log(G) for the model.)
# meta = -1.5  (value for the Metallicity for the model.)
# lh = 1.25  (l/Hp where l is the  mixing length of the convective element and Hp is the pressure scale height)
# vtur = 2 km/s (Microturbulence velocity)
# alpha = 0  (Alpha)
#
# column 1: WAVELENGTH (ANGSTROM), Wavelength in Angstrom
# column 2: FLUX (ERG/CM2/S/A), Flux in erg/cm2/s/A
          273.5     5.18894e-24 
          278.5     8.50822e-23 
            284     4.39706e-22 
            290     2.26826e-21 
            296      1.0887e-20 
            301     3.82917e-20 
            308     2.07518e-19 
            318     2.03222e-18 
            328     1.72488e-17 
            338     1.28507e-16 
            348     8.50024e-16 
            357     4.23879e-15 
            366     1.94782e-14 
            375     8.29649e-14 
            385     3.82308e-13 
            395     1.62559e-12 
            405     6.41606e-12 
            414     2.08101e-11 
            422     5.66774e-11 
            430     1.48465e-10 
            441      5.2571e-10 
            451      1.56894e-9 
            460      4.02242e-9 
            470      1.09526e-8 
            480      2.85409e-8 
            490      7.13762e-8 
            500      1.71743e-7 
            506      2.87142e-7 
            512      4.72564e-7 
            520      8.98619e-7 
            530      1.94977e-6 
            540       4.1032e-6 
            550      8.39241e-6 
            560      1.67054e-5 
            570      3.24087e-5 
            580      6.13596e-5 
            590     0.000113538 
            600     0.000205537 
            610     0.000364418 
            620     0.000633472 
            630      0.00108064 
            640       0.0018108 
            650      0.00298298 
            658      0.00439505 
            665      0.00611874 
            675       0.0096914 
            685       0.0151278 
            695       0.0232905 
            705       0.0353858 
            716        0.055243 
            726       0.0817749 
            735        0.115245 
            745        0.166955 
            755        0.239285 
            765        0.339441 
            775        0.476807 
            785        0.663437 
            795        0.914725 
            805         1.25025 
            815         1.69448 
            825         2.27806 
            835         3.03869 
            845          4.0229 
            855         5.28743 
            865         6.90094 
            875         8.94654 
            885         11.5228 
            895         14.7484 
            905         18.7628 
            915         46.8378 
            925         273.297 
            935         505.782 
            945         978.794 
            955         1500.76 
            965         2051.28 
            975         1499.63 
            985         3387.72 
            995         4059.44 
           1005         4868.27 
           1015         4757.09 
           1025         2769.11 
           1035         6211.74 
           1045          8790.5 
           1055         10387.8 
           1065         11888.2 
           1075         13977.4 
           1085         16095.8 
           1095         17913.9 
           1105         40026.3 
           1115          690020 
           1125          873432 
           1135          951310 
           1145          512066 
           1155          217358 
           1165         95546.3 
           1175         67551.4 
           1185         68594.5 
           1195           39912 
           1205         28012.9 
           1215         8691.27 
           1225         30542.5 
           1235         60707.5 
           1245         83263.2 
           1255          126945 
           1265          187314 
           1275          466710 
           1285      2.11987e+6 
           1295      4.00895e+6 
           1305      6.15699e+6 
           1315      9.50568e+6 
           1325      1.32424e+7 
           1335      1.65387e+7 
           1345      2.09479e+7 
           1355      2.14093e+7 
           1365      2.31591e+7 
           1375      2.10102e+7 
           1385       1.6681e+7 
           1395      1.53617e+7 
           1405      2.58211e+7 
           1415      4.00978e+7 
           1425      4.38764e+7 
           1435      4.17559e+7 
           1442      4.82868e+7 
           1447      4.67626e+7 
           1455      5.08161e+7 
           1465      4.67334e+7 
           1475      4.81885e+7 
           1485      4.89442e+7 
           1495      5.04154e+7 
           1505      5.24122e+7 
           1512       5.1109e+7 
           1517      5.04944e+7 
           1525      5.04552e+7 
           1535      4.99247e+7 
           1545      4.88544e+7 
           1555       4.3554e+7 
           1565      3.49977e+7 
           1575      3.96013e+7 
           1585      3.94721e+7 
           1595       3.9574e+7 
           1605      3.81347e+7 
           1615      4.45941e+7 
           1625      4.83098e+7 
           1635      5.55182e+7 
           1645      6.51558e+7 
           1655      5.62407e+7 
           1665      6.96771e+7 
           1672      6.14527e+7 
           1677      6.75596e+7 
           1685      7.21289e+7 
           1695      6.74868e+7 
           1705      6.79235e+7 
           1715       7.1121e+7 
           1725      6.97404e+7 
           1735      7.23004e+7 
           1745      7.03396e+7 
           1755      7.27363e+7 
           1765      6.66636e+7 
           1775      7.11028e+7 
           1785      7.02954e+7 
           1795      7.31939e+7 
           1805      7.05478e+7 
           1815      6.99223e+7 
           1825      6.78155e+7 
           1835      6.83416e+7 
           1845      6.47419e+7 
           1855       6.6682e+7 
           1865      6.74906e+7 
           1875      6.79385e+7 
           1885      6.77731e+7 
           1895       6.7451e+7 
           1905      6.55363e+7 
           1915       6.6408e+7 
           1925      6.70587e+7 
           1935      6.47485e+7 
           1945       6.7529e+7 
           1955      6.70115e+7 
           1967       6.7283e+7 
           1976      6.53873e+7 
           1984      6.48505e+7 
           1995      6.45576e+7 
           2005      6.29931e+7 
           2015      6.19602e+7 
           2025      6.10154e+7 
           2035      6.30908e+7 
           2045      6.33212e+7 
           2055      6.13638e+7 
           2065      6.10819e+7 
           2074      6.27302e+7 
           2078      6.30918e+7 
           2085      6.26671e+7 
           2095      6.13244e+7 
           2105      6.08834e+7 
           2115      6.08497e+7 
           2125      6.07389e+7 
           2135      5.73017e+7 
           2145      6.01552e+7 
           2155      5.94863e+7 
           2165      5.75451e+7 
           2175      5.73501e+7 
           2185      5.75973e+7 
           2195      5.94092e+7 
           2205      5.75769e+7 
           2215      5.48145e+7 
           2225      5.52505e+7 
           2235      5.82701e+7 
           2245      5.57243e+7 
           2255      5.41814e+7 
           2265      5.34962e+7 
           2275      5.56742e+7 
           2285      5.62595e+7 
           2295      5.41466e+7 
           2305      5.44344e+7 
           2315      5.37718e+7 
           2325      5.38399e+7 
           2335      5.34136e+7 
           2345      5.01077e+7 
           2355      5.31766e+7 
           2365      5.04021e+7 
           2375      5.19889e+7 
           2385      4.82172e+7 
           2395        5.105e+7 
           2405      5.00213e+7 
           2415      5.03578e+7 
           2425      5.14847e+7 
           2435      4.98167e+7 
           2445      5.11299e+7 
           2455      5.04729e+7 
           2465       4.9562e+7 
           2475      4.83745e+7 
           2485      4.96356e+7 
           2495      4.86036e+7 
           2505       5.0882e+7 
           2513      4.88453e+7 
           2518      4.85891e+7 
           2525      4.66466e+7 
           2535      4.64963e+7 
           2545      4.64625e+7 
           2555      4.85886e+7 
           2565      4.83605e+7 
           2575       4.9802e+7 
           2585      4.99722e+7 
           2595      4.97914e+7 
           2605      4.85649e+7 
           2615      4.82063e+7 
           2625      4.86735e+7 
           2635      4.89673e+7 
           2645      5.14512e+7 
           2655       5.1082e+7 
           2665      4.93976e+7 
           2675      5.00898e+7 
           2685      5.05149e+7 
           2695      4.92926e+7 
           2705      4.92944e+7 
           2715      4.80401e+7 
           2725      4.80063e+7 
           2735      4.91481e+7 
           2745      4.59458e+7 
           2755      4.61857e+7 
           2765      4.74576e+7 
           2775      4.85956e+7 
           2785      4.80447e+7 
           2795      4.31622e+7 
           2805      4.56287e+7 
           2815      4.90105e+7 
           2825      4.86406e+7 
           2835      4.77308e+7 
           2845      4.70329e+7 
           2855      4.60671e+7 
           2865      4.69751e+7 
           2875      4.66125e+7 
           2885       4.7177e+7 
           2895      4.72158e+7 
           2910      4.81628e+7 
           2930      4.70073e+7 
           2950       4.6701e+7 
           2970      4.66465e+7 
           2990      4.65133e+7 
           3010      4.66457e+7 
           3030      4.64546e+7 
           3050      4.61795e+7 
           3070      4.57956e+7 
           3090      4.57768e+7 
           3110      4.54509e+7 
           3130      4.50988e+7 
           3150      4.50215e+7 
           3170      4.48451e+7 
           3190      4.39291e+7 
           3210      4.41439e+7 
           3230      4.36531e+7 
           3250      4.37416e+7 
           3270      4.38071e+7 
           3290      4.36973e+7 
           3310      4.35491e+7 
           3330      4.30581e+7 
           3350      4.25421e+7 
           3370        4.245e+7 
           3390      4.21735e+7 
           3410      4.22699e+7 
           3430      4.20314e+7 
           3450      4.18113e+7 
           3470      4.15623e+7 
           3490      4.13935e+7 
           3510      4.12931e+7 
           3530      4.11138e+7 
           3550      4.09238e+7 
           3570      4.05346e+7 
           3590      4.03473e+7 
           3610      4.01385e+7 
           3630       3.9969e+7 
           3640      3.98691e+7 
           3650      4.00044e+7 
           3670      3.99416e+7 
           3690      3.87572e+7 
           3710      3.86826e+7 
           3730      3.82825e+7 
           3750      4.61318e+7 
           3770      4.84533e+7 
           3790      5.83003e+7 
           3810      6.87327e+7 
           3830      5.52064e+7 
           3850       7.7491e+7 
           3870      8.92641e+7 
           3890      4.82834e+7 
           3910      9.02045e+7 
           3930      1.01265e+8 
           3950      9.01326e+7 
           3970      4.67491e+7 
           3990      8.50428e+7 
           4010      1.03085e+8 
           4030      1.05543e+8 
           4050      1.03477e+8 
           4070      9.51574e+7 
           4090      6.73979e+7 
           4110      5.13015e+7 
           4130       8.8309e+7 
           4150      9.70058e+7 
           4170      9.83805e+7 
           4190      9.79049e+7 
           4210      9.68897e+7 
           4230      9.53125e+7 
           4250      9.41422e+7 
           4270      9.20888e+7 
           4290       8.9177e+7 
           4310      8.11396e+7 
           4330      5.63017e+7 
           4350      4.79769e+7 
           4370      7.67923e+7 
           4390      8.32819e+7 
           4410       8.4537e+7 
           4430      8.44454e+7 
           4450      8.38802e+7 
           4470      8.30068e+7 
           4490      8.17028e+7 
           4510      8.12039e+7 
           4530      8.02351e+7 
           4550      7.91819e+7 
           4570      7.85571e+7 
           4590      7.75378e+7 
           4610       7.6792e+7 
           4630      7.57698e+7 
           4650      7.49277e+7 
           4670      7.39919e+7 
           4690      7.29546e+7 
           4710       7.1562e+7 
           4730      7.12426e+7 
           4750      7.02683e+7 
           4770      6.91438e+7 
           4790      6.77171e+7 
           4810      6.53916e+7 
           4830      6.01536e+7 
           4850      4.46998e+7 
           4870      3.64881e+7 
           4890      5.60066e+7 
           4910      6.12191e+7 
           4930      6.21959e+7 
           4950      6.23647e+7 
           4970      6.20452e+7 
           4990      6.14883e+7 
           5010      6.07703e+7 
           5030      6.03029e+7 
           5050      5.96947e+7 
           5070      5.91426e+7 
           5090      5.85028e+7 
           5110      5.78841e+7 
           5130      5.72418e+7 
           5150      5.66135e+7 
           5170      5.56041e+7 
           5190      5.51959e+7 
           5210      5.48118e+7 
           5230      5.41551e+7 
           5250      5.36996e+7 
           5270      5.30052e+7 
           5290      5.25661e+7 
           5310      5.19798e+7 
           5330      5.14167e+7 
           5350      5.09422e+7 
           5370      5.03819e+7 
           5390      4.98751e+7 
           5410      4.93268e+7 
           5430      4.88504e+7 
           5450      4.83556e+7 
           5470      4.78666e+7 
           5490      4.73898e+7 
           5510      4.69111e+7 
           5530      4.64159e+7 
           5550      4.59695e+7 
           5570      4.54942e+7 
           5590      4.50306e+7 
           5610      4.45868e+7 
           5630      4.41518e+7 
           5650      4.37111e+7 
           5670       4.3272e+7 
           5690      4.28485e+7 
           5710      4.24253e+7 
           5730      4.20114e+7 
           5750      4.15955e+7 
           5770      4.11888e+7 
           5790      4.07868e+7 
           5810      4.03915e+7 
           5830      3.99985e+7 
           5850      3.96087e+7 
           5870      3.92136e+7 
           5890      3.87468e+7 
           5910      3.84753e+7 
           5930       3.8108e+7 
           5950      3.77416e+7 
           5970      3.73834e+7 
           5990       3.7025e+7 
           6010      3.66737e+7 
           6030      3.63292e+7 
           6050      3.59876e+7 
           6070      3.56516e+7 
           6090      3.53163e+7 
           6110      3.49845e+7 
           6130      3.46513e+7 
           6150      3.43128e+7 
           6170      3.40076e+7 
           6190      3.37036e+7 
           6210      3.33941e+7 
           6230       3.3082e+7 
           6250      3.27616e+7 
           6270       3.2482e+7 
           6290      3.21853e+7 
           6310      3.18851e+7 
           6330      3.15984e+7 
           6350      3.12847e+7 
           6370      3.10125e+7 
           6390      3.06968e+7 
           6410      3.03836e+7 
           6430      3.00819e+7 
           6450      2.97426e+7 
           6470      2.93988e+7 
           6490      2.89487e+7 
           6510      2.82786e+7 
           6530       2.6882e+7 
           6550      2.27412e+7 
           6570      1.84913e+7 
           6590      2.50545e+7 
           6610      2.67276e+7 
           6630      2.70997e+7 
           6650      2.71005e+7 
           6670      2.69729e+7 
           6690      2.67984e+7 
           6710      2.65996e+7 
           6730      2.63993e+7 
           6750      2.62059e+7 
           6770      2.59913e+7 
           6790      2.57673e+7 
           6810      2.55463e+7 
           6830      2.53251e+7 
           6850      2.51091e+7 
           6870      2.48961e+7 
           6890      2.46843e+7 
           6910      2.44754e+7 
           6930      2.42676e+7 
           6950      2.40626e+7 
           6970      2.38596e+7 
           6990      2.36593e+7 
           7010      2.34585e+7 
           7030       2.3262e+7 
           7050      2.30695e+7 
           7070      2.28766e+7 
           7090      2.26871e+7 
           7110      2.24776e+7 
           7130      2.23087e+7 
           7150      2.21251e+7 
           7170       2.1944e+7 
           7190      2.17623e+7 
           7210      2.15838e+7 
           7230      2.14076e+7 
           7250      2.12316e+7 
           7270      2.10601e+7 
           7290      2.08865e+7 
           7310      2.07174e+7 
           7330      2.05491e+7 
           7350      2.03844e+7 
           7370      2.02198e+7 
           7390      2.00561e+7 
           7410      1.98924e+7 
           7430      1.97315e+7 
           7450      1.95755e+7 
           7470      1.94141e+7 
           7490      1.92608e+7 
           7510       1.9111e+7 
           7530      1.89598e+7 
           7550      1.88105e+7 
           7570      1.86613e+7 
           7590       1.8514e+7 
           7610      1.83681e+7 
           7630       1.8224e+7 
           7650      1.80799e+7 
           7670      1.79377e+7 
           7690       1.7798e+7 
           7710      1.76583e+7 
           7730      1.75223e+7 
           7750      1.73862e+7 
           7770      1.71533e+7 
           7790      1.71181e+7 
           7810       1.6986e+7 
           7830      1.68533e+7 
           7850      1.67223e+7 
           7870      1.65893e+7 
           7890      1.64593e+7 
           7910      1.63413e+7 
           7930      1.62164e+7 
           7950      1.60908e+7 
           7970      1.59728e+7 
           7990      1.58416e+7 
           8010      1.57303e+7 
           8030      1.56117e+7 
           8050      1.54941e+7 
           8070      1.53769e+7 
           8090      1.52613e+7 
           8110      1.51477e+7 
           8130      1.50345e+7 
           8150      1.49223e+7 
           8170      1.48109e+7 
           8190      1.46898e+7 
           8210      1.46144e+7 
           8230      1.45112e+7 
           8250      1.44088e+7 
           8270      1.43233e+7 
           8290      1.42257e+7 
           8310      1.41295e+7 
           8330      1.40151e+7 
           8350      1.39345e+7 
           8370      1.38346e+7 
           8390      1.37259e+7 
           8410      1.36165e+7 
           8430      1.35064e+7 
           8450      1.33845e+7 
           8470      1.32037e+7 
           8490      1.32278e+7 
           8510      1.28307e+7 
           8530       1.3087e+7 
           8550      1.23033e+7 
           8570      1.30477e+7 
           8590      1.23406e+7 
           8610      1.21081e+7 
           8630      1.29853e+7 
           8650       1.2456e+7 
           8670      1.08174e+7 
           8690      1.26345e+7 
           8710      1.29802e+7 
           8730      1.24141e+7 
           8750      1.00714e+7 
           8770      1.17878e+7 
           8790      1.28065e+7 
           8810      1.29377e+7 
           8830      1.25549e+7 
           8850      1.10812e+7 
           8870      9.52251e+6 
           8890      1.18135e+7 
           8910      1.25331e+7 
           8930      1.27085e+7 
           8950      1.26532e+7 
           8970      1.23262e+7 
           8990      1.15149e+7 
           9010      9.22935e+6 
           9030       1.0003e+7 
           9050      1.15564e+7 
           9070      1.19909e+7 
           9090      1.20772e+7 
           9110      1.21559e+7 
           9130      1.21099e+7 
           9150      1.19743e+7 
           9170      1.17384e+7 
           9190      1.12877e+7 
