# Kurucz ODFNEW /NOVER (2003)
# teff = 8000 K (value for the effective temperature for the model. Temperatures are given in K)
# logg = 4.5 log(cm/s2) (value for Log(G) for the model.)
# meta = -4  (value for the Metallicity for the model.)
# lh = 1.25  (l/Hp where l is the  mixing length of the convective element and Hp is the pressure scale height)
# vtur = 2 km/s (Microturbulence velocity)
# alpha = 0.4  (Alpha)
#
# column 1: WAVELENGTH (ANGSTROM), Wavelength in Angstrom
# column 2: FLUX (ERG/CM2/S/A), Flux in erg/cm2/s/A
          147.2     1.73866e-35 
            151     1.65225e-35 
          155.2     1.56403e-35 
          158.8     1.49392e-35 
            162     1.43549e-35 
            166     1.36714e-35 
          170.3     1.29897e-35 
          173.4     1.25294e-35 
          176.8     1.20522e-35 
          180.2     1.16017e-35 
          181.7     1.14109e-35 
          186.1     1.08777e-35 
            191     1.03267e-35 
          193.9     1.00201e-35 
          198.4     9.57076e-36 
          201.8     9.25097e-36 
            205     8.96441e-36 
          210.5     8.50208e-36 
          216.2     8.05969e-36 
          219.8     7.79784e-36 
            223     7.57565e-36 
          226.8     7.32392e-36 
            230     7.12154e-36 
            234     6.88015e-36 
            240     6.54044e-36 
          246.5     6.20006e-36 
          252.4     5.91358e-36 
          256.8     5.71267e-36 
            260     5.57292e-36 
            264     5.40532e-36 
          268.5     5.22566e-36 
          273.5     5.03634e-36 
          278.5     8.74719e-24 
            284     9.75921e-23 
            290     5.55732e-22 
            296     2.76833e-21 
            301     1.00044e-20 
            308     5.61695e-20 
            318     5.76509e-19 
            328     5.11077e-18 
            338     3.96436e-17 
            348      2.7226e-16 
            357      1.4014e-15 
            366     6.63458e-15 
            375     2.90668e-14 
            385     1.37943e-13 
            395     6.03009e-13 
            405     2.44332e-12 
            414     8.10317e-12 
            422     2.24894e-11 
            430     5.99894e-11 
            441     2.17517e-10 
            451     6.62607e-10 
            460      1.72882e-9 
            470      4.79584e-9 
            480      1.27218e-8 
            490      3.23617e-8 
            500      7.91388e-8 
            506      1.30736e-7 
            512      2.20467e-7 
            520      4.24503e-7 
            530      9.34876e-7 
            540      1.99605e-6 
            550      4.13892e-6 
            560      8.34787e-6 
            570      1.64026e-5 
            580      3.14385e-5 
            590      5.88568e-5 
            600     0.000107755 
            610     0.000193154 
            620     0.000339311 
            630     0.000584742 
            640     0.000989467 
            650      0.00164557 
            658      0.00244242 
            665      0.00342181 
            675      0.00546724 
            685      0.00860763 
            695       0.0133611 
            705       0.0204621 
            716       0.0322184 
            726       0.0480514 
            735       0.0681652 
            745       0.0994521 
            755        0.143528 
            765        0.204978 
            775        0.289824 
            785        0.405845 
            795        0.563069 
            805        0.774242 
            815         1.05562 
            825         1.42732 
            835         1.91459 
            845         2.54869 
            855         3.36783 
            865         4.41864 
            875         5.75753 
            885         7.45306 
            895         9.58584 
            905         12.2528 
            915          19.492 
            925         49.3089 
            935         77.0976 
            945         128.869 
            955         182.453 
            965         238.512 
            975          202.86 
            985         414.423 
            995         550.962 
           1005         595.143 
           1015         558.791 
           1025         457.544 
           1035         819.381 
           1045         1203.68 
           1055         1487.73 
           1065         1954.95 
           1075         2293.19 
           1085         2839.68 
           1095         3121.76 
           1105         3382.16 
           1115         3671.77 
           1125            4139 
           1135         4574.65 
           1145         4949.69 
           1155         5229.49 
           1165         5421.01 
           1175         5487.12 
           1185         7112.71 
           1195          6326.2 
           1205         5399.44 
           1215         3689.65 
           1225         6400.23 
           1235         9689.78 
           1245         9329.86 
           1255         12370.4 
           1265         15498.1 
           1275         18695.3 
           1285           23762 
           1295         28482.3 
           1305           37230 
           1315         45635.2 
           1325         58319.7 
           1335         74748.7 
           1345          100314 
           1355          138998 
           1365          168333 
           1375          172172 
           1385          163330 
           1395          177155 
           1405          263707 
           1415          460510 
           1425          508391 
           1435          605262 
           1442          706547 
           1447          594923 
           1455          670222 
           1465          620204 
           1475          664949 
           1485          734043 
           1495          816811 
           1505          866568 
           1512          929586 
           1517          771814 
           1525          771351 
           1535          727533 
           1545          585605 
           1555          530968 
           1565          431807 
           1575          404305 
           1585          396355 
           1595          397176 
           1605          420160 
           1615          568035 
           1625      1.15708e+6 
           1635      2.55247e+6 
           1645       5.8948e+6 
           1655      8.44931e+6 
           1665      1.38843e+7 
           1672      1.62155e+7 
           1677      1.78979e+7 
           1685      1.96125e+7 
           1695      2.16306e+7 
           1705      2.30481e+7 
           1715      2.44068e+7 
           1725      2.50552e+7 
           1735      2.58159e+7 
           1745      2.59601e+7 
           1755      2.64711e+7 
           1765       2.6715e+7 
           1775      2.70151e+7 
           1785      2.72477e+7 
           1795      2.76897e+7 
           1805      2.74832e+7 
           1815      2.78571e+7 
           1825      2.78716e+7 
           1835      2.84178e+7 
           1845      2.81206e+7 
           1855      2.86393e+7 
           1865       2.9062e+7 
           1875      2.92286e+7 
           1885      2.94028e+7 
           1895      2.95821e+7 
           1905      2.96191e+7 
           1915      2.98941e+7 
           1925      3.00662e+7 
           1935      2.97743e+7 
           1945      3.03463e+7 
           1955      3.04733e+7 
           1967      3.06333e+7 
           1976      3.06366e+7 
           1984      3.06197e+7 
           1995      3.09266e+7 
           2005      3.09713e+7 
           2015      3.10423e+7 
           2025      3.10047e+7 
           2035      3.12957e+7 
           2045      3.13759e+7 
           2055       3.1256e+7 
           2065      3.13771e+7 
           2074      3.16257e+7 
           2078      3.16532e+7 
           2085       3.1675e+7 
           2095      3.17476e+7 
           2105      3.17995e+7 
           2115       3.1865e+7 
           2125      3.17468e+7 
           2135      3.19369e+7 
           2145      3.20231e+7 
           2155      3.20421e+7 
           2165      3.18714e+7 
           2175      3.20042e+7 
           2185      3.21215e+7 
           2195      3.21954e+7 
           2205      3.20614e+7 
           2215      3.16343e+7 
           2225      3.20758e+7 
           2235      3.22932e+7 
           2245      3.22752e+7 
           2255      3.21348e+7 
           2265      3.20434e+7 
           2275      3.21801e+7 
           2285      3.22649e+7 
           2295      3.21903e+7 
           2305      3.22881e+7 
           2315      3.22467e+7 
           2325      3.21894e+7 
           2335      3.18383e+7 
           2345      3.13022e+7 
           2355      3.20062e+7 
           2365      3.13313e+7 
           2375       3.1792e+7 
           2385      3.10399e+7 
           2395      3.16613e+7 
           2405      3.16643e+7 
           2415      3.16364e+7 
           2425      3.21672e+7 
           2435      3.20306e+7 
           2445      3.20294e+7 
           2455      3.20903e+7 
           2465      3.19625e+7 
           2475      3.19059e+7 
           2485      3.17368e+7 
           2495       3.1627e+7 
           2505      3.18541e+7 
           2513      3.14965e+7 
           2518      3.13519e+7 
           2525      3.13786e+7 
           2535      3.14651e+7 
           2545      3.16476e+7 
           2555      3.17772e+7 
           2565      3.14343e+7 
           2575      3.15644e+7 
           2585      3.14374e+7 
           2595      3.13243e+7 
           2605      3.12125e+7 
           2615      3.11334e+7 
           2625      3.11159e+7 
           2635      3.11395e+7 
           2645      3.16051e+7 
           2655      3.15588e+7 
           2665      3.14423e+7 
           2675      3.14219e+7 
           2685      3.14287e+7 
           2695      3.13582e+7 
           2705      3.13219e+7 
           2715      3.11223e+7 
           2725      3.10414e+7 
           2735       3.1047e+7 
           2745      3.03892e+7 
           2755      3.05165e+7 
           2765      3.08737e+7 
           2775      3.09788e+7 
           2785       3.0886e+7 
           2795      2.98311e+7 
           2805      3.03049e+7 
           2815      3.08254e+7 
           2825       3.0769e+7 
           2835      3.06691e+7 
           2845      3.06391e+7 
           2855      3.02774e+7 
           2865      3.05116e+7 
           2875      3.04893e+7 
           2885       3.0362e+7 
           2895      3.04129e+7 
           2910      3.03458e+7 
           2930      3.01712e+7 
           2950      3.00609e+7 
           2970      3.00003e+7 
           2990      2.98772e+7 
           3010      2.97962e+7 
           3030      2.96881e+7 
           3050      2.95843e+7 
           3070      2.94576e+7 
           3090      2.93608e+7 
           3110      2.92574e+7 
           3130       2.9145e+7 
           3150      2.90271e+7 
           3170      2.89244e+7 
           3190      2.87775e+7 
           3210      2.86976e+7 
           3230      2.85426e+7 
           3250      2.84727e+7 
           3270       2.8376e+7 
           3290       2.8268e+7 
           3310      2.81565e+7 
           3330      2.80323e+7 
           3350      2.79023e+7 
           3370      2.77967e+7 
           3390      2.76893e+7 
           3410      2.75926e+7 
           3430      2.74799e+7 
           3450      2.73632e+7 
           3470      2.72514e+7 
           3490       2.7141e+7 
           3510      2.70289e+7 
           3530      2.69164e+7 
           3550      2.68038e+7 
           3570      2.66861e+7 
           3590      2.65743e+7 
           3610      2.64619e+7 
           3630      2.63495e+7 
           3640      2.62934e+7 
           3650       2.6367e+7 
           3670      2.63089e+7 
           3690      2.54932e+7 
           3710      2.57635e+7 
           3730      2.56223e+7 
           3750      3.07813e+7 
           3770      3.20433e+7 
           3790       3.7274e+7 
           3810      4.29073e+7 
           3830      3.54774e+7 
           3850      4.71468e+7 
           3870      5.23556e+7 
           3890      3.17425e+7 
           3910      5.24308e+7 
           3930      5.63329e+7 
           3950      5.22266e+7 
           3970      3.10163e+7 
           3990      5.01222e+7 
           4010      5.61272e+7 
           4030      5.67614e+7 
           4050      5.60598e+7 
           4070      5.36089e+7 
           4090      4.22377e+7 
           4110      3.33238e+7 
           4130      5.09693e+7 
           4150      5.36138e+7 
           4170      5.39262e+7 
           4190      5.37087e+7 
           4210      5.33208e+7 
           4230      5.28409e+7 
           4250      5.22947e+7 
           4270      5.15932e+7 
           4290      5.04992e+7 
           4310      4.78879e+7 
           4330      3.67388e+7 
           4350      3.17729e+7 
           4370      4.59724e+7 
           4390      4.81778e+7 
           4410       4.8474e+7 
           4430      4.83118e+7 
           4450      4.79984e+7 
           4470       4.7634e+7 
           4490      4.72703e+7 
           4510      4.69224e+7 
           4530       4.6509e+7 
           4550      4.60992e+7 
           4570      4.56948e+7 
           4590      4.52939e+7 
           4610      4.48999e+7 
           4630      4.45058e+7 
           4650      4.41168e+7 
           4670      4.37311e+7 
           4690       4.3323e+7 
           4710      4.28676e+7 
           4730       4.2462e+7 
           4750      4.20334e+7 
           4770      4.15608e+7 
           4790      4.09731e+7 
           4810      4.00615e+7 
           4830      3.80251e+7 
           4850      3.05179e+7 
           4870      2.53563e+7 
           4890      3.61524e+7 
           4910        3.814e+7 
           4930        3.849e+7 
           4950      3.84163e+7 
           4970      3.82039e+7 
           4990       3.7936e+7 
           5010      3.76428e+7 
           5030      3.74036e+7 
           5050      3.70843e+7 
           5070      3.67688e+7 
           5090      3.64557e+7 
           5110      3.61449e+7 
           5130      3.58365e+7 
           5150      3.55317e+7 
           5170      3.52192e+7 
           5190      3.49259e+7 
           5210      3.46361e+7 
           5230      3.43428e+7 
           5250      3.40529e+7 
           5270      3.37665e+7 
           5290      3.34833e+7 
           5310      3.32022e+7 
           5330      3.29243e+7 
           5350      3.26497e+7 
           5370      3.23769e+7 
           5390      3.21072e+7 
           5410      3.18407e+7 
           5430      3.15771e+7 
           5450      3.13141e+7 
           5470      3.10541e+7 
           5490      3.07982e+7 
           5510      3.05428e+7 
           5530      3.02915e+7 
           5550      3.00417e+7 
           5570      2.97948e+7 
           5590      2.95506e+7 
           5610      2.93092e+7 
           5630      2.90692e+7 
           5650      2.88319e+7 
           5670      2.85973e+7 
           5690       2.8364e+7 
           5710      2.81345e+7 
           5730      2.79063e+7 
           5750      2.76794e+7 
           5770      2.74562e+7 
           5790      2.72343e+7 
           5810      2.70147e+7 
           5830      2.67975e+7 
           5850      2.65827e+7 
           5870       2.6368e+7 
           5890      2.61555e+7 
           5910      2.59486e+7 
           5930      2.57407e+7 
           5950       2.5536e+7 
           5970      2.53324e+7 
           5990       2.5131e+7 
           6010      2.49317e+7 
           6030      2.47344e+7 
           6050      2.45393e+7 
           6070      2.43461e+7 
           6090       2.4154e+7 
           6110      2.39638e+7 
           6130      2.37756e+7 
           6150      2.35894e+7 
           6170       2.3404e+7 
           6190      2.32216e+7 
           6210       2.3041e+7 
           6230      2.28612e+7 
           6250      2.26833e+7 
           6270      2.25082e+7 
           6290      2.23339e+7 
           6310      2.21613e+7 
           6330      2.19895e+7 
           6350      2.18204e+7 
           6370      2.16529e+7 
           6390      2.14862e+7 
           6410      2.12909e+7 
           6430      2.11004e+7 
           6450      2.09127e+7 
           6470      2.07062e+7 
           6490      2.04553e+7 
           6510       2.0088e+7 
           6530      1.93414e+7 
           6550      1.69246e+7 
           6570      1.39302e+7 
           6590      1.82899e+7 
           6610      1.91675e+7 
           6630      1.93349e+7 
           6650      1.93125e+7 
           6670      1.92248e+7 
           6690      1.91117e+7 
           6710      1.89896e+7 
           6730      1.88852e+7 
           6750      1.87445e+7 
           6770      1.86051e+7 
           6790      1.84671e+7 
           6810      1.83303e+7 
           6830      1.81941e+7 
           6850      1.80599e+7 
           6870       1.7927e+7 
           6890      1.77945e+7 
           6910       1.7664e+7 
           6930      1.75339e+7 
           6950      1.74059e+7 
           6970      1.72782e+7 
           6990      1.71517e+7 
           7010      1.70272e+7 
           7030       1.6903e+7 
           7050      1.67799e+7 
           7070       1.6658e+7 
           7090      1.65379e+7 
           7110      1.64182e+7 
           7130      1.62995e+7 
           7150      1.61819e+7 
           7170      1.60654e+7 
           7190      1.59499e+7 
           7210      1.58354e+7 
           7230       1.5722e+7 
           7250      1.56096e+7 
           7270      1.54982e+7 
           7290      1.53877e+7 
           7310      1.52783e+7 
           7330      1.51698e+7 
           7350      1.50622e+7 
           7370      1.49556e+7 
           7390      1.48492e+7 
           7410      1.47445e+7 
           7430      1.46406e+7 
           7450       1.4537e+7 
           7470       1.4435e+7 
           7490      1.43332e+7 
           7510      1.42329e+7 
           7530      1.41328e+7 
           7550      1.40342e+7 
           7570      1.39365e+7 
           7590      1.38389e+7 
           7610      1.37429e+7 
           7630      1.36476e+7 
           7650      1.35525e+7 
           7670      1.34589e+7 
           7690       1.3366e+7 
           7710      1.32733e+7 
           7730      1.31821e+7 
           7750      1.30915e+7 
           7770      1.30005e+7 
           7790      1.29121e+7 
           7810      1.28238e+7 
           7830      1.27363e+7 
           7850      1.26495e+7 
           7870      1.25633e+7 
           7890      1.24773e+7 
           7910      1.23926e+7 
           7930      1.23087e+7 
           7950      1.22253e+7 
           7970      1.21427e+7 
           7990      1.20608e+7 
           8010      1.19795e+7 
           8030      1.18988e+7 
           8050      1.18188e+7 
           8070      1.17395e+7 
           8090      1.16608e+7 
           8110      1.15828e+7 
           8130      1.15053e+7 
           8150      1.14285e+7 
           8170      1.13523e+7 
           8190      1.12767e+7 
           8210      1.12118e+7 
           8230      1.11412e+7 
           8250      1.10718e+7 
           8270      1.10029e+7 
           8290      1.09345e+7 
           8310      1.08661e+7 
           8330      1.07977e+7 
           8350      1.07277e+7 
           8370      1.06555e+7 
           8390      1.05823e+7 
           8410      1.05053e+7 
           8430      1.04375e+7 
           8450      1.03739e+7 
           8470      1.02342e+7 
           8490      1.02576e+7 
           8510      1.00315e+7 
           8530      1.01533e+7 
           8550      9.70702e+6 
           8570      1.00926e+7 
