# Kurucz ODFNEW /NOVER (2003)
# teff = 19000 K (value for the effective temperature for the model. Temperatures are given in K)
# logg = 2.5 log(cm/s2) (value for Log(G) for the model.)
# meta = -1  (value for the Metallicity for the model.)
# lh = 1.25  (l/Hp where l is the  mixing length of the convective element and Hp is the pressure scale height)
# vtur = 2 km/s (Microturbulence velocity)
# alpha = 0  (Alpha)
#
# column 1: WAVELENGTH (ANGSTROM), Wavelength in Angstrom
# column 2: FLUX (ERG/CM2/S/A), Flux in erg/cm2/s/A
          147.2     2.98423e-21 
            151     2.16362e-20 
          155.2      1.7231e-19 
          158.8     9.36944e-19 
            162     3.96927e-18 
            166     2.23377e-17 
          170.3     1.30781e-16 
          173.4     4.43066e-16 
          176.8       1.608e-15 
          180.2     5.55847e-15 
          181.7     9.46568e-15 
          186.1     4.29343e-14 
            191     2.12917e-13 
          193.9     5.28442e-13 
          198.4     2.05321e-12 
          201.8     5.49582e-12 
            205      1.3461e-11 
          210.5     5.88047e-11 
          216.2     2.49866e-10 
          219.8     5.98757e-10 
            223      1.27066e-9 
          226.8      3.01811e-9 
            230      2.86421e-8 
            234      7.54408e-8 
            240      2.36287e-7 
          246.5      7.64281e-7 
          252.4      2.12534e-6 
          256.8      4.25463e-6 
            260       7.3178e-6 
            264      1.36052e-5 
          268.5       2.6688e-5 
          273.5      5.49112e-5 
          278.5     0.000110354 
            284     0.000231252 
            290     0.000499872 
            296      0.00104528 
            301      0.00188791 
            308      0.00409516 
            318       0.0123159 
            328       0.0335164 
            338       0.0866606 
            348        0.210579 
            357        0.452315 
            366        0.930068 
            375         1.82357 
            385         3.73057 
            395         7.32549 
            405         13.8953 
            414         24.0704 
            422         38.2433 
            430         59.6797 
            441         107.546 
            451          178.56 
            460         275.497 
            470         437.954 
            480         679.944 
            490         1037.61 
            500         1552.73 
            506         13253.1 
            512         55391.9 
            520         72428.5 
            530          108910 
            540          122208 
            550          193384 
            560          240922 
            570          313048 
            580          308898 
            590          433969 
            600          577076 
            610          723399 
            620          859794 
            630      1.03442e+6 
            640       1.1713e+6 
            650        1.354e+6 
            658      1.65235e+6 
            665      1.81829e+6 
            675      2.03725e+6 
            685      2.32866e+6 
            695      2.83071e+6 
            705      3.18195e+6 
            716      3.71361e+6 
            726      4.14486e+6 
            735      4.59893e+6 
            745      5.33262e+6 
            755      6.00665e+6 
            765       6.7341e+6 
            775      7.56877e+6 
            785      8.45314e+6 
            795      9.26229e+6 
            805      1.01823e+7 
            815      1.10496e+7 
            825      1.23277e+7 
            835      1.29419e+7 
            845      1.43632e+7 
            855      1.55923e+7 
            865      1.70746e+7 
            875      1.87881e+7 
            885      2.05867e+7 
            895      2.22099e+7 
            905      2.32691e+7 
            915      5.98285e+7 
            925      1.28871e+9 
            935      2.75153e+9 
            945      4.24768e+9 
            955      4.85811e+9 
            965      5.22884e+9 
            975      1.60536e+9 
            985      4.76588e+9 
            995      4.74477e+9 
           1005      5.38262e+9 
           1015       5.3696e+9 
           1025      3.56163e+9 
           1035      4.16672e+9 
           1045      6.15242e+9 
           1055      5.77977e+9 
           1065      5.09846e+9 
           1075      5.79361e+9 
           1085      5.17848e+9 
           1095      5.91663e+9 
           1105      5.43516e+9 
           1115      5.43416e+9 
           1125      4.85041e+9 
           1135      5.76459e+9 
           1145      5.42152e+9 
           1155      5.61695e+9 
           1165      5.71857e+9 
           1175      4.35362e+9 
           1185       5.6935e+9 
           1195      5.12032e+9 
           1205      3.36897e+9 
           1215      2.71275e+9 
           1225      4.97402e+9 
           1235      5.43472e+9 
           1245      5.48849e+9 
           1255      5.35832e+9 
           1265      5.25228e+9 
           1275      5.45341e+9 
           1285      5.33874e+9 
           1295      4.21585e+9 
           1305      4.47689e+9 
           1315      5.23714e+9 
           1325      5.00582e+9 
           1335      4.67047e+9 
           1345      4.96343e+9 
           1355      4.98011e+9 
           1365      4.72584e+9 
           1375      4.67349e+9 
           1385      4.68794e+9 
           1395      4.04718e+9 
           1405      4.27241e+9 
           1415      4.45477e+9 
           1425      4.41454e+9 
           1435      4.48038e+9 
           1442      4.53935e+9 
           1447      4.45639e+9 
           1455      4.38848e+9 
           1465      4.23188e+9 
           1475      4.20967e+9 
           1485      4.16359e+9 
           1495      4.10403e+9 
           1505      3.92726e+9 
           1512      3.63852e+9 
           1517      3.74865e+9 
           1525      3.79171e+9 
           1535       3.4745e+9 
           1545      3.55183e+9 
           1555       3.3924e+9 
           1565       3.5393e+9 
           1575       3.6409e+9 
           1585       3.6023e+9 
           1595      3.61828e+9 
           1605      3.52581e+9 
           1615      3.48589e+9 
           1625      3.45268e+9 
           1635      3.54572e+9 
           1645      3.50595e+9 
           1655      3.44514e+9 
           1665      3.49615e+9 
           1672      3.39619e+9 
           1677      3.50738e+9 
           1685      3.45929e+9 
           1695       3.3331e+9 
           1705      3.23217e+9 
           1715      3.10724e+9 
           1725      3.09891e+9 
           1735      3.15428e+9 
           1745      3.08965e+9 
           1755      3.12903e+9 
           1765      3.01386e+9 
           1775      2.95142e+9 
           1785      2.96692e+9 
           1795      3.01557e+9 
           1805      3.01786e+9 
           1815      2.80526e+9 
           1825      2.87822e+9 
           1835       2.8203e+9 
           1845      2.62845e+9 
           1855      2.57129e+9 
           1865      2.62242e+9 
           1875      2.72987e+9 
           1885      2.49137e+9 
           1895      2.33946e+9 
           1905      2.50733e+9 
           1915      2.39522e+9 
           1925      2.31662e+9 
           1935      2.41418e+9 
           1945      2.44808e+9 
           1955      2.26233e+9 
           1967      2.40628e+9 
           1976      2.48794e+9 
           1984      2.34053e+9 
           1995      2.28668e+9 
           2005      2.34142e+9 
           2015      2.33606e+9 
           2025      2.38599e+9 
           2035      2.22605e+9 
           2045      2.24235e+9 
           2055      2.18819e+9 
           2065      2.20151e+9 
           2074      2.30453e+9 
           2078      2.13121e+9 
           2085      2.19492e+9 
           2095      2.09625e+9 
           2105      2.14031e+9 
           2115      2.13528e+9 
           2125      2.16729e+9 
           2135      2.13133e+9 
           2145      2.03274e+9 
           2155      2.10056e+9 
           2165      2.08658e+9 
           2175      2.05971e+9 
           2185       2.0207e+9 
           2195      2.03095e+9 
           2205      2.00947e+9 
           2215      1.98415e+9 
           2225      1.94353e+9 
           2235      1.92927e+9 
           2245      1.93417e+9 
           2255      1.88682e+9 
           2265      1.89737e+9 
           2275      1.87563e+9 
           2285      1.87325e+9 
           2295       1.8026e+9 
           2305      1.82713e+9 
           2315      1.78586e+9 
           2325      1.76927e+9 
           2335      1.72375e+9 
           2345      1.71333e+9 
           2355      1.72442e+9 
           2365      1.69558e+9 
           2375        1.679e+9 
           2385      1.65674e+9 
           2395      1.65048e+9 
           2405      1.62812e+9 
           2415      1.60543e+9 
           2425       1.6131e+9 
           2435      1.57955e+9 
           2445      1.57516e+9 
           2455      1.57192e+9 
           2465       1.5453e+9 
           2475      1.53081e+9 
           2485      1.51455e+9 
           2495      1.44494e+9 
           2505      1.48542e+9 
           2513       1.4366e+9 
           2518      1.46406e+9 
           2525      1.44709e+9 
           2535      1.42608e+9 
           2545      1.39919e+9 
           2555      1.41308e+9 
           2565      1.39023e+9 
           2575       1.3924e+9 
           2585      1.37663e+9 
           2595       1.3637e+9 
           2605      1.35769e+9 
           2615      1.34269e+9 
           2625      1.33019e+9 
           2635      1.31566e+9 
           2645       1.3165e+9 
           2655      1.30666e+9 
           2665      1.28419e+9 
           2675      1.27782e+9 
           2685      1.27208e+9 
           2695      1.24544e+9 
           2705      1.24253e+9 
           2715      1.23073e+9 
           2725      1.21117e+9 
           2735      1.21028e+9 
           2745      1.17853e+9 
           2755      1.17431e+9 
           2765      1.16465e+9 
           2775      1.16738e+9 
           2785      1.15298e+9 
           2795        1.119e+9 
           2805      1.12607e+9 
           2815       1.1244e+9 
           2825      1.10683e+9 
           2835      1.08338e+9 
           2845      1.08992e+9 
           2855      1.07962e+9 
           2865      1.07361e+9 
           2875      1.06278e+9 
           2885      1.05407e+9 
           2895      1.04289e+9 
           2910      1.02803e+9 
           2930      1.00808e+9 
           2950       9.8467e+8 
           2970      9.73332e+8 
           2990      9.53865e+8 
           3010      9.35243e+8 
           3030      9.23348e+8 
           3050      9.07026e+8 
           3070      8.91169e+8 
           3090      8.71661e+8 
           3110      8.59317e+8 
           3130      8.44872e+8 
           3150      8.30115e+8 
           3170      8.14537e+8 
           3190      7.95396e+8 
           3210       7.8738e+8 
           3230      7.73579e+8 
           3250      7.60664e+8 
           3270      7.48005e+8 
           3290      7.34344e+8 
           3310      7.23365e+8 
           3330      7.11101e+8 
           3350      6.97936e+8 
           3370      6.87487e+8 
           3390      6.76186e+8 
           3410      6.65102e+8 
           3430      6.50868e+8 
           3450       6.3809e+8 
           3470      6.29661e+8 
           3490      6.20701e+8 
           3510      6.13281e+8 
           3530      6.03903e+8 
           3550      5.94218e+8 
           3570      5.86662e+8 
           3590      5.74268e+8 
           3610      5.64743e+8 
           3630      5.56421e+8 
           3640      5.55017e+8 
           3650      5.44345e+8 
           3670      5.36247e+8 
           3690      5.17667e+8 
           3710      5.33942e+8 
           3730      5.47078e+8 
           3750      5.94114e+8 
           3770      5.89258e+8 
           3790      5.91108e+8 
           3810      6.06952e+8 
           3830      5.55454e+8 
           3850      6.02869e+8 
           3870      5.89611e+8 
           3890      5.36385e+8 
           3910      5.78816e+8 
           3930      5.62744e+8 
           3950      5.60682e+8 
           3970      4.99783e+8 
           3990       5.4306e+8 
           4010      5.33158e+8 
           4030       5.1707e+8 
           4050       5.1983e+8 
           4070      5.09685e+8 
           4090      4.97033e+8 
           4110      4.56368e+8 
           4130      4.83808e+8 
           4150      4.77953e+8 
           4170      4.73206e+8 
           4190      4.67433e+8 
           4210      4.61068e+8 
           4230      4.53876e+8 
           4250      4.46652e+8 
           4270      4.37499e+8 
           4290      4.33613e+8 
           4310       4.2684e+8 
           4330      4.12458e+8 
           4350      3.83489e+8 
           4370      4.08334e+8 
           4390      3.99071e+8 
           4410       3.9697e+8 
           4430      3.90476e+8 
           4450      3.86346e+8 
           4470      3.73677e+8 
           4490      3.74691e+8 
           4510      3.70449e+8 
           4530      3.64964e+8 
           4550      3.59651e+8 
           4570      3.54454e+8 
           4590      3.49798e+8 
           4610      3.44766e+8 
           4630      3.39949e+8 
           4650      3.33965e+8 
           4670      3.30627e+8 
           4690       3.2658e+8 
           4710      3.18344e+8 
           4730      3.16415e+8 
           4750      3.11769e+8 
           4770      3.09309e+8 
           4790       3.0504e+8 
           4810       3.0062e+8 
           4830      2.96585e+8 
           4850      2.88683e+8 
           4870      2.65508e+8 
           4890      2.85067e+8 
           4910      2.81343e+8 
           4930      2.74198e+8 
           4950      2.73816e+8 
           4970      2.70457e+8 
           4990      2.66826e+8 
           5010      2.60092e+8 
           5030      2.59845e+8 
           5050      2.54733e+8 
           5070      2.53181e+8 
           5090      2.49916e+8 
           5110      2.46665e+8 
           5130      2.43171e+8 
           5150      2.40093e+8 
           5170      2.37379e+8 
           5190      2.34364e+8 
           5210      2.31125e+8 
           5230      2.28451e+8 
           5250      2.25593e+8 
           5270      2.22704e+8 
           5290      2.19973e+8 
           5310      2.17184e+8 
           5330      2.14483e+8 
           5350      2.11724e+8 
           5370      2.09261e+8 
           5390      2.06648e+8 
           5410      2.04119e+8 
           5430      2.01494e+8 
           5450      1.99066e+8 
           5470      1.96656e+8 
           5490      1.94289e+8 
           5510       1.9195e+8 
           5530      1.89603e+8 
           5550      1.87359e+8 
           5570      1.85069e+8 
           5590      1.82879e+8 
           5610      1.80643e+8 
           5630      1.78554e+8 
           5650      1.76195e+8 
           5670      1.74016e+8 
           5690      1.71864e+8 
           5710      1.70177e+8 
           5730      1.68177e+8 
           5750      1.66131e+8 
           5770      1.64314e+8 
           5790      1.62383e+8 
           5810      1.60497e+8 
           5830      1.58599e+8 
           5850      1.56801e+8 
           5870      1.51842e+8 
           5890      1.52898e+8 
           5910      1.51412e+8 
           5930      1.49632e+8 
           5950      1.47882e+8 
           5970      1.46333e+8 
           5990      1.44602e+8 
           6010      1.43025e+8 
           6030      1.41384e+8 
           6050      1.39823e+8 
           6070      1.38259e+8 
           6090      1.36702e+8 
           6110      1.35193e+8 
           6130      1.33691e+8 
           6150      1.32116e+8 
           6170      1.30706e+8 
           6190      1.29293e+8 
           6210      1.27865e+8 
           6230      1.26463e+8 
           6250      1.25048e+8 
           6270      1.23705e+8 
           6290      1.22358e+8 
           6310      1.21006e+8 
           6330      1.19726e+8 
           6350      1.18281e+8 
           6370      1.17085e+8 
           6390      1.15873e+8 
           6410      1.14638e+8 
           6430      1.13425e+8 
           6450      1.12206e+8 
           6470      1.10964e+8 
           6490      1.09799e+8 
           6510      1.08663e+8 
           6530      1.07503e+8 
           6550      1.05355e+8 
           6570      9.61354e+7 
           6590      1.03638e+8 
           6610      1.03063e+8 
           6630      1.02005e+8 
           6650      1.01001e+8 
           6670      9.93374e+7 
           6690      9.83235e+7 
           6710      9.79056e+7 
           6730      9.68754e+7 
           6750      9.59053e+7 
           6770      9.49203e+7 
           6790       9.3839e+7 
           6810      9.29799e+7 
           6830      9.20404e+7 
           6850      9.11104e+7 
           6870      9.01895e+7 
           6890      8.92699e+7 
           6910      8.83752e+7 
           6930      8.74736e+7 
           6950      8.66199e+7 
           6970      8.57513e+7 
           6990      8.48835e+7 
           7010      8.40548e+7 
           7030      8.32189e+7 
           7050      8.23912e+7 
           7070       8.0441e+7 
           7090      8.07747e+7 
           7110      7.99557e+7 
           7130      7.91817e+7 
           7150      7.84225e+7 
           7170      7.76412e+7 
           7190      7.69038e+7 
           7210      7.61589e+7 
           7230      7.49309e+7 
           7250      7.46757e+7 
           7270      7.39661e+7 
           7290      7.27385e+7 
           7310      7.25454e+7 
           7330      7.18626e+7 
           7350      7.11722e+7 
           7370      7.04951e+7 
           7390      6.98244e+7 
           7410      6.91666e+7 
           7430      6.85082e+7 
           7450      6.78714e+7 
           7470      6.72147e+7 
           7490      6.65997e+7 
           7510      6.59489e+7 
           7530      6.53552e+7 
           7550       6.4749e+7 
           7570      6.41457e+7 
           7590      6.35485e+7 
           7610       6.2956e+7 
           7630      6.23779e+7 
           7650      6.17991e+7 
           7670      6.12346e+7 
           7690      6.06661e+7 
           7710      6.01084e+7 
           7730      5.95658e+7 
           7750      5.90147e+7 
           7770      5.84143e+7 
           7790      5.79552e+7 
           7810      5.73851e+7 
           7830      5.69111e+7 
           7850       5.6438e+7 
           7870       5.5932e+7 
           7890      5.53801e+7 
           7910       5.4865e+7 
           7930      5.43202e+7 
           7950      5.38177e+7 
           7970      5.33273e+7 
           7990      5.29073e+7 
           8010       5.2398e+7 
           8030      5.19748e+7 
           8050      5.15466e+7 
           8070      5.11167e+7 
           8090      5.05701e+7 
           8110       5.0148e+7 
           8130      4.98076e+7 
           8150      4.92685e+7 
           8170      4.89497e+7 
           8190      4.84924e+7 
           8210      4.78574e+7 
           8230      4.75655e+7 
           8250      4.71603e+7 
           8270      4.65342e+7 
           8290       4.6288e+7 
           8310      4.59024e+7 
           8330      4.54879e+7 
           8350      4.49244e+7 
           8370      4.44868e+7 
           8390      4.41776e+7 
           8410       4.3753e+7 
           8430      4.34593e+7 
           8450      4.29325e+7 
           8470      4.22521e+7 
           8490       4.2877e+7 
           8510      4.13861e+7 
           8530      4.24266e+7 
           8550      4.02525e+7 
           8570      4.23264e+7 
           8590        4.041e+7 
