# Kurucz ODFNEW /NOVER (2003)
# teff = 24000 K (value for the effective temperature for the model. Temperatures are given in K)
# logg = 4 log(cm/s2) (value for Log(G) for the model.)
# meta = -1  (value for the Metallicity for the model.)
# lh = 1.25  (l/Hp where l is the  mixing length of the convective element and Hp is the pressure scale height)
# vtur = 2 km/s (Microturbulence velocity)
# alpha = 0.4  (Alpha)
#
# column 1: WAVELENGTH (ANGSTROM), Wavelength in Angstrom
# column 2: FLUX (ERG/CM2/S/A), Flux in erg/cm2/s/A
          147.2     2.56122e-15 
            151     1.21693e-14 
          155.2     6.28116e-14 
          158.8     2.40716e-13 
            162     7.59201e-13 
            166     3.01154e-12 
          170.3     1.23773e-11 
          173.4     3.29286e-11 
          176.8     9.27306e-11 
          180.2      2.5157e-10 
          181.7      3.8627e-10 
          186.1      1.30859e-9 
            191      4.77704e-9 
          193.9      9.97375e-9 
          198.4      2.99699e-8 
          201.8      6.66394e-8 
            205      1.38016e-7 
          210.5      4.58186e-7 
          216.2      1.48943e-6 
          219.8      3.03765e-6 
            223      5.61234e-6 
          226.8      1.13711e-5 
            230     0.000459368 
            234      0.00107826 
            240      0.00264626 
          246.5      0.00665824 
          252.4       0.0149472 
          256.8       0.0251649 
            260       0.0395226 
            264       0.0639017 
          268.5         0.10849 
          273.5        0.190298 
          278.5        0.328905 
            284        0.592727 
            290          1.0793 
            296         1.91658 
            301         3.02657 
            308         5.44698 
            318         13.2059 
            328         28.3976 
            338         60.1678 
            348           119.8 
            357         232.457 
            366         412.542 
            375         684.208 
            385         1191.86 
            395         2002.17 
            405         3261.43 
            414            5002 
            422         7048.29 
            430         9928.42 
            441         15562.5 
            451         23048.2 
            460         31909.8 
            470         45531.6 
            480         63528.9 
            490         87791.6 
            500          119759 
            506          881438 
            512      3.06047e+6 
            520      3.66824e+6 
            530      4.76967e+6 
            540       5.1684e+6 
            550      7.14229e+6 
            560       8.2973e+6 
            570      1.00579e+7 
            580      1.00868e+7 
            590      1.30757e+7 
            600      1.53141e+7 
            610      1.80204e+7 
            620      2.01831e+7 
            630      2.29426e+7 
            640      2.44525e+7 
            650      2.62739e+7 
            658      3.10902e+7 
            665      3.37836e+7 
            675      3.62231e+7 
            685      3.95232e+7 
            695       4.6315e+7 
            705      4.95189e+7 
            716      5.58661e+7 
            726      5.98899e+7 
            735      6.46805e+7 
            745      7.19351e+7 
            755      7.80457e+7 
            765      8.43421e+7 
            775      9.17322e+7 
            785      9.92038e+7 
            795      1.05122e+8 
            805      1.12439e+8 
            815      1.18845e+8 
            825      1.28374e+8 
            835      1.29425e+8 
            845      1.42023e+8 
            855      1.50012e+8 
            865      1.60057e+8 
            875      1.70659e+8 
            885      1.82048e+8 
            895      1.91811e+8 
            905      1.97379e+8 
            915      2.93383e+8 
            925      1.99552e+9 
            935      5.82488e+9 
            945     1.49101e+10 
            955     1.97959e+10 
            965     2.51474e+10 
            975      7.22647e+9 
            985     2.60846e+10 
            995     2.42942e+10 
           1005     2.58829e+10 
           1015     2.44868e+10 
           1025      9.39506e+9 
           1035     2.03331e+10 
           1045     2.76817e+10 
           1055      2.6317e+10 
           1065     2.27949e+10 
           1075     2.49641e+10 
           1085     2.28676e+10 
           1095     2.48614e+10 
           1105     2.26527e+10 
           1115     2.22548e+10 
           1125     1.99297e+10 
           1135     2.26323e+10 
           1145     2.05628e+10 
           1155     2.13526e+10 
           1165     2.13476e+10 
           1175     1.65533e+10 
           1185     2.03648e+10 
           1195     1.84307e+10 
           1205     1.33072e+10 
           1215      6.89162e+9 
           1225     1.59152e+10 
           1235      1.8274e+10 
           1245       1.823e+10 
           1255      1.7728e+10 
           1265     1.75147e+10 
           1275     1.77567e+10 
           1285     1.73169e+10 
           1295     1.38402e+10 
           1305     1.42162e+10 
           1315     1.64288e+10 
           1325     1.56477e+10 
           1335     1.50855e+10 
           1345     1.50242e+10 
           1355     1.51057e+10 
           1365     1.42438e+10 
           1375     1.39979e+10 
           1385     1.39132e+10 
           1395     1.16841e+10 
           1405     1.21653e+10 
           1415     1.28971e+10 
           1425     1.25781e+10 
           1435       1.264e+10 
           1442     1.27788e+10 
           1447     1.25482e+10 
           1455     1.22773e+10 
           1465     1.18259e+10 
           1475     1.16846e+10 
           1485     1.14164e+10 
           1495     1.12085e+10 
           1505      1.0559e+10 
           1512     1.00147e+10 
           1517     1.01907e+10 
           1525     1.01866e+10 
           1535      9.33579e+9 
           1545      9.39588e+9 
           1555      8.96647e+9 
           1565      9.26048e+9 
           1575      9.43044e+9 
           1585      9.25394e+9 
           1595        9.224e+9 
           1605      8.94943e+9 
           1615       8.7673e+9 
           1625       8.7051e+9 
           1635      8.81583e+9 
           1645       8.6111e+9 
           1655      8.51436e+9 
           1665      8.49054e+9 
           1672      8.26907e+9 
           1677      8.51413e+9 
           1685      8.34047e+9 
           1695      8.06991e+9 
           1705       7.8125e+9 
           1715      7.52927e+9 
           1725      7.42577e+9 
           1735      7.45706e+9 
           1745      7.32309e+9 
           1755      7.32109e+9 
           1765      7.05274e+9 
           1775      6.88644e+9 
           1785      6.85396e+9 
           1795        6.907e+9 
           1805      6.86167e+9 
           1815      6.49408e+9 
           1825      6.55375e+9 
           1835      6.39994e+9 
           1845      5.95746e+9 
           1855      5.91103e+9 
           1865      5.96273e+9 
           1875      6.03828e+9 
           1885      5.57806e+9 
           1895      5.25907e+9 
           1905      5.53318e+9 
           1915      5.30717e+9 
           1925      5.12774e+9 
           1935      5.28215e+9 
           1945      5.33164e+9 
           1955      4.95304e+9 
           1967      5.15988e+9 
           1976      5.31145e+9 
           1984      5.00216e+9 
           1995      4.87956e+9 
           2005      4.93784e+9 
           2015      4.92718e+9 
           2025      4.97951e+9 
           2035      4.70181e+9 
           2045      4.68089e+9 
           2055      4.53152e+9 
           2065      4.55523e+9 
           2074      4.65714e+9 
           2078       4.4356e+9 
           2085      4.48213e+9 
           2095      4.31266e+9 
           2105       4.3841e+9 
           2115      4.34956e+9 
           2125      4.38055e+9 
           2135      4.29217e+9 
           2145      4.14367e+9 
           2155      4.19665e+9 
           2165      4.15411e+9 
           2175      4.08558e+9 
           2185      4.02665e+9 
           2195       4.0049e+9 
           2205      3.95223e+9 
           2215      3.90395e+9 
           2225      3.82587e+9 
           2235      3.77074e+9 
           2245      3.75756e+9 
           2255      3.68222e+9 
           2265      3.66594e+9 
           2275      3.61748e+9 
           2285      3.58516e+9 
           2295      3.45564e+9 
           2305      3.48521e+9 
           2315      3.41854e+9 
           2325      3.38035e+9 
           2335       3.3035e+9 
           2345      3.28237e+9 
           2355      3.26672e+9 
           2365      3.22063e+9 
           2375      3.17333e+9 
           2385      3.13498e+9 
           2395      3.09901e+9 
           2405      3.05948e+9 
           2415      3.01198e+9 
           2425      3.00218e+9 
           2435      2.94593e+9 
           2445      2.92087e+9 
           2455      2.89694e+9 
           2465      2.85798e+9 
           2475      2.82226e+9 
           2485      2.78672e+9 
           2495      2.63843e+9 
           2505      2.71454e+9 
           2513       2.6368e+9 
           2518      2.66716e+9 
           2525      2.64872e+9 
           2535      2.61802e+9 
           2545      2.54962e+9 
           2555      2.55509e+9 
           2565      2.51843e+9 
           2575      2.50947e+9 
           2585      2.48057e+9 
           2595       2.4527e+9 
           2605      2.43718e+9 
           2615      2.41114e+9 
           2625      2.38657e+9 
           2635      2.35585e+9 
           2645      2.33446e+9 
           2655      2.30724e+9 
           2665      2.26709e+9 
           2675      2.24744e+9 
           2685      2.23799e+9 
           2695      2.18651e+9 
           2705      2.18026e+9 
           2715      2.15804e+9 
           2725      2.11828e+9 
           2735      2.11259e+9 
           2745      2.07188e+9 
           2755      2.05622e+9 
           2765      2.02516e+9 
           2775      2.02522e+9 
           2785      1.99953e+9 
           2795      1.93404e+9 
           2805      1.94311e+9 
           2815       1.9385e+9 
           2825      1.89922e+9 
           2835      1.86447e+9 
           2845      1.87503e+9 
           2855      1.85318e+9 
           2865      1.83646e+9 
           2875      1.81664e+9 
           2885      1.79837e+9 
           2895      1.77823e+9 
           2910      1.74789e+9 
           2930      1.71007e+9 
           2950       1.6651e+9 
           2970      1.64339e+9 
           2990       1.6069e+9 
           3010      1.57231e+9 
           3030      1.54547e+9 
           3050      1.51498e+9 
           3070      1.48531e+9 
           3090      1.44614e+9 
           3110      1.42573e+9 
           3130      1.39776e+9 
           3150      1.37096e+9 
           3170       1.3434e+9 
           3190      1.30688e+9 
           3210      1.29255e+9 
           3230      1.26648e+9 
           3250      1.24291e+9 
           3270       1.2206e+9 
           3290      1.19565e+9 
           3310      1.17543e+9 
           3330      1.15313e+9 
           3350       1.1298e+9 
           3370      1.11059e+9 
           3390      1.09064e+9 
           3410      1.07083e+9 
           3430      1.04601e+9 
           3450      1.02319e+9 
           3470      1.00755e+9 
           3490        9.892e+8 
           3510      9.75146e+8 
           3530      9.60077e+8 
           3550        9.434e+8 
           3570      9.31559e+8 
           3590       9.0861e+8 
           3610      8.94552e+8 
           3630      8.77975e+8 
           3640      8.76598e+8 
           3650      8.59783e+8 
           3670      8.49263e+8 
           3690      8.30592e+8 
           3710      8.02775e+8 
           3730      7.73556e+8 
           3750      8.17915e+8 
           3770      8.19411e+8 
           3790      8.60592e+8 
           3810      8.95025e+8 
           3830      7.84385e+8 
           3850      9.16376e+8 
           3870      9.18776e+8 
           3890      7.43695e+8 
           3910      9.05323e+8 
           3930      8.85033e+8 
           3950      8.74838e+8 
           3970      6.91173e+8 
           3990      8.40418e+8 
           4010      8.35172e+8 
           4030      7.88606e+8 
           4050      8.14921e+8 
           4070      7.91239e+8 
           4090       7.3465e+8 
           4110      6.46382e+8 
           4130      7.44894e+8 
           4150      7.40181e+8 
           4170      7.34571e+8 
           4190        7.244e+8 
           4210      7.14473e+8 
           4230      7.01921e+8 
           4250      6.88427e+8 
           4270      6.72137e+8 
           4290      6.64779e+8 
           4310      6.49924e+8 
           4330      5.93097e+8 
           4350      5.41069e+8 
           4370      6.18154e+8 
           4390      5.98635e+8 
           4410      6.03407e+8 
           4430      5.93633e+8 
           4450      5.86444e+8 
           4470      5.53699e+8 
           4490      5.66362e+8 
           4510      5.60572e+8 
           4530      5.51484e+8 
           4550      5.42243e+8 
           4570      5.33521e+8 
           4590      5.25663e+8 
           4610      5.17584e+8 
           4630      5.09994e+8 
           4650      4.98612e+8 
           4670      4.94091e+8 
           4690      4.87968e+8 
           4710      4.72421e+8 
           4730      4.72189e+8 
           4750      4.64531e+8 
           4770      4.60164e+8 
           4790      4.53177e+8 
           4810       4.4528e+8 
           4830      4.36287e+8 
           4850      4.05341e+8 
           4870      3.62943e+8 
           4890      4.17107e+8 
           4910      4.13529e+8 
           4930      3.98865e+8 
           4950       4.0249e+8 
           4970      3.97641e+8 
           4990      3.91842e+8 
           5010      3.80195e+8 
           5030      3.80707e+8 
           5050      3.72069e+8 
           5070      3.70297e+8 
           5090      3.65022e+8 
           5110      3.59862e+8 
           5130      3.54542e+8 
           5150      3.49678e+8 
           5170       3.4523e+8 
           5190       3.4056e+8 
           5210        3.353e+8 
           5230       3.3139e+8 
           5250      3.26902e+8 
           5270      3.22404e+8 
           5290       3.1814e+8 
           5310      3.13838e+8 
           5330      3.09577e+8 
           5350      3.05253e+8 
           5370      3.01507e+8 
           5390      2.97459e+8 
           5410      2.93539e+8 
           5430      2.89464e+8 
           5450      2.85732e+8 
           5470      2.81997e+8 
           5490      2.78459e+8 
           5510      2.74853e+8 
           5530      2.71254e+8 
           5550      2.67823e+8 
           5570      2.64325e+8 
           5590       2.6099e+8 
           5610      2.57564e+8 
           5630      2.54394e+8 
           5650      2.50744e+8 
           5670      2.47478e+8 
           5690      2.44299e+8 
           5710      2.41654e+8 
           5730      2.38685e+8 
           5750      2.35455e+8 
           5770      2.32819e+8 
           5790      2.29932e+8 
           5810      2.27068e+8 
           5830      2.24227e+8 
           5850      2.21508e+8 
           5870      2.12348e+8 
           5890      2.15491e+8 
           5910       2.1342e+8 
           5930      2.10793e+8 
           5950      2.08144e+8 
           5970      2.05854e+8 
           5990      2.03253e+8 
           6010      2.00922e+8 
           6030      1.98493e+8 
           6050      1.96154e+8 
           6070       1.9383e+8 
           6090      1.91523e+8 
           6110      1.89283e+8 
           6130      1.87057e+8 
           6150      1.84697e+8 
           6170       1.8265e+8 
           6190      1.80557e+8 
           6210      1.78468e+8 
           6230      1.76402e+8 
           6250      1.74301e+8 
           6270      1.72328e+8 
           6290      1.70349e+8 
           6310      1.68353e+8 
           6330      1.66482e+8 
           6350      1.64314e+8 
           6370      1.62587e+8 
           6390      1.60842e+8 
           6410      1.59015e+8 
           6430      1.57262e+8 
           6450      1.55482e+8 
           6470      1.53658e+8 
           6490       1.5197e+8 
           6510      1.50265e+8 
           6530      1.48003e+8 
           6550      1.41814e+8 
           6570      1.26141e+8 
           6590      1.41998e+8 
           6610      1.41959e+8 
           6630      1.40649e+8 
           6650      1.39174e+8 
           6670      1.36334e+8 
           6690       1.3488e+8 
           6710      1.34713e+8 
           6730      1.33215e+8 
           6750       1.3184e+8 
           6770      1.30421e+8 
           6790      1.28853e+8 
           6810      1.27618e+8 
           6830       1.2625e+8 
           6850      1.24936e+8 
           6870       1.2361e+8 
           6890      1.22283e+8 
           6910      1.20984e+8 
           6930      1.19722e+8 
           6950       1.1848e+8 
           6970      1.17243e+8 
           6990       1.1601e+8 
           7010      1.14805e+8 
           7030      1.13611e+8 
           7050      1.12437e+8 
           7070      1.09488e+8 
           7090      1.10138e+8 
           7110      1.08997e+8 
           7130      1.07883e+8 
           7150      1.06779e+8 
           7170      1.05678e+8 
           7190      1.04625e+8 
           7210      1.03567e+8 
           7230      1.01914e+8 
           7250      1.01453e+8 
           7270       1.0046e+8 
           7290       9.8634e+7 
           7310      9.84404e+7 
           7330      9.74763e+7 
           7350      9.65072e+7 
           7370      9.55471e+7 
           7390       9.4603e+7 
           7410      9.36676e+7 
           7430      9.27273e+7 
           7450      9.18364e+7 
           7470      9.08794e+7 
           7490      9.00456e+7 
           7510      8.91324e+7 
           7530      8.82941e+7 
           7550      8.74437e+7 
           7570      8.66009e+7 
           7590      8.57593e+7 
           7610      8.49188e+7 
           7630      8.41183e+7 
           7650      8.33121e+7 
           7670      8.25132e+7 
           7690      8.17214e+7 
           7710      8.09431e+7 
           7730      8.01717e+7 
           7750      7.94072e+7 
           7770      7.84997e+7 
           7790      7.79233e+7 
           7810      7.71295e+7 
           7830      7.64656e+7 
           7850      7.57952e+7 
           7870      7.50759e+7 
           7890      7.42964e+7 
           7910      7.37225e+7 
           7930      7.30156e+7 
           7950      7.21778e+7 
           7970      7.14839e+7 
           7990      7.08078e+7 
           8010      7.01787e+7 
           8030      6.95315e+7 
           8050      6.89074e+7 
           8070      6.83523e+7 
           8090       6.7583e+7 
           8110      6.70324e+7 
           8130      6.65264e+7 
           8150      6.58259e+7 
           8170      6.53629e+7 
           8190      6.46565e+7 
           8210      6.38836e+7 
           8230      6.34789e+7 
           8250      6.29667e+7 
           8270      6.20401e+7 
           8290       6.1785e+7 
           8310      6.12588e+7 
           8330       6.0699e+7 
           8350      5.98466e+7 
           8370      5.95072e+7 
           8390      5.90847e+7 
           8410      5.85536e+7 
           8430      5.79633e+7 
           8450      5.70245e+7 
           8470        5.685e+7 
           8490      5.63369e+7 
           8510      5.56666e+7 
           8530      5.54473e+7 
           8550      5.40544e+7 
           8570      5.51874e+7 
           8590      5.28017e+7 
