# Kurucz ODFNEW /NOVER (2003)
# teff = 31000 K (value for the effective temperature for the model. Temperatures are given in K)
# logg = 4 log(cm/s2) (value for Log(G) for the model.)
# meta = 0.5  (value for the Metallicity for the model.)
# lh = 1.25  (l/Hp where l is the  mixing length of the convective element and Hp is the pressure scale height)
# vtur = 2 km/s (Microturbulence velocity)
# alpha = 0  (Alpha)
#
# column 1: WAVELENGTH (ANGSTROM), Wavelength in Angstrom
# column 2: FLUX (ERG/CM2/S/A), Flux in erg/cm2/s/A
          147.2      7.57098e-8 
            151      2.24904e-7 
          155.2      7.04941e-7 
          158.8      1.79136e-6 
            162       3.9707e-6 
            166      1.02981e-5 
          170.3      2.71836e-5 
          173.4      5.34944e-5 
          176.8     0.000109429 
          180.2      0.00021687 
          181.7     0.000292735 
          186.1     0.000674667 
            191      0.00163772 
          193.9      0.00270744 
          198.4      0.00576054 
          201.8      0.00993369 
            205       0.0163161 
          210.5       0.0370597 
          216.2       0.0824264 
          219.8        0.134965 
            223        0.205512 
          226.8        0.349461 
            230         49.9854 
            234         104.159 
            240         180.549 
          246.5         330.742 
          252.4         574.097 
          256.8         843.019 
            260         1499.95 
            264         2531.53 
          268.5         3888.93 
          273.5         5593.86 
          278.5         7478.51 
            284         17856.1 
            290         26921.1 
            296         37517.7 
            301         57939.2 
            308          179453 
            318          386103 
            328          585698 
            338      1.09859e+6 
            348      1.77471e+6 
            357      4.89294e+6 
            366      1.12488e+7 
            375      1.36828e+7 
            385      2.10727e+7 
            395      4.58957e+7 
            405      5.80144e+7 
            414      8.29505e+7 
            422      9.84175e+7 
            430      1.18328e+8 
            441      1.50152e+8 
            451      1.63823e+8 
            460      1.71834e+8 
            470      2.18022e+8 
            480      2.65019e+8 
            490      2.88768e+8 
            500      3.54894e+8 
            506      5.43326e+8 
            512      4.63123e+9 
            520      4.42978e+9 
            530      3.99502e+9 
            540       3.7191e+9 
            550      4.56596e+9 
            560      6.39911e+9 
            570      7.06614e+9 
            580      6.41907e+9 
            590      6.89704e+9 
            600      4.84641e+9 
            610      6.64698e+9 
            620      8.33803e+9 
            630      7.89214e+9 
            640      7.37796e+9 
            650      6.26512e+9 
            658      5.25559e+9 
            665      7.23327e+9 
            675      8.78105e+9 
            685       6.2422e+9 
            695      9.63145e+9 
            705       6.8769e+9 
            716     1.07113e+10 
            726     1.03075e+10 
            735     1.03202e+10 
            745      9.53999e+9 
            755      9.70597e+9 
            765      9.95471e+9 
            775     1.06892e+10 
            785     1.11052e+10 
            795     1.12734e+10 
            805     1.04684e+10 
            815     1.02703e+10 
            825     1.13175e+10 
            835      8.21513e+9 
            845     1.05386e+10 
            855     1.03326e+10 
            865      1.0796e+10 
            875     1.09403e+10 
            885     1.13087e+10 
            895     1.13956e+10 
            905     1.09083e+10 
            915      1.2723e+10 
            925     3.86828e+10 
            935     6.04034e+10 
            945     7.19605e+10 
            955     7.54058e+10 
            965      8.0862e+10 
            975     2.55267e+10 
            985     5.76185e+10 
            995     5.57964e+10 
           1005     6.06146e+10 
           1015     6.57414e+10 
           1025     5.59953e+10 
           1035     6.26801e+10 
           1045      7.5665e+10 
           1055     7.02231e+10 
           1065     5.87169e+10 
           1075     6.21186e+10 
           1085     5.71386e+10 
           1095     6.06399e+10 
           1105     5.79368e+10 
           1115     5.68386e+10 
           1125      4.2917e+10 
           1135     5.41454e+10 
           1145     5.29308e+10 
           1155     4.99736e+10 
           1165     4.80146e+10 
           1175     2.71319e+10 
           1185     4.30782e+10 
           1195     4.24103e+10 
           1205     3.96986e+10 
           1215     3.40842e+10 
           1225     3.98263e+10 
           1235     4.30643e+10 
           1245     4.06059e+10 
           1255     4.06909e+10 
           1265     4.23855e+10 
           1275     4.44231e+10 
           1285     4.46492e+10 
           1295       4.024e+10 
           1305     4.05614e+10 
           1315     4.41995e+10 
           1325     4.24362e+10 
           1335     4.08157e+10 
           1345     4.09586e+10 
           1355     3.99418e+10 
           1365     3.83457e+10 
           1375     3.66961e+10 
           1385     3.50388e+10 
           1395     2.44987e+10 
           1405      2.6302e+10 
           1415      3.3279e+10 
           1425     2.98935e+10 
           1435     3.23871e+10 
           1442      3.1885e+10 
           1447     3.17155e+10 
           1455     2.99316e+10 
           1465     2.85835e+10 
           1475     2.95306e+10 
           1485     2.94519e+10 
           1495      2.8417e+10 
           1505     2.68232e+10 
           1512     2.57976e+10 
           1517     2.63612e+10 
           1525     2.54098e+10 
           1535     2.13641e+10 
           1545     1.75768e+10 
           1555      1.7713e+10 
           1565     2.08236e+10 
           1575     2.22959e+10 
           1585     2.26167e+10 
           1595     2.24021e+10 
           1605      2.1533e+10 
           1615     2.03558e+10 
           1625     2.09577e+10 
           1635     2.15604e+10 
           1645     2.18462e+10 
           1655     2.14441e+10 
           1665     2.13422e+10 
           1672     1.92772e+10 
           1677     2.35402e+10 
           1685     2.20288e+10 
           1695     2.10655e+10 
           1705     2.09526e+10 
           1715     1.95139e+10 
           1725     1.88211e+10 
           1735     1.95885e+10 
           1745     1.94265e+10 
           1755     1.92779e+10 
           1765     1.91072e+10 
           1775     1.80926e+10 
           1785     1.85573e+10 
           1795     1.82131e+10 
           1805     1.81853e+10 
           1815     1.73222e+10 
           1825     1.72302e+10 
           1835     1.71447e+10 
           1845     1.59954e+10 
           1855     1.65854e+10 
           1865     1.66463e+10 
           1875     1.63481e+10 
           1885      1.5188e+10 
           1895     1.46788e+10 
           1905     1.53379e+10 
           1915     1.48166e+10 
           1925     1.37501e+10 
           1935     1.48821e+10 
           1945     1.51707e+10 
           1955     1.34092e+10 
           1967     1.43882e+10 
           1976     1.49193e+10 
           1984     1.41733e+10 
           1995     1.38613e+10 
           2005     1.42313e+10 
           2015     1.41915e+10 
           2025     1.43255e+10 
           2035     1.33981e+10 
           2045     1.33332e+10 
           2055     1.11056e+10 
           2065     1.07951e+10 
           2074     1.14504e+10 
           2078     1.10696e+10 
           2085     1.18811e+10 
           2095      1.2034e+10 
           2105     1.23901e+10 
           2115     1.25326e+10 
           2125     1.24074e+10 
           2135     1.22468e+10 
           2145     1.18848e+10 
           2155     1.20644e+10 
           2165     1.15971e+10 
           2175     1.17527e+10 
           2185     1.14315e+10 
           2195     1.16474e+10 
           2205     1.14785e+10 
           2215     1.11225e+10 
           2225     1.10684e+10 
           2235     1.08519e+10 
           2245     1.07337e+10 
           2255     1.04543e+10 
           2265     1.04841e+10 
           2275     1.03972e+10 
           2285     1.01202e+10 
           2295      8.63248e+9 
           2305      9.66176e+9 
           2315      9.55386e+9 
           2325      9.56245e+9 
           2335      9.37224e+9 
           2345      9.31098e+9 
           2355      9.08263e+9 
           2365       8.9265e+9 
           2375      8.68786e+9 
           2385      8.40124e+9 
           2395      8.41135e+9 
           2405      8.39887e+9 
           2415      8.30426e+9 
           2425      8.27948e+9 
           2435      8.10932e+9 
           2445      8.04312e+9 
           2455      7.95335e+9 
           2465      7.83005e+9 
           2475      7.70479e+9 
           2485      7.33848e+9 
           2495      5.04967e+9 
           2505      6.89757e+9 
           2513      6.88355e+9 
           2518      7.03687e+9 
           2525      7.20118e+9 
           2535      7.17203e+9 
           2545      6.97851e+9 
           2555      6.92746e+9 
           2565       6.8432e+9 
           2575      6.77367e+9 
           2585      6.69825e+9 
           2595      6.58743e+9 
           2605      6.55971e+9 
           2615      6.39835e+9 
           2625      6.37812e+9 
           2635      6.32601e+9 
           2645      6.20072e+9 
           2655      6.14608e+9 
           2665      5.94781e+9 
           2675      5.82498e+9 
           2685      5.89297e+9 
           2695      5.71031e+9 
           2705      5.63007e+9 
           2715      5.57845e+9 
           2725      5.57259e+9 
           2735      5.45486e+9 
           2745      5.45368e+9 
           2755      5.39381e+9 
           2765      5.30609e+9 
           2775      5.31977e+9 
           2785      5.20684e+9 
           2795      5.00713e+9 
           2805      5.05911e+9 
           2815      5.05889e+9 
           2825      4.99529e+9 
           2835      4.85371e+9 
           2845       4.8741e+9 
           2855       4.7901e+9 
           2865         4.72e+9 
           2875      4.67036e+9 
           2885      4.61948e+9 
           2895       4.5683e+9 
           2910      4.44458e+9 
           2930      4.40715e+9 
           2950      4.27526e+9 
           2970      4.18195e+9 
           2990      4.04916e+9 
           3010      3.90963e+9 
           3030      3.82934e+9 
           3050      3.79143e+9 
           3070        3.734e+9 
           3090      3.59716e+9 
           3110       3.5847e+9 
           3130      3.47943e+9 
           3150      3.42772e+9 
           3170      3.33451e+9 
           3190      3.27788e+9 
           3210      3.19193e+9 
           3230      3.12064e+9 
           3250      3.08199e+9 
           3270      2.98483e+9 
           3290      2.93859e+9 
           3310      2.87152e+9 
           3330      2.79912e+9 
           3350      2.73149e+9 
           3370      2.67859e+9 
           3390      2.65292e+9 
           3410       2.5951e+9 
           3430      2.55323e+9 
           3450       2.4833e+9 
           3470       2.4423e+9 
           3490      2.39147e+9 
           3510       2.3461e+9 
           3530      2.31085e+9 
           3550      2.26062e+9 
           3570        2.217e+9 
           3590      2.16133e+9 
           3610      2.11689e+9 
           3630      2.08216e+9 
           3640      2.06067e+9 
           3650      1.97313e+9 
           3670      1.94343e+9 
           3690      1.90474e+9 
           3710      1.83524e+9 
           3730      1.79858e+9 
           3750      1.82486e+9 
           3770      1.79664e+9 
           3790      1.85085e+9 
           3810      1.88405e+9 
           3830      1.71426e+9 
           3850      1.86531e+9 
           3870      1.79358e+9 
           3890      1.61894e+9 
           3910      1.80448e+9 
           3930       1.7365e+9 
           3950      1.69851e+9 
           3970      1.48912e+9 
           3990      1.66605e+9 
           4010      1.63701e+9 
           4030      1.57812e+9 
           4050      1.57874e+9 
           4070      1.50715e+9 
           4090      1.43412e+9 
           4110      1.33202e+9 
           4130      1.44168e+9 
           4150      1.42526e+9 
           4170      1.42014e+9 
           4190      1.39747e+9 
           4210      1.37279e+9 
           4230      1.35361e+9 
           4250      1.31328e+9 
           4270      1.28371e+9 
           4290      1.25871e+9 
           4310      1.22025e+9 
           4330      1.16124e+9 
           4350      1.09018e+9 
           4370      1.16643e+9 
           4390      1.15475e+9 
           4410      1.13626e+9 
           4430      1.13227e+9 
           4450      1.10956e+9 
           4470      1.08006e+9 
           4490      1.08074e+9 
           4510      1.05326e+9 
           4530      1.04433e+9 
           4550       1.0236e+9 
           4570      1.01578e+9 
           4590      9.95142e+8 
           4610      9.74667e+8 
           4630      9.53506e+8 
           4650      9.01764e+8 
           4670      9.26445e+8 
           4690      9.12926e+8 
           4710      8.94355e+8 
           4730      9.00228e+8 
           4750      8.84949e+8 
           4770      8.80193e+8 
           4790      8.65502e+8 
           4810      8.48696e+8 
           4830       8.3259e+8 
           4850      7.99856e+8 
           4870      7.29413e+8 
           4890      7.95505e+8 
           4910      7.84584e+8 
           4930      7.64483e+8 
           4950      7.58348e+8 
           4970      7.55079e+8 
           4990      7.43243e+8 
           5010      7.13832e+8 
           5030      7.16445e+8 
           5050      7.05316e+8 
           5070      7.00627e+8 
           5090      6.89083e+8 
           5110      6.77871e+8 
           5130      6.65166e+8 
           5150        6.567e+8 
           5170      6.48261e+8 
           5190      6.40337e+8 
           5210      6.31808e+8 
           5230      6.22674e+8 
           5250      6.11241e+8 
           5270      6.01836e+8 
           5290      5.96648e+8 
           5310      5.87873e+8 
           5330      5.80101e+8 
           5350      5.72034e+8 
           5370      5.64057e+8 
           5390      5.55431e+8 
           5410      5.44691e+8 
           5430      5.41299e+8 
           5450      5.33604e+8 
           5470      5.26046e+8 
           5490      5.18757e+8 
           5510      5.12082e+8 
           5530      5.04541e+8 
           5550      4.98918e+8 
           5570      4.91577e+8 
           5590      4.84088e+8 
           5610      4.79086e+8 
           5630      4.72812e+8 
           5650        4.658e+8 
           5670      4.57739e+8 
           5690      4.45206e+8 
           5710      4.38118e+8 
           5730      4.33195e+8 
           5750      4.26164e+8 
           5770      4.22864e+8 
           5790      4.16993e+8 
           5810      4.10823e+8 
           5830      4.05006e+8 
           5850      4.02208e+8 
           5870      3.89774e+8 
           5890       3.9103e+8 
           5910         3.88e+8 
           5930      3.83405e+8 
           5950      3.79384e+8 
           5970      3.77333e+8 
           5990      3.71626e+8 
           6010      3.68551e+8 
           6030      3.62971e+8 
           6050      3.58846e+8 
           6070      3.55054e+8 
           6090      3.50908e+8 
           6110      3.46132e+8 
           6130      3.42202e+8 
           6150      3.36444e+8 
           6170      3.32743e+8 
           6190       3.2975e+8 
           6210      3.26155e+8 
           6230      3.21967e+8 
           6250      3.17547e+8 
           6270      3.14164e+8 
           6290      3.10627e+8 
           6310      3.06125e+8 
           6330      3.03376e+8 
           6350      2.99244e+8 
           6370      2.96319e+8 
           6390      2.92695e+8 
           6410      2.88937e+8 
           6430      2.85958e+8 
           6450      2.82286e+8 
           6470      2.77951e+8 
           6490      2.74935e+8 
           6510      2.71541e+8 
           6530      2.68008e+8 
           6550      2.61605e+8 
           6570      2.36136e+8 
           6590      2.57927e+8 
           6610      2.56748e+8 
           6630       2.5431e+8 
           6650      2.51181e+8 
           6670      2.46061e+8 
           6690       2.4306e+8 
           6710      2.42442e+8 
           6730      2.38907e+8 
           6750      2.37055e+8 
           6770      2.34859e+8 
           6790      2.30847e+8 
           6810      2.29542e+8 
           6830      2.26923e+8 
           6850      2.24556e+8 
           6870      2.21878e+8 
           6890      2.18671e+8 
           6910      2.16287e+8 
           6930      2.15017e+8 
           6950      2.12627e+8 
           6970       2.1033e+8 
           6990      2.07972e+8 
           7010      2.05499e+8 
           7030      2.02875e+8 
           7050      2.00991e+8 
           7070      1.96267e+8 
           7090      1.96998e+8 
           7110      1.93536e+8 
           7130      1.91659e+8 
           7150      1.90743e+8 
           7170      1.88413e+8 
           7190      1.86637e+8 
           7210      1.84806e+8 
           7230      1.80643e+8 
           7250      1.80457e+8 
           7270      1.79017e+8 
           7290      1.75931e+8 
           7310      1.75181e+8 
           7330      1.73364e+8 
           7350      1.71626e+8 
           7370      1.69864e+8 
           7390      1.68146e+8 
           7410      1.66381e+8 
           7430      1.64688e+8 
           7450      1.62896e+8 
           7470       1.6056e+8 
           7490      1.59039e+8 
           7510      1.57946e+8 
           7530      1.56224e+8 
           7550      1.54855e+8 
           7570       1.5323e+8 
           7590      1.51128e+8 
           7610      1.49763e+8 
           7630      1.48513e+8 
           7650       1.4708e+8 
           7670      1.45751e+8 
           7690      1.43936e+8 
           7710      1.42607e+8 
           7730      1.40962e+8 
           7750      1.39979e+8 
           7770      1.38616e+8 
           7790      1.37322e+8 
           7810      1.35946e+8 
           7830      1.34638e+8 
           7850      1.33207e+8 
           7870      1.31686e+8 
           7890      1.30329e+8 
           7910      1.29279e+8 
           7930      1.28017e+8 
           7950      1.26962e+8 
           7970       1.2565e+8 
           7990      1.24526e+8 
           8010      1.23247e+8 
           8030       1.2198e+8 
           8050      1.21002e+8 
           8070      1.19836e+8 
           8090      1.18634e+8 
           8110      1.16755e+8 
           8130      1.16512e+8 
           8150        1.153e+8 
           8170      1.14336e+8 
           8190      1.12587e+8 
           8210      1.10966e+8 
           8230      1.09549e+8 
           8250      1.09201e+8 
           8270      1.07307e+8 
           8290      1.07114e+8 
           8310       1.0631e+8 
           8330       1.0511e+8 
           8350      1.03727e+8 
           8370      1.03124e+8 
           8390       1.0251e+8 
           8410      1.01447e+8 
           8430      1.00622e+8 
           8450        9.926e+7 
           8470       9.8755e+7 
           8490      9.78251e+7 
           8510      9.62942e+7 
           8530      9.61953e+7 
           8550      9.44626e+7 
           8570      9.51199e+7 
           8590      9.23493e+7 
