# Kurucz ODFNEW /NOVER (2003)
# teff = 24000 K (value for the effective temperature for the model. Temperatures are given in K)
# logg = 3 log(cm/s2) (value for Log(G) for the model.)
# meta = -1  (value for the Metallicity for the model.)
# lh = 1.25  (l/Hp where l is the  mixing length of the convective element and Hp is the pressure scale height)
# vtur = 2 km/s (Microturbulence velocity)
# alpha = 0.4  (Alpha)
#
# column 1: WAVELENGTH (ANGSTROM), Wavelength in Angstrom
# column 2: FLUX (ERG/CM2/S/A), Flux in erg/cm2/s/A
          147.2     6.79276e-15 
            151     3.28021e-14 
          155.2     1.71199e-13 
          158.8     6.58806e-13 
            162     2.07729e-12 
            166     8.20052e-12 
          170.3     3.33719e-11 
          173.4     8.79015e-11 
          176.8     2.44321e-10 
          180.2     6.52906e-10 
          181.7     9.95327e-10 
          186.1      3.29648e-9 
            191      1.17053e-8 
          193.9      2.40183e-8 
          198.4      7.01967e-8 
          201.8      1.52761e-7 
            205      3.09936e-7 
          210.5      9.92533e-7 
          216.2      3.10822e-6 
          219.8      6.19218e-6 
            223      1.12059e-5 
          226.8      2.22296e-5 
            230      0.00143684 
            234      0.00337058 
            240      0.00793683 
          246.5       0.0193423 
          252.4       0.0422129 
          256.8       0.0679408 
            260        0.111286 
            264        0.174441 
          268.5        0.295077 
          273.5        0.510483 
          278.5        0.863354 
            284         1.63623 
            290         2.91224 
            296         5.08449 
            301         7.86424 
            308         14.6754 
            318         35.9164 
            328          75.238 
            338         158.594 
            348         312.012 
            357          1288.1 
            366         2530.29 
            375         3945.31 
            385         6714.67 
            395         12138.2 
            405         18703.1 
            414         28132.3 
            422           37964 
            430         52297.9 
            441         78268.6 
            451          111262 
            460          147453 
            470          204310 
            480          274322 
            490          369198 
            500          489613 
            506      3.25443e+6 
            512      1.43556e+7 
            520      1.59469e+7 
            530      1.90323e+7 
            540      1.94101e+7 
            550      2.69265e+7 
            560      3.16136e+7 
            570      3.70224e+7 
            580        3.588e+7 
            590      4.61123e+7 
            600      5.13147e+7 
            610      5.95042e+7 
            620      6.61795e+7 
            630      7.28647e+7 
            640       7.5092e+7 
            650      7.74761e+7 
            658       9.2389e+7 
            665      9.98592e+7 
            675      1.02842e+8 
            685      1.07698e+8 
            695      1.29516e+8 
            705      1.32122e+8 
            716      1.50146e+8 
            726      1.56438e+8 
            735      1.65783e+8 
            745      1.84603e+8 
            755      1.96287e+8 
            765      2.10469e+8 
            775      2.25984e+8 
            785      2.42394e+8 
            795      2.53221e+8 
            805      2.66282e+8 
            815      2.74761e+8 
            825      2.96845e+8 
            835      2.77593e+8 
            845      3.16737e+8 
            855        3.298e+8 
            865      3.48969e+8 
            875       3.7001e+8 
            885      3.94105e+8 
            895      4.12362e+8 
            905      4.20581e+8 
            915      8.68585e+8 
            925      8.61045e+9 
            935     1.43056e+10 
            945     1.91911e+10 
            955     2.04387e+10 
            965     2.19777e+10 
            975      9.03754e+9 
            985     1.94906e+10 
            995      1.8688e+10 
           1005     2.00426e+10 
           1015     2.02164e+10 
           1025     1.54593e+10 
           1035     1.78974e+10 
           1045     2.21141e+10 
           1055     2.09782e+10 
           1065     1.83847e+10 
           1075     2.00823e+10 
           1085     1.86956e+10 
           1095     2.03373e+10 
           1105     1.88386e+10 
           1115     1.85631e+10 
           1125     1.61711e+10 
           1135     1.90756e+10 
           1145      1.7674e+10 
           1155     1.81736e+10 
           1165     1.82219e+10 
           1175     1.35297e+10 
           1185     1.73692e+10 
           1195     1.64357e+10 
           1205      1.2573e+10 
           1215     1.16306e+10 
           1225     1.59335e+10 
           1235     1.65786e+10 
           1245     1.62079e+10 
           1255     1.60357e+10 
           1265     1.59435e+10 
           1275     1.61347e+10 
           1285     1.58166e+10 
           1295     1.29158e+10 
           1305     1.37262e+10 
           1315     1.52544e+10 
           1325     1.46422e+10 
           1335     1.42336e+10 
           1345      1.4181e+10 
           1355     1.42934e+10 
           1365     1.36051e+10 
           1375     1.33731e+10 
           1385     1.32101e+10 
           1395     1.01838e+10 
           1405     1.09233e+10 
           1415     1.24314e+10 
           1425     1.20403e+10 
           1435     1.22487e+10 
           1442     1.23973e+10 
           1447     1.21977e+10 
           1455     1.19216e+10 
           1465     1.15514e+10 
           1475     1.14929e+10 
           1485      1.1352e+10 
           1495     1.11039e+10 
           1505     1.05822e+10 
           1512     1.00775e+10 
           1517     1.02515e+10 
           1525     1.02153e+10 
           1535      9.27504e+9 
           1545      9.18677e+9 
           1555      8.83202e+9 
           1565      9.25233e+9 
           1575      9.51488e+9 
           1585       9.3928e+9 
           1595      9.36365e+9 
           1605      9.00442e+9 
           1615      8.81453e+9 
           1625      8.80054e+9 
           1635      8.96605e+9 
           1645      8.78665e+9 
           1655      8.77652e+9 
           1665      8.67712e+9 
           1672       8.4739e+9 
           1677      8.89578e+9 
           1685      8.65812e+9 
           1695      8.37413e+9 
           1705      8.15851e+9 
           1715      7.86153e+9 
           1725      7.76887e+9 
           1735      7.84627e+9 
           1745      7.72308e+9 
           1755      7.70931e+9 
           1765      7.54856e+9 
           1775      7.29215e+9 
           1785      7.30077e+9 
           1795      7.33494e+9 
           1805      7.33264e+9 
           1815       6.9235e+9 
           1825      6.99782e+9 
           1835      6.87633e+9 
           1845      6.38211e+9 
           1855      6.39461e+9 
           1865      6.47493e+9 
           1875      6.52296e+9 
           1885       6.0152e+9 
           1895      5.66234e+9 
           1905      5.98839e+9 
           1915      5.75661e+9 
           1925      5.53928e+9 
           1935      5.76289e+9 
           1945      5.83324e+9 
           1955      5.37462e+9 
           1967      5.64088e+9 
           1976      5.83574e+9 
           1984      5.49342e+9 
           1995      5.36704e+9 
           2005      5.44492e+9 
           2015      5.45504e+9 
           2025      5.51613e+9 
           2035      5.18305e+9 
           2045      5.17617e+9 
           2055      4.91155e+9 
           2065      4.90924e+9 
           2074      5.12159e+9 
           2078      4.85324e+9 
           2085      4.97462e+9 
           2095      4.78793e+9 
           2105      4.88445e+9 
           2115      4.86549e+9 
           2125      4.89972e+9 
           2135      4.81715e+9 
           2145      4.63667e+9 
           2155       4.7181e+9 
           2165      4.67405e+9 
           2175      4.60377e+9 
           2185      4.53577e+9 
           2195      4.52433e+9 
           2205      4.47315e+9 
           2215      4.42118e+9 
           2225      4.33641e+9 
           2235      4.26654e+9 
           2245      4.26166e+9 
           2255      4.17956e+9 
           2265      4.16066e+9 
           2275      4.11339e+9 
           2285       4.0714e+9 
           2295      3.87235e+9 
           2305      3.96128e+9 
           2315      3.89149e+9 
           2325      3.84749e+9 
           2335      3.77315e+9 
           2345      3.77139e+9 
           2355      3.73576e+9 
           2365      3.69447e+9 
           2375       3.6351e+9 
           2385      3.59488e+9 
           2395      3.54949e+9 
           2405      3.51306e+9 
           2415      3.45645e+9 
           2425      3.43806e+9 
           2435      3.37506e+9 
           2445      3.35053e+9 
           2455      3.32286e+9 
           2465      3.28324e+9 
           2475      3.23739e+9 
           2485      3.18802e+9 
           2495      2.78664e+9 
           2505      3.09571e+9 
           2513      3.02998e+9 
           2518      3.05628e+9 
           2525      3.05183e+9 
           2535      3.02346e+9 
           2545      2.93501e+9 
           2555      2.93603e+9 
           2565      2.90368e+9 
           2575      2.88884e+9 
           2585      2.85475e+9 
           2595      2.82457e+9 
           2605      2.80509e+9 
           2615      2.77062e+9 
           2625      2.74184e+9 
           2635      2.70804e+9 
           2645      2.67829e+9 
           2655      2.64944e+9 
           2665      2.60589e+9 
           2675      2.58244e+9 
           2685      2.56893e+9 
           2695      2.51261e+9 
           2705      2.49911e+9 
           2715      2.47711e+9 
           2725      2.43862e+9 
           2735      2.42102e+9 
           2745      2.39406e+9 
           2755       2.3713e+9 
           2765      2.33334e+9 
           2775      2.32805e+9 
           2785      2.29732e+9 
           2795      2.23182e+9 
           2805      2.23729e+9 
           2815      2.22917e+9 
           2825      2.19298e+9 
           2835      2.15616e+9 
           2845      2.15872e+9 
           2855      2.12939e+9 
           2865       2.1106e+9 
           2875      2.08865e+9 
           2885      2.06944e+9 
           2895      2.04479e+9 
           2910      2.00886e+9 
           2930      1.97016e+9 
           2950      1.91925e+9 
           2970      1.89033e+9 
           2990      1.85046e+9 
           3010      1.80425e+9 
           3030      1.77628e+9 
           3050      1.74342e+9 
           3070      1.71075e+9 
           3090      1.65865e+9 
           3110      1.64163e+9 
           3130      1.60676e+9 
           3150      1.57663e+9 
           3170      1.54543e+9 
           3190       1.5075e+9 
           3210      1.48723e+9 
           3230      1.45598e+9 
           3250      1.43073e+9 
           3270      1.40317e+9 
           3290      1.37524e+9 
           3310      1.35155e+9 
           3330        1.325e+9 
           3350      1.29953e+9 
           3370      1.27609e+9 
           3390      1.25413e+9 
           3410      1.23149e+9 
           3430      1.20423e+9 
           3450       1.1786e+9 
           3470      1.15926e+9 
           3490      1.13847e+9 
           3510      1.12318e+9 
           3530      1.10456e+9 
           3550      1.08456e+9 
           3570       1.0686e+9 
           3590      1.04339e+9 
           3610      1.02637e+9 
           3630      1.00795e+9 
           3640        1.005e+9 
           3650      9.83074e+8 
           3670      9.70039e+8 
           3690      9.40516e+8 
           3710      9.27666e+8 
           3730       9.1807e+8 
           3750      9.76858e+8 
           3770      9.66892e+8 
           3790      9.74601e+8 
           3810      9.95772e+8 
           3830      9.11666e+8 
           3850      9.87642e+8 
           3870      9.66519e+8 
           3890      8.74673e+8 
           3910      9.46573e+8 
           3930      9.20987e+8 
           3950      9.12819e+8 
           3970      8.11547e+8 
           3990      8.83794e+8 
           4010       8.6844e+8 
           4030      8.41076e+8 
           4050      8.44067e+8 
           4070      8.20145e+8 
           4090       7.9469e+8 
           4110      7.33762e+8 
           4130      7.80078e+8 
           4150      7.70936e+8 
           4170      7.63364e+8 
           4190       7.5133e+8 
           4210      7.41552e+8 
           4230      7.29292e+8 
           4250       7.1479e+8 
           4270       6.9968e+8 
           4290      6.91124e+8 
           4310      6.78458e+8 
           4330      6.52996e+8 
           4350      6.07545e+8 
           4370      6.47961e+8 
           4390       6.3476e+8 
           4410      6.29074e+8 
           4430      6.21084e+8 
           4450      6.11975e+8 
           4470      5.91936e+8 
           4490      5.93309e+8 
           4510      5.85965e+8 
           4530      5.77204e+8 
           4550      5.67246e+8 
           4570      5.58233e+8 
           4590      5.49946e+8 
           4610      5.42011e+8 
           4630       5.3458e+8 
           4650       5.1999e+8 
           4670      5.17446e+8 
           4690      5.11056e+8 
           4710      4.97045e+8 
           4730      4.96824e+8 
           4750      4.88792e+8 
           4770      4.83808e+8 
           4790      4.76722e+8 
           4810      4.69216e+8 
           4830      4.61657e+8 
           4850      4.48183e+8 
           4870      4.13535e+8 
           4890      4.43118e+8 
           4910      4.37078e+8 
           4930      4.25448e+8 
           4950      4.23847e+8 
           4970      4.19436e+8 
           4990      4.13493e+8 
           5010      4.02949e+8 
           5030      4.01969e+8 
           5050      3.94523e+8 
           5070      3.91152e+8 
           5090      3.85627e+8 
           5110      3.80364e+8 
           5130      3.74956e+8 
           5150      3.69904e+8 
           5170      3.65004e+8 
           5190       3.6028e+8 
           5210      3.55285e+8 
           5230      3.50741e+8 
           5250      3.46079e+8 
           5270      3.41395e+8 
           5290      3.36947e+8 
           5310       3.3245e+8 
           5330      3.28116e+8 
           5350      3.23746e+8 
           5370       3.1964e+8 
           5390      3.15315e+8 
           5410       3.1125e+8 
           5430      3.07262e+8 
           5450      3.03248e+8 
           5470      2.99373e+8 
           5490       2.9557e+8 
           5510      2.91853e+8 
           5530      2.88082e+8 
           5550      2.84469e+8 
           5570      2.80839e+8 
           5590      2.77314e+8 
           5610      2.73796e+8 
           5630      2.70404e+8 
           5650      2.66841e+8 
           5670      2.63309e+8 
           5690      2.59693e+8 
           5710      2.56999e+8 
           5730      2.53911e+8 
           5750      2.50348e+8 
           5770      2.47778e+8 
           5790      2.44709e+8 
           5810      2.41733e+8 
           5830      2.38703e+8 
           5850      2.35874e+8 
           5870      2.28354e+8 
           5890      2.29879e+8 
           5910      2.27344e+8 
           5930       2.2456e+8 
           5950       2.2185e+8 
           5970      2.19415e+8 
           5990      2.16661e+8 
           6010      2.14199e+8 
           6030       2.1161e+8 
           6050      2.09163e+8 
           6070      2.06754e+8 
           6090      2.04322e+8 
           6110      2.01947e+8 
           6130      1.99599e+8 
           6150      1.97157e+8 
           6170      1.94911e+8 
           6190       1.9273e+8 
           6210      1.90523e+8 
           6230      1.88341e+8 
           6250      1.86144e+8 
           6270      1.84039e+8 
           6290      1.81956e+8 
           6310      1.79849e+8 
           6330      1.77849e+8 
           6350       1.7574e+8 
           6370       1.7384e+8 
           6390      1.71895e+8 
           6410      1.69962e+8 
           6430      1.68087e+8 
           6450      1.66213e+8 
           6470      1.64269e+8 
           6490      1.62462e+8 
           6510      1.60736e+8 
           6530      1.58879e+8 
           6550      1.55636e+8 
           6570      1.42654e+8 
           6590      1.53153e+8 
           6610      1.52081e+8 
           6630      1.50471e+8 
           6650      1.48826e+8 
           6670      1.46351e+8 
           6690      1.44796e+8 
           6710      1.44135e+8 
           6730      1.42464e+8 
           6750      1.41084e+8 
           6770      1.39578e+8 
           6790      1.37948e+8 
           6810       1.3661e+8 
           6830      1.35125e+8 
           6850      1.33743e+8 
           6870      1.32335e+8 
           6890      1.30893e+8 
           6910       1.2949e+8 
           6930       1.2821e+8 
           6950      1.26888e+8 
           6970      1.25572e+8 
           6990       1.2426e+8 
           7010      1.22977e+8 
           7030      1.21707e+8 
           7050      1.20464e+8 
           7070       1.1765e+8 
           7090      1.18007e+8 
           7110      1.16778e+8 
           7130      1.15597e+8 
           7150      1.14436e+8 
           7170      1.13256e+8 
           7190      1.12131e+8 
           7210      1.11002e+8 
           7230      1.09351e+8 
           7250      1.08699e+8 
           7270      1.07695e+8 
           7290      1.05893e+8 
           7310       1.0554e+8 
           7330      1.04502e+8 
           7350      1.03474e+8 
           7370      1.02448e+8 
           7390      1.01439e+8 
           7410      1.00446e+8 
           7430      9.94559e+7 
           7450       9.8495e+7 
           7470      9.74012e+7 
           7490      9.65728e+7 
           7510      9.56116e+7 
           7530      9.47057e+7 
           7550      9.38015e+7 
           7570      9.28989e+7 
           7590       9.1998e+7 
           7610      9.10792e+7 
           7630      9.02464e+7 
           7650      8.93825e+7 
           7670      8.85327e+7 
           7690      8.76842e+7 
           7710      8.68497e+7 
           7730      8.60288e+7 
           7750      8.52153e+7 
           7770      8.43529e+7 
           7790      8.36285e+7 
           7810      8.27931e+7 
           7830      8.20696e+7 
           7850      8.13585e+7 
           7870      8.05684e+7 
           7890      7.97671e+7 
           7910      7.91114e+7 
           7930      7.83354e+7 
           7950      7.75364e+7 
           7970       7.6786e+7 
           7990      7.61306e+7 
           8010      7.53986e+7 
           8030      7.47314e+7 
           8050      7.40873e+7 
           8070      7.34313e+7 
           8090      7.26484e+7 
           8110      7.19068e+7 
           8130      7.14794e+7 
           8150      7.07093e+7 
           8170      7.02111e+7 
           8190      6.94698e+7 
           8210      6.86232e+7 
           8230      6.81566e+7 
           8250      6.75996e+7 
           8270       6.6623e+7 
           8290      6.63129e+7 
           8310      6.57486e+7 
           8330      6.51564e+7 
           8350      6.43367e+7 
           8370      6.38253e+7 
           8390      6.33394e+7 
           8410      6.27349e+7 
           8430      6.21513e+7 
           8450      6.13668e+7 
           8470       6.0715e+7 
           8490      6.08108e+7 
           8510      5.93912e+7 
           8530      6.00088e+7 
           8550      5.76515e+7 
           8570      5.96808e+7 
           8590       5.7218e+7 
