# Kurucz ODFNEW /NOVER (2003)
# teff = 20000 K (value for the effective temperature for the model. Temperatures are given in K)
# logg = 3.5 log(cm/s2) (value for Log(G) for the model.)
# meta = -2.5  (value for the Metallicity for the model.)
# lh = 1.25  (l/Hp where l is the  mixing length of the convective element and Hp is the pressure scale height)
# vtur = 2 km/s (Microturbulence velocity)
# alpha = 0  (Alpha)
#
# column 1: WAVELENGTH (ANGSTROM), Wavelength in Angstrom
# column 2: FLUX (ERG/CM2/S/A), Flux in erg/cm2/s/A
          147.2     1.56973e-20 
            151     1.13088e-19 
          155.2     8.94909e-19 
          158.8     4.82463e-18 
            162     2.02432e-17 
            166     1.12312e-16 
          170.3     6.46473e-16 
          173.4     2.16108e-15 
          176.8     7.72375e-15 
          180.2     2.62731e-14 
          181.7     4.44203e-14 
          186.1     1.97136e-13 
            191     9.53374e-13 
          193.9     2.33079e-12 
          198.4     8.84548e-12 
          201.8     2.32579e-11 
            205     5.60401e-11 
          210.5     2.38092e-10 
          216.2     9.83282e-10 
          219.8      2.31502e-9 
            223      4.83667e-9 
          226.8      1.12788e-8 
            230      2.60321e-8 
            234      6.12024e-8 
            240      1.99948e-7 
          246.5      6.73636e-7 
          252.4      1.92026e-6 
          256.8      4.04383e-6 
            260      6.86918e-6 
            264      1.30285e-5 
          268.5      2.61257e-5 
          273.5       5.5027e-5 
          278.5     0.000112739 
            284     0.000240631 
            290     0.000531498 
            296      0.00113454 
            301      0.00208338 
            308      0.00470237 
            318        0.014135 
            328       0.0395029 
            338        0.103475 
            348        0.255474 
            357        0.550009 
            366         1.13717 
            375          2.2641 
            385         4.67172 
            395         9.26413 
            405         17.7073 
            414         30.8116 
            422         49.3262 
            430         77.4669 
            441         139.942 
            451         233.038 
            460         361.151 
            470           574.9 
            480         895.664 
            490          1367.6 
            500         2049.11 
            506           12776 
            512         37144.9 
            520         48598.7 
            530         74498.3 
            540         83574.2 
            550          126905 
            560          160867 
            570          203705 
            580          209206 
            590          288462 
            600          385310 
            610          472091 
            620          569828 
            630          685013 
            640          810355 
            650          966211 
            658      1.10505e+6 
            665      1.23491e+6 
            675      1.43209e+6 
            685      1.65874e+6 
            695      1.94119e+6 
            705       2.2307e+6 
            716      2.58707e+6 
            726      2.94421e+6 
            735      3.31209e+6 
            745      3.75321e+6 
            755      4.23227e+6 
            765      4.74986e+6 
            775      5.32078e+6 
            785      5.93493e+6 
            795       6.5937e+6 
            805      7.30583e+6 
            815      8.06348e+6 
            825      8.89095e+6 
            835      9.66699e+6 
            845      1.06852e+7 
            855      1.16411e+7 
            865      1.27304e+7 
            875      1.38523e+7 
            885      1.50403e+7 
            895      1.62779e+7 
            905      1.74127e+7 
            915       3.4342e+7 
            925      3.09798e+8 
            935       1.3158e+9 
            945      4.77838e+9 
            955      6.96269e+9 
            965      9.04944e+9 
            975      3.55724e+9 
            985     1.04629e+10 
            995     1.03039e+10 
           1005     1.05922e+10 
           1015      9.48602e+9 
           1025      2.78668e+9 
           1035      8.46848e+9 
           1045      1.0492e+10 
           1055     1.03079e+10 
           1065      9.65252e+9 
           1075       9.9706e+9 
           1085      9.40491e+9 
           1095      9.80293e+9 
           1105      9.40508e+9 
           1115       9.3538e+9 
           1125      8.92393e+9 
           1135      9.08642e+9 
           1145       8.7672e+9 
           1155      8.88489e+9 
           1165      8.76576e+9 
           1175      7.92957e+9 
           1185      8.43749e+9 
           1195      7.81225e+9 
           1205      6.60277e+9 
           1215      1.78822e+9 
           1225      6.39998e+9 
           1235      7.57201e+9 
           1245      7.59158e+9 
           1255      7.46367e+9 
           1265      7.33342e+9 
           1275       7.3551e+9 
           1285      7.23468e+9 
           1295      6.79293e+9 
           1305      6.77351e+9 
           1315      6.89245e+9 
           1325      6.69181e+9 
           1335      6.44037e+9 
           1345      6.54655e+9 
           1355      6.48003e+9 
           1365      6.35085e+9 
           1375      6.24825e+9 
           1385      6.16483e+9 
           1395      5.96739e+9 
           1405      5.91786e+9 
           1415      5.87252e+9 
           1425      5.79762e+9 
           1435      5.71765e+9 
           1442      5.66553e+9 
           1447      5.61889e+9 
           1455      5.54713e+9 
           1465      5.45516e+9 
           1475      5.37521e+9 
           1485      5.28888e+9 
           1495       5.2096e+9 
           1505      5.10833e+9 
           1512      5.04697e+9 
           1517      5.02276e+9 
           1525      4.95594e+9 
           1535      4.82155e+9 
           1545       4.7939e+9 
           1555      4.69271e+9 
           1565      4.67185e+9 
           1575      4.61711e+9 
           1585      4.54989e+9 
           1595       4.4902e+9 
           1605      4.38251e+9 
           1615      4.31772e+9 
           1625      4.28942e+9 
           1635      4.23725e+9 
           1645      4.15234e+9 
           1655      4.11208e+9 
           1665      4.06745e+9 
           1672      3.97161e+9 
           1677      4.00195e+9 
           1685      3.95528e+9 
           1695      3.88947e+9 
           1705      3.82687e+9 
           1715      3.76099e+9 
           1725      3.71421e+9 
           1735       3.6724e+9 
           1745      3.61633e+9 
           1755      3.58122e+9 
           1765      3.47751e+9 
           1775       3.4669e+9 
           1785      3.43017e+9 
           1795      3.39054e+9 
           1805      3.34949e+9 
           1815       3.2945e+9 
           1825      3.25533e+9 
           1835      3.21166e+9 
           1845      3.13931e+9 
           1855       3.0575e+9 
           1865      3.03574e+9 
           1875      3.03677e+9 
           1885      2.95512e+9 
           1895      2.88708e+9 
           1905      2.90461e+9 
           1915      2.82853e+9 
           1925       2.7917e+9 
           1935      2.77992e+9 
           1945      2.76476e+9 
           1955      2.68756e+9 
           1967      2.68855e+9 
           1976      2.67232e+9 
           1984      2.62296e+9 
           1995      2.56127e+9 
           2005      2.56671e+9 
           2015      2.54594e+9 
           2025      2.52067e+9 
           2035      2.47895e+9 
           2045       2.4481e+9 
           2055      2.39275e+9 
           2065      2.37184e+9 
           2074      2.37626e+9 
           2078       2.3324e+9 
           2085      2.33227e+9 
           2095      2.28938e+9 
           2105      2.27856e+9 
           2115      2.25647e+9 
           2125      2.23495e+9 
           2135      2.20679e+9 
           2145      2.17644e+9 
           2155      2.15491e+9 
           2165      2.12942e+9 
           2175      2.10343e+9 
           2185      2.08028e+9 
           2195       2.0573e+9 
           2205      2.03256e+9 
           2215      2.00888e+9 
           2225      1.98431e+9 
           2235       1.9623e+9 
           2245      1.94089e+9 
           2255       1.9175e+9 
           2265        1.897e+9 
           2275      1.87519e+9 
           2285      1.85485e+9 
           2295      1.82549e+9 
           2305       1.8128e+9 
           2315      1.79127e+9 
           2325      1.77192e+9 
           2335       1.7498e+9 
           2345      1.72771e+9 
           2355      1.71328e+9 
           2365      1.69215e+9 
           2375      1.67492e+9 
           2385      1.65303e+9 
           2395       1.6363e+9 
           2405      1.61927e+9 
           2415      1.60097e+9 
           2425      1.58664e+9 
           2435      1.56856e+9 
           2445      1.55178e+9 
           2455      1.53616e+9 
           2465      1.51883e+9 
           2475      1.50307e+9 
           2485      1.48691e+9 
           2495      1.46237e+9 
           2505      1.45558e+9 
           2513      1.43977e+9 
           2518      1.43548e+9 
           2525       1.4244e+9 
           2535      1.40849e+9 
           2545      1.39349e+9 
           2555      1.38128e+9 
           2565      1.36589e+9 
           2575      1.35309e+9 
           2585      1.33886e+9 
           2595      1.32481e+9 
           2605      1.32127e+9 
           2615      1.30843e+9 
           2625      1.29454e+9 
           2635      1.27746e+9 
           2645      1.26701e+9 
           2655      1.25257e+9 
           2665      1.23826e+9 
           2675      1.22559e+9 
           2685      1.22024e+9 
           2695       1.1999e+9 
           2705      1.19583e+9 
           2715      1.18366e+9 
           2725      1.16327e+9 
           2735      1.16032e+9 
           2745      1.14598e+9 
           2755       1.1352e+9 
           2765       1.1172e+9 
           2775      1.11537e+9 
           2785      1.10427e+9 
           2795      1.08432e+9 
           2805      1.07924e+9 
           2815      1.07249e+9 
           2825      1.05245e+9 
           2835      1.04686e+9 
           2845      1.04152e+9 
           2855      1.03165e+9 
           2865      1.02184e+9 
           2875      1.01201e+9 
           2885      1.00238e+9 
           2895      9.92907e+8 
           2910      9.78827e+8 
           2930      9.60287e+8 
           2950      9.36878e+8 
           2970      9.25028e+8 
           2990      9.07849e+8 
           3010       8.9125e+8 
           3030      8.75051e+8 
           3050      8.59117e+8 
           3070      8.43603e+8 
           3090      8.28378e+8 
           3110       8.1359e+8 
           3130      8.00034e+8 
           3150      7.85769e+8 
           3170      7.71611e+8 
           3190      7.52711e+8 
           3210      7.44787e+8 
           3230      7.31764e+8 
           3250      7.19005e+8 
           3270      7.07348e+8 
           3290      6.94423e+8 
           3310      6.83443e+8 
           3330      6.71861e+8 
           3350      6.59499e+8 
           3370      6.49439e+8 
           3390      6.38618e+8 
           3410      6.27974e+8 
           3430      6.15389e+8 
           3450      6.03463e+8 
           3470      5.95119e+8 
           3490      5.85534e+8 
           3510      5.78483e+8 
           3530      5.69528e+8 
           3550      5.60528e+8 
           3570      5.53556e+8 
           3590      5.42348e+8 
           3610      5.34419e+8 
           3630      5.25201e+8 
           3640      5.23655e+8 
           3650      5.19178e+8 
           3670      5.12836e+8 
           3690      4.96833e+8 
           3710      4.89876e+8 
           3730      4.85828e+8 
           3750      5.45919e+8 
           3770      5.54403e+8 
           3790      5.84184e+8 
           3810      6.12661e+8 
           3830      5.32417e+8 
           3850      6.30242e+8 
           3870      6.30536e+8 
           3890      5.07008e+8 
           3910      6.20387e+8 
           3930      6.09869e+8 
           3950       6.0098e+8 
           3970      4.71769e+8 
           3990      5.78603e+8 
           4010      5.72236e+8 
           4030       5.4349e+8 
           4050      5.59794e+8 
           4070      5.48802e+8 
           4090      5.11559e+8 
           4110      4.43656e+8 
           4130      5.16496e+8 
           4150      5.11245e+8 
           4170      5.06353e+8 
           4190      4.99857e+8 
           4210      4.91973e+8 
           4230      4.84216e+8 
           4250      4.76603e+8 
           4270      4.68802e+8 
           4290      4.61841e+8 
           4310      4.52799e+8 
           4330      4.14467e+8 
           4350      3.76222e+8 
           4370      4.31553e+8 
           4390      4.17289e+8 
           4410      4.20893e+8 
           4430      4.12629e+8 
           4450        4.083e+8 
           4470      3.87365e+8 
           4490      3.95919e+8 
           4510      3.90248e+8 
           4530      3.84442e+8 
           4550      3.78722e+8 
           4570      3.73142e+8 
           4590       3.6768e+8 
           4610       3.6228e+8 
           4630      3.56996e+8 
           4650      3.51771e+8 
           4670      3.46709e+8 
           4690      3.41703e+8 
           4710      3.32829e+8 
           4730      3.31907e+8 
           4750      3.27097e+8 
           4770      3.22588e+8 
           4790      3.18012e+8 
           4810      3.13451e+8 
           4830       3.0768e+8 
           4850      2.86329e+8 
           4870       2.5423e+8 
           4890      2.94189e+8 
           4910      2.91703e+8 
           4930      2.82273e+8 
           4950       2.8421e+8 
           4970       2.8031e+8 
           4990      2.76479e+8 
           5010      2.69683e+8 
           5030      2.69002e+8 
           5050      2.63788e+8 
           5070      2.61784e+8 
           5090      2.58263e+8 
           5110      2.54802e+8 
           5130      2.51402e+8 
           5150      2.48047e+8 
           5170      2.44764e+8 
           5190      2.41525e+8 
           5210      2.38328e+8 
           5230      2.35214e+8 
           5250      2.32127e+8 
           5270      2.29093e+8 
           5290      2.26126e+8 
           5310      2.23183e+8 
           5330      2.20304e+8 
           5350      2.17463e+8 
           5370      2.14683e+8 
           5390      2.11926e+8 
           5410      2.09229e+8 
           5430      2.06566e+8 
           5450      2.03949e+8 
           5470      2.01378e+8 
           5490      1.98838e+8 
           5510      1.96343e+8 
           5530       1.9389e+8 
           5550      1.91468e+8 
           5570      1.89088e+8 
           5590      1.86749e+8 
           5610      1.84438e+8 
           5630      1.82167e+8 
           5650      1.79924e+8 
           5670      1.77731e+8 
           5690      1.75553e+8 
           5710      1.73436e+8 
           5730      1.71332e+8 
           5750      1.69253e+8 
           5770      1.67222e+8 
           5790      1.65215e+8 
           5810      1.63231e+8 
           5830      1.61282e+8 
           5850      1.59366e+8 
           5870      1.53307e+8 
           5890      1.55515e+8 
           5910      1.53785e+8 
           5930      1.51978e+8 
           5950      1.50192e+8 
           5970      1.48437e+8 
           5990      1.46701e+8 
           6010      1.45007e+8 
           6030      1.43321e+8 
           6050      1.41665e+8 
           6070      1.40038e+8 
           6090      1.38429e+8 
           6110      1.36848e+8 
           6130      1.35285e+8 
           6150      1.33749e+8 
           6170       1.3223e+8 
           6190      1.30728e+8 
           6210      1.29262e+8 
           6230      1.27803e+8 
           6250      1.26369e+8 
           6270       1.2496e+8 
           6290      1.23567e+8 
           6310      1.22189e+8 
           6330      1.20835e+8 
           6350      1.19486e+8 
           6370       1.1818e+8 
           6390      1.16879e+8 
           6410        1.156e+8 
           6430      1.14336e+8 
           6450      1.13094e+8 
           6470      1.11855e+8 
           6490      1.10648e+8 
           6510      1.09445e+8 
           6530      1.07875e+8 
           6550      1.03546e+8 
           6570      9.17803e+7 
           6590      1.03967e+8 
           6610      1.03589e+8 
           6630      1.02605e+8 
           6650      1.01589e+8 
           6670      9.96846e+7 
           6690      9.86518e+7 
           6710      9.83993e+7 
           6730      9.73745e+7 
           6750      9.63518e+7 
           6770      9.53477e+7 
           6790      9.43537e+7 
           6810      9.33698e+7 
           6830      9.24039e+7 
           6850      9.14476e+7 
           6870      9.05088e+7 
           6890      8.95794e+7 
           6910      8.86592e+7 
           6930      8.77481e+7 
           6950      8.68617e+7 
           6970      8.59762e+7 
           6990      8.50993e+7 
           7010      8.42465e+7 
           7030      8.33943e+7 
           7050       8.2558e+7 
           7070      8.05163e+7 
           7090      8.09096e+7 
           7110      8.00973e+7 
           7130      7.93003e+7 
           7150      7.85109e+7 
           7170      7.77218e+7 
           7190      7.69694e+7 
           7210      7.62096e+7 
           7230      7.54354e+7 
           7250      7.47187e+7 
           7270      7.39875e+7 
           7290      7.27243e+7 
           7310      7.25384e+7 
           7330      7.18486e+7 
           7350      7.11513e+7 
           7370      7.04605e+7 
           7390       6.9783e+7 
           7410      6.91118e+7 
           7430      6.84468e+7 
           7450      6.78021e+7 
           7470       6.7154e+7 
           7490      6.65144e+7 
           7510      6.58594e+7 
           7530      6.52575e+7 
           7550      6.46406e+7 
           7570      6.40306e+7 
           7590      6.34275e+7 
           7610      6.28317e+7 
           7630      6.22433e+7 
           7650      6.16614e+7 
           7670      6.10866e+7 
           7690      6.05177e+7 
           7710      5.99557e+7 
           7730      5.94018e+7 
           7750      5.88485e+7 
           7770      5.83057e+7 
           7790      5.77751e+7 
           7810       5.7206e+7 
           7830      5.67218e+7 
           7850       5.6262e+7 
           7870      5.57465e+7 
           7890      5.52131e+7 
           7910      5.47421e+7 
           7930      5.42465e+7 
           7950      5.37128e+7 
           7970       5.3147e+7 
           7990       5.2686e+7 
           8010      5.22071e+7 
           8030       5.1761e+7 
           8050      5.13164e+7 
           8070      5.08778e+7 
           8090      5.03468e+7 
           8110       4.9939e+7 
           8130      4.95545e+7 
           8150      4.90342e+7 
           8170      4.86974e+7 
           8190      4.82234e+7 
           8210      4.77216e+7 
           8230       4.7446e+7 
           8250      4.70457e+7 
           8270      4.64202e+7 
           8290      4.61839e+7 
           8310      4.58004e+7 
           8330      4.53966e+7 
           8350      4.48044e+7 
           8370      4.45045e+7 
           8390      4.41658e+7 
           8410      4.37397e+7 
           8430      4.32992e+7 
           8450      4.27441e+7 
           8470      4.22594e+7 
           8490      4.23245e+7 
           8510      4.12904e+7 
           8530      4.18596e+7 
           8550      3.98273e+7 
           8570      4.18842e+7 
