# Kurucz ODFNEW /NOVER (2003)
# teff = 8750 K (value for the effective temperature for the model. Temperatures are given in K)
# logg = 4.5 log(cm/s2) (value for Log(G) for the model.)
# meta = -2  (value for the Metallicity for the model.)
# lh = 1.25  (l/Hp where l is the  mixing length of the convective element and Hp is the pressure scale height)
# vtur = 2 km/s (Microturbulence velocity)
# alpha = 0.4  (Alpha)
#
# column 1: WAVELENGTH (ANGSTROM), Wavelength in Angstrom
# column 2: FLUX (ERG/CM2/S/A), Flux in erg/cm2/s/A
          273.5     3.06088e-23 
          278.5     1.68027e-22 
            284     8.17113e-22 
            290      4.1692e-21 
            296      1.9813e-20 
            301     6.91536e-20 
            308     3.70888e-19 
            318     3.58002e-18 
            328     2.99677e-17 
            338     2.20295e-16 
            348     1.43843e-15 
            357     7.09303e-15 
            366     3.22434e-14 
            375     1.35917e-13 
            385     6.19288e-13 
            395     2.60481e-12 
            405     1.01757e-11 
            414     3.27063e-11 
            422     8.83881e-11 
            430     2.29787e-10 
            441     8.05582e-10 
            451      2.38335e-9 
            460      6.06381e-9 
            470      1.63762e-8 
            480      4.23395e-8 
            490      1.05083e-7 
            500      2.50977e-7 
            506      4.16448e-7 
            512      6.81304e-7 
            520        1.289e-6 
            530       2.7794e-6 
            540      5.81476e-6 
            550      1.18236e-5 
            560      2.34026e-5 
            570       4.5153e-5 
            580      8.50407e-5 
            590     0.000156536 
            600     0.000281951 
            610     0.000497453 
            620     0.000860607 
            630      0.00146136 
            640       0.0024377 
            650      0.00399797 
            658      0.00587042 
            665      0.00814863 
            675       0.0128532 
            685       0.0199844 
            695       0.0306469 
            705       0.0463854 
            716       0.0721226 
            726        0.106377 
            735        0.149443 
            745        0.215758 
            755        0.308191 
            765        0.435776 
            775        0.610175 
            785        0.846354 
            795         1.16346 
            805         1.58552 
            815         2.14266 
            825         2.87241 
            835         3.82092 
            845         5.04494 
            855         6.61341 
            865          8.6093 
            875         11.1332 
            885         14.3039 
            895          18.264 
            905         23.1803 
            915         42.3497 
            925         172.473 
            935         316.095 
            945         623.084 
            955         975.628 
            965         1344.41 
            975         948.932 
            985         2383.48 
            995          3046.1 
           1005         3529.08 
           1015         3158.02 
           1025         1776.75 
           1035         4193.09 
           1045         6536.04 
           1055         7993.05 
           1065          9679.1 
           1075         11955.9 
           1085         15417.7 
           1095         17861.1 
           1105         42065.7 
           1115          239200 
           1125          230739 
           1135          219874 
           1145          106402 
           1155         52314.7 
           1165         40148.2 
           1175         35972.3 
           1185         39306.1 
           1195         24858.7 
           1205         17790.3 
           1215         7087.61 
           1225         19688.5 
           1235         37635.3 
           1245         48252.2 
           1255         69453.5 
           1265         91831.4 
           1275          146808 
           1285          503736 
           1295      1.00145e+6 
           1305      1.87877e+6 
           1315      3.14046e+6 
           1325      4.74424e+6 
           1335      6.50632e+6 
           1345      8.53408e+6 
           1355      9.36619e+6 
           1365      1.06962e+7 
           1375       9.3669e+6 
           1385      7.21829e+6 
           1395       6.4682e+6 
           1405      1.24081e+7 
           1415      2.23867e+7 
           1425      2.44669e+7 
           1435      2.41874e+7 
           1442      2.80713e+7 
           1447      2.60496e+7 
           1455      2.94903e+7 
           1465      2.68545e+7 
           1475      2.80258e+7 
           1485      2.86917e+7 
           1495       2.9457e+7 
           1505       3.0968e+7 
           1512      3.08302e+7 
           1517      2.80588e+7 
           1525      2.80179e+7 
           1535       2.7371e+7 
           1545      2.58863e+7 
           1555      2.24758e+7 
           1565      1.70213e+7 
           1575      1.88515e+7 
           1585      1.80205e+7 
           1595      1.71703e+7 
           1605      1.69907e+7 
           1615      2.27549e+7 
           1625      2.84235e+7 
           1635      3.56602e+7 
           1645      4.57083e+7 
           1655      4.24687e+7 
           1665      5.27487e+7 
           1672      4.96546e+7 
           1677      5.33722e+7 
           1685      5.62741e+7 
           1695       5.3375e+7 
           1705      5.43694e+7 
           1715      5.75375e+7 
           1725      5.68495e+7 
           1735      5.88105e+7 
           1745      5.72723e+7 
           1755      5.89613e+7 
           1765      5.49852e+7 
           1775      5.80012e+7 
           1785      5.75707e+7 
           1795      5.94321e+7 
           1805      5.74121e+7 
           1815      5.72306e+7 
           1825      5.60984e+7 
           1835      5.67943e+7 
           1845      5.39647e+7 
           1855       5.5943e+7 
           1865      5.66346e+7 
           1875      5.66119e+7 
           1885      5.66066e+7 
           1895      5.63842e+7 
           1905      5.47785e+7 
           1915      5.58639e+7 
           1925      5.65202e+7 
           1935      5.49495e+7 
           1945      5.67072e+7 
           1955      5.64243e+7 
           1967      5.64906e+7 
           1976      5.49699e+7 
           1984      5.46327e+7 
           1995      5.50391e+7 
           2005      5.39141e+7 
           2015      5.31911e+7 
           2025      5.26211e+7 
           2035      5.40647e+7 
           2045      5.39967e+7 
           2055      5.23323e+7 
           2065      5.26413e+7 
           2074        5.369e+7 
           2078      5.39084e+7 
           2085      5.34812e+7 
           2095      5.29392e+7 
           2105       5.2599e+7 
           2115      5.24649e+7 
           2125      5.22609e+7 
           2135      5.06807e+7 
           2145      5.22776e+7 
           2155      5.16045e+7 
           2165      5.02536e+7 
           2175      5.03962e+7 
           2185      5.05744e+7 
           2195      5.16284e+7 
           2205      5.02895e+7 
           2215      4.82093e+7 
           2225      4.88104e+7 
           2235       5.0809e+7 
           2245      4.95105e+7 
           2255      4.81433e+7 
           2265      4.74644e+7 
           2275      4.90694e+7 
           2285      4.94042e+7 
           2295      4.80784e+7 
           2305       4.8408e+7 
           2315      4.79268e+7 
           2325      4.79754e+7 
           2335      4.74257e+7 
           2345      4.49977e+7 
           2355       4.7237e+7 
           2365      4.52549e+7 
           2375      4.64508e+7 
           2385      4.36911e+7 
           2395      4.58864e+7 
           2405      4.53194e+7 
           2415      4.54545e+7 
           2425      4.63392e+7 
           2435      4.50552e+7 
           2445      4.57966e+7 
           2455       4.5618e+7 
           2465      4.46361e+7 
           2475      4.40018e+7 
           2485      4.46574e+7 
           2495      4.38638e+7 
           2505      4.53863e+7 
           2513      4.39202e+7 
           2518      4.34684e+7 
           2525      4.22941e+7 
           2535      4.21733e+7 
           2545      4.24143e+7 
           2555      4.39458e+7 
           2565      4.37081e+7 
           2575      4.45777e+7 
           2585      4.48136e+7 
           2595      4.44846e+7 
           2605      4.37179e+7 
           2615       4.3458e+7 
           2625      4.35971e+7 
           2635      4.37796e+7 
           2645      4.56592e+7 
           2655      4.54008e+7 
           2665      4.42083e+7 
           2675      4.46234e+7 
           2685       4.4971e+7 
           2695      4.42628e+7 
           2705      4.42291e+7 
           2715      4.32615e+7 
           2725      4.32236e+7 
           2735      4.37653e+7 
           2745      4.16061e+7 
           2755      4.17493e+7 
           2765      4.26423e+7 
           2775      4.34192e+7 
           2785      4.28583e+7 
           2795       3.8088e+7 
           2805       4.0414e+7 
           2815      4.36573e+7 
           2825      4.34413e+7 
           2835      4.27506e+7 
           2845      4.23617e+7 
           2855       4.1472e+7 
           2865      4.21092e+7 
           2875      4.20355e+7 
           2885      4.21918e+7 
           2895      4.25234e+7 
           2910      4.28674e+7 
           2930      4.19967e+7 
           2950       4.1766e+7 
           2970      4.17367e+7 
           2990       4.1535e+7 
           3010      4.16103e+7 
           3030      4.14567e+7 
           3050      4.12347e+7 
           3070      4.07791e+7 
           3090      4.07777e+7 
           3110      4.06172e+7 
           3130      4.03651e+7 
           3150      4.01503e+7 
           3170      4.00352e+7 
           3190      3.93829e+7 
           3210      3.95006e+7 
           3230      3.90021e+7 
           3250       3.9105e+7 
           3270      3.91671e+7 
           3290      3.90891e+7 
           3310      3.89449e+7 
           3330       3.8492e+7 
           3350      3.81009e+7 
           3370      3.80382e+7 
           3390      3.78365e+7 
           3410      3.79318e+7 
           3430      3.77469e+7 
           3450      3.75289e+7 
           3470      3.73416e+7 
           3490      3.71994e+7 
           3510      3.70641e+7 
           3530      3.69114e+7 
           3550      3.67507e+7 
           3570      3.64672e+7 
           3590      3.63017e+7 
           3610       3.6129e+7 
           3630      3.59693e+7 
           3640      3.58714e+7 
           3650      3.59862e+7 
           3670      3.59223e+7 
           3690      3.48312e+7 
           3710      3.48645e+7 
           3730      3.45755e+7 
           3750      4.17677e+7 
           3770      4.37988e+7 
           3790      5.25172e+7 
           3810      6.16995e+7 
           3830      4.97541e+7 
           3850      6.92791e+7 
           3870      7.93207e+7 
           3890      4.37075e+7 
           3910      7.99362e+7 
           3930      8.88326e+7 
           3950      7.99335e+7 
           3970      4.23868e+7 
           3990      7.56317e+7 
           4010      9.06418e+7 
           4030      9.28225e+7 
           4050      9.10834e+7 
           4070      8.42342e+7 
           4090      6.06169e+7 
           4110      4.64151e+7 
           4130      7.84075e+7 
           4150      8.57208e+7 
           4170      8.69457e+7 
           4190      8.66584e+7 
           4210      8.58455e+7 
           4230      8.45535e+7 
           4250      8.35489e+7 
           4270      8.18321e+7 
           4290       7.9157e+7 
           4310      7.24332e+7 
           4330      5.10775e+7 
           4350      4.36188e+7 
           4370      6.87179e+7 
           4390      7.42664e+7 
           4410      7.54075e+7 
           4430      7.53347e+7 
           4450      7.47847e+7 
           4470      7.41056e+7 
           4490      7.30283e+7 
           4510       7.2584e+7 
           4530       7.1759e+7 
           4550      7.09767e+7 
           4570      7.03135e+7 
           4590      6.95001e+7 
           4610      6.88079e+7 
           4630      6.79828e+7 
           4650      6.72058e+7 
           4670      6.64069e+7 
           4690      6.55865e+7 
           4710      6.45926e+7 
           4730      6.40509e+7 
           4750      6.32037e+7 
           4770      6.22311e+7 
           4790      6.09851e+7 
           4810      5.89744e+7 
           4830      5.44887e+7 
           4850      4.09634e+7 
           4870      3.35257e+7 
           4890      5.09115e+7 
           4910      5.53903e+7 
           4930      5.63213e+7 
           4950      5.64129e+7 
           4970       5.6123e+7 
           4990      5.56604e+7 
           5010      5.50968e+7 
           5030      5.46357e+7 
           5050      5.41329e+7 
           5070      5.36363e+7 
           5090      5.30819e+7 
           5110      5.25373e+7 
           5130      5.19882e+7 
           5150      5.14503e+7 
           5170      5.05921e+7 
           5190      5.02183e+7 
           5210       4.9882e+7 
           5230      4.93387e+7 
           5250      4.88938e+7 
           5270      4.83281e+7 
           5290      4.79068e+7 
           5310      4.74103e+7 
           5330      4.69054e+7 
           5350      4.64803e+7 
           5370      4.60028e+7 
           5390      4.55492e+7 
           5410       4.5083e+7 
           5430      4.46506e+7 
           5450      4.42144e+7 
           5470      4.37834e+7 
           5490       4.3355e+7 
           5510      4.29341e+7 
           5530      4.25046e+7 
           5550      4.21047e+7 
           5570      4.16911e+7 
           5590      4.12764e+7 
           5610      4.08868e+7 
           5630      4.05006e+7 
           5650      4.01105e+7 
           5670      3.97238e+7 
           5690      3.93461e+7 
           5710      3.89704e+7 
           5730      3.86036e+7 
           5750      3.82341e+7 
           5770      3.78745e+7 
           5790      3.75178e+7 
           5810      3.71639e+7 
           5830      3.68152e+7 
           5850      3.64692e+7 
           5870      3.61216e+7 
           5890      3.57421e+7 
           5910      3.54617e+7 
           5930      3.51329e+7 
           5950      3.48067e+7 
           5970      3.44872e+7 
           5990       3.4168e+7 
           6010      3.38555e+7 
           6030      3.35463e+7 
           6050      3.32405e+7 
           6070        3.294e+7 
           6090      3.26407e+7 
           6110      3.23446e+7 
           6130      3.20457e+7 
           6150       3.1749e+7 
           6170      3.14653e+7 
           6190      3.11954e+7 
           6210      3.09157e+7 
           6230      3.06369e+7 
           6250      3.03573e+7 
           6270      3.00978e+7 
           6290      2.98305e+7 
           6310      2.95641e+7 
           6330      2.93033e+7 
           6350      2.90256e+7 
           6370      2.87786e+7 
           6390      2.84908e+7 
           6410      2.82088e+7 
           6430      2.79352e+7 
           6450        2.763e+7 
           6470      2.73118e+7 
           6490      2.69041e+7 
           6510      2.62919e+7 
           6530      2.50205e+7 
           6550      2.12651e+7 
           6570      1.73148e+7 
           6590      2.33681e+7 
           6610      2.48824e+7 
           6630      2.52279e+7 
           6650       2.5234e+7 
           6670      2.51227e+7 
           6690      2.49651e+7 
           6710      2.47856e+7 
           6730      2.46044e+7 
           6750       2.4434e+7 
           6770      2.42356e+7 
           6790      2.40325e+7 
           6810      2.38315e+7 
           6830      2.36315e+7 
           6850      2.34359e+7 
           6870      2.32414e+7 
           6890      2.30488e+7 
           6910      2.28579e+7 
           6930      2.26697e+7 
           6950      2.24833e+7 
           6970      2.22986e+7 
           6990      2.21157e+7 
           7010      2.19321e+7 
           7030      2.17542e+7 
           7050      2.15779e+7 
           7070      2.14024e+7 
           7090      2.12286e+7 
           7110       2.1049e+7 
           7130      2.08852e+7 
           7150      2.07162e+7 
           7170      2.05502e+7 
           7190       2.0385e+7 
           7210      2.02213e+7 
           7230      2.00606e+7 
           7250      1.98999e+7 
           7270      1.97421e+7 
           7290      1.95836e+7 
           7310      1.94293e+7 
           7330      1.92751e+7 
           7350      1.91236e+7 
           7370      1.89728e+7 
           7390      1.88233e+7 
           7410      1.86731e+7 
           7430       1.8527e+7 
           7450      1.83829e+7 
           7470       1.8238e+7 
           7490      1.80957e+7 
           7510      1.79567e+7 
           7530      1.78176e+7 
           7550      1.76797e+7 
           7570       1.7543e+7 
           7590      1.74076e+7 
           7610      1.72732e+7 
           7630      1.71407e+7 
           7650      1.70087e+7 
           7670      1.68779e+7 
           7690      1.67488e+7 
           7710      1.66208e+7 
           7730      1.64952e+7 
           7750      1.63694e+7 
           7770      1.61648e+7 
           7790      1.61229e+7 
           7810      1.60009e+7 
           7830      1.58799e+7 
           7850      1.57594e+7 
           7870      1.56374e+7 
           7890      1.55177e+7 
           7910       1.5408e+7 
           7930      1.52915e+7 
           7950      1.51759e+7 
           7970       1.5066e+7 
           7990       1.4947e+7 
           8010      1.48431e+7 
           8030       1.4733e+7 
           8050      1.46239e+7 
           8070      1.45162e+7 
           8090      1.44094e+7 
           8110      1.43035e+7 
           8130      1.41984e+7 
           8150      1.40948e+7 
           8170      1.39914e+7 
           8190      1.38833e+7 
           8210      1.38062e+7 
           8230      1.37109e+7 
           8250      1.36151e+7 
           8270      1.35339e+7 
           8290       1.3444e+7 
           8310      1.33538e+7 
           8330      1.32566e+7 
           8350      1.31732e+7 
           8370      1.30786e+7 
           8390      1.29788e+7 
           8410      1.28777e+7 
           8430       1.2778e+7 
           8450      1.26706e+7 
           8470      1.24975e+7 
           8490      1.25249e+7 
           8510      1.21508e+7 
           8530      1.23901e+7 
           8550      1.16679e+7 
           8570      1.23434e+7 
           8590      1.17081e+7 
           8610      1.14916e+7 
           8630      1.22741e+7 
           8650       1.1803e+7 
           8670      1.02972e+7 
           8690      1.19535e+7 
           8710      1.22483e+7 
           8730      1.17429e+7 
           8750      9.59556e+6 
           8770      1.11775e+7 
           8790      1.20692e+7 
           8810      1.21761e+7 
           8830      1.18437e+7 
           8850      1.05276e+7 
           8870       9.0681e+6 
           8890      1.11762e+7 
           8910      1.18047e+7 
           8930      1.19531e+7 
           8950      1.18998e+7 
           8970      1.16103e+7 
           8990      1.08935e+7 
           9010      8.78849e+6 
           9030       9.5207e+6 
           9050      1.09193e+7 
           9070      1.13182e+7 
           9090      1.14097e+7 
           9110      1.14478e+7 
           9130      1.13922e+7 
           9150      1.12687e+7 
           9170      1.10574e+7 
           9190      1.06578e+7 
