# Kurucz ODFNEW /NOVER (2003)
# teff = 30000 K (value for the effective temperature for the model. Temperatures are given in K)
# logg = 4 log(cm/s2) (value for Log(G) for the model.)
# meta = 0.5  (value for the Metallicity for the model.)
# lh = 1.25  (l/Hp where l is the  mixing length of the convective element and Hp is the pressure scale height)
# vtur = 2 km/s (Microturbulence velocity)
# alpha = 0  (Alpha)
#
# column 1: WAVELENGTH (ANGSTROM), Wavelength in Angstrom
# column 2: FLUX (ERG/CM2/S/A), Flux in erg/cm2/s/A
          147.2      7.25994e-9 
            151      2.28275e-8 
          155.2      7.60339e-8 
          158.8      2.03144e-7 
            162      4.70165e-7 
            166      1.28435e-6 
          170.3      3.57867e-6 
          173.4      7.30779e-6 
          176.8      1.54955e-5 
          180.2      3.19173e-5 
          181.7      4.36159e-5 
          186.1     0.000105404 
            191     0.000269187 
          193.9     0.000458281 
          198.4      0.00101574 
          201.8      0.00180893 
            205      0.00305955 
          210.5      0.00729436 
          216.2       0.0170712 
          219.8        0.028696 
            223       0.0448084 
          226.8       0.0785563 
            230         8.03951 
            234         16.9699 
            240         31.1116 
          246.5         60.2701 
          252.4         108.508 
          256.8         161.937 
            260         278.072 
            264         443.837 
          268.5         688.637 
          273.5         1028.87 
          278.5          1453.2 
            284         3339.45 
            290          5189.1 
            296          7573.2 
            301         10856.8 
            308         28313.9 
            318         60869.6 
            328         98349.4 
            338          183197 
            348          305159 
            357      1.06951e+6 
            366      2.52118e+6 
            375      3.20377e+6 
            385       5.0705e+6 
            395      1.21017e+7 
            405      1.55993e+7 
            414      2.34439e+7 
            422      2.85545e+7 
            430      3.61856e+7 
            441       4.7058e+7 
            451      5.30123e+7 
            460       5.8434e+7 
            470      7.57347e+7 
            480      9.38684e+7 
            490      1.08942e+8 
            500      1.32226e+8 
            506       2.3507e+8 
            512      2.21933e+9 
            520       2.1407e+9 
            530      1.95312e+9 
            540      1.85742e+9 
            550      2.44183e+9 
            560      3.28461e+9 
            570      3.52774e+9 
            580      3.18809e+9 
            590      3.52985e+9 
            600      2.67635e+9 
            610      3.60176e+9 
            620      4.32945e+9 
            630      4.11953e+9 
            640       3.6641e+9 
            650      2.96872e+9 
            658       2.8981e+9 
            665      3.89222e+9 
            675      4.59922e+9 
            685      3.48095e+9 
            695      5.36925e+9 
            705      4.04338e+9 
            716      5.97543e+9 
            726      5.72618e+9 
            735      5.79712e+9 
            745       5.6517e+9 
            755      5.75221e+9 
            765      5.98396e+9 
            775      6.39335e+9 
            785      6.72852e+9 
            795      6.75523e+9 
            805      6.38729e+9 
            815      6.28369e+9 
            825      6.92767e+9 
            835      5.07248e+9 
            845      6.50284e+9 
            855      6.37738e+9 
            865      6.68494e+9 
            875      6.83612e+9 
            885      7.13512e+9 
            895      7.23571e+9 
            905      6.93179e+9 
            915      8.46041e+9 
            925     3.12004e+10 
            935     5.05351e+10 
            945     6.27387e+10 
            955     6.60911e+10 
            965     7.08574e+10 
            975     1.91697e+10 
            985       4.908e+10 
            995      4.8985e+10 
           1005       5.452e+10 
           1015     5.92287e+10 
           1025     4.86624e+10 
           1035     5.49607e+10 
           1045     6.88447e+10 
           1055     6.34265e+10 
           1065     5.19644e+10 
           1075     5.60257e+10 
           1085     5.13624e+10 
           1095     5.50095e+10 
           1105     5.22258e+10 
           1115      5.1169e+10 
           1125      3.7574e+10 
           1135     4.89867e+10 
           1145     4.74768e+10 
           1155     4.52462e+10 
           1165     4.34791e+10 
           1175     2.32981e+10 
           1185     3.89788e+10 
           1195     3.84848e+10 
           1205     3.49247e+10 
           1215     3.00317e+10 
           1225     3.62514e+10 
           1235     3.94754e+10 
           1245     3.70769e+10 
           1255     3.71677e+10 
           1265     3.87694e+10 
           1275     4.06456e+10 
           1285     4.08916e+10 
           1295      3.5554e+10 
           1305     3.64624e+10 
           1315     4.05198e+10 
           1325     3.86466e+10 
           1335     3.71968e+10 
           1345     3.72955e+10 
           1355     3.65131e+10 
           1365     3.47629e+10 
           1375     3.31871e+10 
           1385     3.14664e+10 
           1395     2.08399e+10 
           1405     2.29317e+10 
           1415     2.94576e+10 
           1425     2.68101e+10 
           1435     2.90264e+10 
           1442     2.88159e+10 
           1447     2.86027e+10 
           1455       2.699e+10 
           1465     2.54432e+10 
           1475     2.64553e+10 
           1485      2.6324e+10 
           1495     2.54167e+10 
           1505     2.36065e+10 
           1512     2.23486e+10 
           1517     2.29218e+10 
           1525     2.23628e+10 
           1535     1.85565e+10 
           1545     1.57016e+10 
           1555     1.57031e+10 
           1565     1.83164e+10 
           1575     1.97278e+10 
           1585     2.00345e+10 
           1595     1.97959e+10 
           1605      1.9294e+10 
           1615     1.82455e+10 
           1625     1.86922e+10 
           1635     1.94169e+10 
           1645     1.97301e+10 
           1655     1.93411e+10 
           1665     1.93282e+10 
           1672     1.75011e+10 
           1677     2.13593e+10 
           1685     1.99456e+10 
           1695     1.89661e+10 
           1705     1.88557e+10 
           1715      1.7535e+10 
           1725     1.69132e+10 
           1735     1.76349e+10 
           1745     1.74803e+10 
           1755     1.73955e+10 
           1765     1.72896e+10 
           1775     1.62404e+10 
           1785     1.66998e+10 
           1795     1.65131e+10 
           1805     1.65318e+10 
           1815     1.54879e+10 
           1825     1.55663e+10 
           1835     1.54172e+10 
           1845     1.42224e+10 
           1855     1.48271e+10 
           1865     1.49187e+10 
           1875     1.47793e+10 
           1885     1.35521e+10 
           1895     1.29531e+10 
           1905     1.36977e+10 
           1915      1.3138e+10 
           1925     1.21834e+10 
           1935     1.32431e+10 
           1945     1.35753e+10 
           1955     1.19119e+10 
           1967     1.29072e+10 
           1976     1.34769e+10 
           1984     1.26669e+10 
           1995     1.24292e+10 
           2005     1.28265e+10 
           2015     1.27738e+10 
           2025     1.29557e+10 
           2035     1.19799e+10 
           2045     1.20018e+10 
           2055     1.02474e+10 
           2065      9.99729e+9 
           2074     1.06254e+10 
           2078     1.00855e+10 
           2085     1.08065e+10 
           2095     1.07971e+10 
           2105     1.12142e+10 
           2115     1.13224e+10 
           2125     1.12703e+10 
           2135     1.10873e+10 
           2145     1.06845e+10 
           2155     1.09514e+10 
           2165     1.05892e+10 
           2175     1.06729e+10 
           2185     1.03686e+10 
           2195     1.05645e+10 
           2205     1.04464e+10 
           2215     1.01565e+10 
           2225     1.00418e+10 
           2235      9.83148e+9 
           2245      9.77623e+9 
           2255      9.50969e+9 
           2265      9.54853e+9 
           2275       9.4524e+9 
           2285       9.2342e+9 
           2295      7.79991e+9 
           2305      8.81655e+9 
           2315      8.68852e+9 
           2325      8.68364e+9 
           2335      8.50025e+9 
           2345      8.49915e+9 
           2355      8.30078e+9 
           2365      8.17281e+9 
           2375       7.9445e+9 
           2385      7.73165e+9 
           2395      7.70663e+9 
           2405       7.6798e+9 
           2415      7.58533e+9 
           2425      7.56262e+9 
           2435      7.39007e+9 
           2445      7.34676e+9 
           2455      7.28015e+9 
           2465      7.16231e+9 
           2475      7.03628e+9 
           2485      6.70584e+9 
           2495      4.60831e+9 
           2505      6.29541e+9 
           2513      6.27627e+9 
           2518      6.44269e+9 
           2525      6.58015e+9 
           2535      6.55472e+9 
           2545      6.34627e+9 
           2555      6.32439e+9 
           2565      6.24082e+9 
           2575       6.1913e+9 
           2585      6.12207e+9 
           2595      6.03526e+9 
           2605      5.99789e+9 
           2615      5.85459e+9 
           2625      5.83413e+9 
           2635      5.78288e+9 
           2645      5.66869e+9 
           2655      5.62233e+9 
           2665      5.40729e+9 
           2675      5.32798e+9 
           2685      5.38713e+9 
           2695      5.19577e+9 
           2705      5.09286e+9 
           2715      5.07156e+9 
           2725       5.0825e+9 
           2735      4.98708e+9 
           2745      4.96481e+9 
           2755      4.91836e+9 
           2765      4.83688e+9 
           2775      4.86431e+9 
           2785       4.7609e+9 
           2795       4.5692e+9 
           2805      4.61808e+9 
           2815      4.62892e+9 
           2825      4.56959e+9 
           2835      4.42036e+9 
           2845      4.45274e+9 
           2855      4.36859e+9 
           2865      4.32089e+9 
           2875      4.27233e+9 
           2885      4.22149e+9 
           2895      4.17139e+9 
           2910      4.05656e+9 
           2930      4.03134e+9 
           2950      3.90556e+9 
           2970      3.82546e+9 
           2990      3.70775e+9 
           3010      3.56737e+9 
           3030      3.50989e+9 
           3050      3.47494e+9 
           3070      3.42841e+9 
           3090      3.28538e+9 
           3110      3.28564e+9 
           3130       3.1856e+9 
           3150      3.13913e+9 
           3170      3.05106e+9 
           3190        3.001e+9 
           3210       2.9314e+9 
           3230      2.85697e+9 
           3250      2.82427e+9 
           3270      2.73765e+9 
           3290       2.6928e+9 
           3310      2.63285e+9 
           3330       2.5647e+9 
           3350      2.50899e+9 
           3370      2.45717e+9 
           3390      2.43357e+9 
           3410       2.3814e+9 
           3430      2.34192e+9 
           3450      2.27956e+9 
           3470      2.23975e+9 
           3490       2.1921e+9 
           3510      2.15052e+9 
           3530      2.12196e+9 
           3550      2.07546e+9 
           3570      2.03607e+9 
           3590      1.98126e+9 
           3610      1.94391e+9 
           3630      1.91231e+9 
           3640      1.89732e+9 
           3650        1.835e+9 
           3670      1.80923e+9 
           3690      1.77227e+9 
           3710       1.7025e+9 
           3730      1.65951e+9 
           3750      1.68906e+9 
           3770      1.65997e+9 
           3790       1.7162e+9 
           3810      1.75239e+9 
           3830      1.58156e+9 
           3850      1.73836e+9 
           3870      1.67184e+9 
           3890      1.49458e+9 
           3910      1.68776e+9 
           3930      1.62313e+9 
           3950      1.58752e+9 
           3970      1.37565e+9 
           3990       1.5567e+9 
           4010      1.53223e+9 
           4030      1.47322e+9 
           4050       1.4763e+9 
           4070      1.40329e+9 
           4090      1.33228e+9 
           4110      1.23199e+9 
           4130      1.34591e+9 
           4150      1.33166e+9 
           4170      1.32847e+9 
           4190      1.30876e+9 
           4210      1.28889e+9 
           4230      1.26652e+9 
           4250      1.22685e+9 
           4270      1.19811e+9 
           4290      1.17364e+9 
           4310      1.13501e+9 
           4330      1.07594e+9 
           4350      1.00897e+9 
           4370       1.0846e+9 
           4390      1.08037e+9 
           4410      1.06318e+9 
           4430      1.05965e+9 
           4450       1.0381e+9 
           4470      1.00883e+9 
           4490      1.01199e+9 
           4510       9.8929e+8 
           4530      9.80684e+8 
           4550      9.63183e+8 
           4570      9.53039e+8 
           4590      9.33987e+8 
           4610      9.11932e+8 
           4630       8.9321e+8 
           4650      8.46794e+8 
           4670       8.6837e+8 
           4690      8.58479e+8 
           4710      8.35563e+8 
           4730         8.42e+8 
           4750      8.27694e+8 
           4770       8.2557e+8 
           4790      8.11268e+8 
           4810      7.94701e+8 
           4830      7.79413e+8 
           4850       7.4622e+8 
           4870      6.78011e+8 
           4890      7.45106e+8 
           4910       7.3561e+8 
           4930       7.1544e+8 
           4950      7.10224e+8 
           4970      7.08149e+8 
           4990      6.96553e+8 
           5010      6.66868e+8 
           5030      6.71522e+8 
           5050       6.6063e+8 
           5070      6.56938e+8 
           5090      6.45518e+8 
           5110      6.34704e+8 
           5130      6.21634e+8 
           5150      6.14429e+8 
           5170       6.0733e+8 
           5190      6.00211e+8 
           5210      5.92142e+8 
           5230      5.83394e+8 
           5250      5.73216e+8 
           5270      5.64018e+8 
           5290      5.59128e+8 
           5310      5.50836e+8 
           5330      5.43686e+8 
           5350       5.3597e+8 
           5370      5.28706e+8 
           5390      5.20407e+8 
           5410      5.11688e+8 
           5430      5.07389e+8 
           5450      5.00069e+8 
           5470       4.9307e+8 
           5490      4.86172e+8 
           5510      4.80328e+8 
           5530      4.72733e+8 
           5550       4.6784e+8 
           5570       4.6105e+8 
           5590      4.54333e+8 
           5610      4.49292e+8 
           5630      4.43443e+8 
           5650      4.36604e+8 
           5670      4.28654e+8 
           5690      4.17734e+8 
           5710      4.13484e+8 
           5730      4.09042e+8 
           5750      4.02122e+8 
           5770      3.99452e+8 
           5790      3.93731e+8 
           5810      3.88235e+8 
           5830      3.82195e+8 
           5850      3.79267e+8 
           5870      3.66825e+8 
           5890       3.6765e+8 
           5910      3.64832e+8 
           5930      3.60146e+8 
           5950      3.56059e+8 
           5970      3.54385e+8 
           5990      3.48327e+8 
           6010      3.45595e+8 
           6030      3.40208e+8 
           6050      3.36429e+8 
           6070       3.3304e+8 
           6090       3.2916e+8 
           6110      3.24778e+8 
           6130      3.21109e+8 
           6150      3.15368e+8 
           6170      3.12001e+8 
           6190       3.0926e+8 
           6210      3.05992e+8 
           6230      3.02264e+8 
           6250      2.97815e+8 
           6270      2.94692e+8 
           6290      2.91468e+8 
           6310      2.87381e+8 
           6330      2.84703e+8 
           6350      2.80745e+8 
           6370      2.78112e+8 
           6390      2.74667e+8 
           6410       2.7137e+8 
           6430      2.68408e+8 
           6450      2.65035e+8 
           6470      2.60735e+8 
           6490      2.57941e+8 
           6510       2.5491e+8 
           6530      2.51575e+8 
           6550      2.45053e+8 
           6570      2.20208e+8 
           6590      2.41732e+8 
           6610      2.40943e+8 
           6630      2.38678e+8 
           6650      2.35745e+8 
           6670      2.31048e+8 
           6690      2.28389e+8 
           6710      2.27757e+8 
           6730      2.24335e+8 
           6750      2.22759e+8 
           6770      2.20598e+8 
           6790      2.16384e+8 
           6810      2.15472e+8 
           6830         2.13e+8 
           6850      2.10899e+8 
           6870       2.0842e+8 
           6890      2.05561e+8 
           6910      2.03016e+8 
           6930       2.0194e+8 
           6950      1.99719e+8 
           6970      1.97566e+8 
           6990      1.95342e+8 
           7010      1.93079e+8 
           7030      1.90656e+8 
           7050      1.88863e+8 
           7070      1.84246e+8 
           7090      1.84977e+8 
           7110      1.81382e+8 
           7130      1.79669e+8 
           7150      1.79144e+8 
           7170      1.77142e+8 
           7190      1.75415e+8 
           7210      1.73638e+8 
           7230      1.69414e+8 
           7250      1.69484e+8 
           7270      1.68211e+8 
           7290      1.65241e+8 
           7310      1.64627e+8 
           7330      1.62867e+8 
           7350      1.61271e+8 
           7370      1.59648e+8 
           7390      1.58019e+8 
           7410      1.56378e+8 
           7430      1.54773e+8 
           7450      1.53129e+8 
           7470       1.5071e+8 
           7490       1.4957e+8 
           7510      1.48447e+8 
           7530      1.46796e+8 
           7550      1.45557e+8 
           7570      1.44052e+8 
           7590      1.42287e+8 
           7610      1.40785e+8 
           7630      1.39641e+8 
           7650      1.38274e+8 
           7670      1.37016e+8 
           7690      1.35412e+8 
           7710      1.34102e+8 
           7730      1.32583e+8 
           7750      1.31624e+8 
           7770       1.3028e+8 
           7790      1.29121e+8 
           7810      1.27812e+8 
           7830      1.26601e+8 
           7850      1.25327e+8 
           7870      1.23809e+8 
           7890       1.2248e+8 
           7910      1.21506e+8 
           7930      1.20301e+8 
           7950      1.19368e+8 
           7970      1.18136e+8 
           7990      1.17073e+8 
           8010      1.15849e+8 
           8030      1.14688e+8 
           8050      1.13764e+8 
           8070      1.12692e+8 
           8090      1.11543e+8 
           8110      1.09693e+8 
           8130      1.09564e+8 
           8150      1.08437e+8 
           8170      1.07563e+8 
           8190      1.05791e+8 
           8210      1.04623e+8 
           8230      1.03297e+8 
           8250      1.03063e+8 
           8270      1.01067e+8 
           8290      1.01045e+8 
           8310      1.00298e+8 
           8330      9.92466e+7 
           8350      9.79018e+7 
           8370      9.72786e+7 
           8390      9.67137e+7 
           8410      9.56843e+7 
           8430      9.49074e+7 
           8450      9.35354e+7 
           8470      9.31204e+7 
           8490      9.22118e+7 
           8510      9.08165e+7 
           8530      9.06759e+7 
           8550      8.89329e+7 
           8570      8.97186e+7 
           8590      8.68813e+7 
