# Kurucz ODFNEW /NOVER (2003)
# teff = 31000 K (value for the effective temperature for the model. Temperatures are given in K)
# logg = 3.5 log(cm/s2) (value for Log(G) for the model.)
# meta = 0.2  (value for the Metallicity for the model.)
# lh = 1.25  (l/Hp where l is the  mixing length of the convective element and Hp is the pressure scale height)
# vtur = 2 km/s (Microturbulence velocity)
# alpha = 0.4  (Alpha)
#
# column 1: WAVELENGTH (ANGSTROM), Wavelength in Angstrom
# column 2: FLUX (ERG/CM2/S/A), Flux in erg/cm2/s/A
          147.2      6.48206e-8 
            151      1.91413e-7 
          155.2      5.95177e-7 
          158.8      1.50304e-6 
            162      3.31124e-6 
            166       8.5501e-6 
          170.3       2.2458e-5 
          173.4      4.41675e-5 
          176.8      9.10649e-5 
          180.2     0.000180545 
          181.7     0.000246555 
          186.1     0.000569132 
            191      0.00138709 
          193.9      0.00229812 
          198.4      0.00494492 
          201.8      0.00856279 
            205       0.0141324 
          210.5       0.0323819 
          216.2       0.0724816 
          219.8        0.120133 
            223        0.184172 
          226.8        0.316913 
            230         180.503 
            234         386.272 
            240         633.049 
          246.5         1105.97 
          252.4         1935.63 
          256.8         2767.79 
            260         5079.22 
            264         8733.38 
          268.5         14010.5 
          273.5           19616 
          278.5         24403.2 
            284         60622.5 
            290         89801.4 
            296          119465 
            301          194845 
            308          610938 
            318      1.41644e+6 
            328      2.08944e+6 
            338       4.0313e+6 
            348      6.38615e+6 
            357      1.47376e+7 
            366      3.63016e+7 
            375      4.17999e+7 
            385      6.54845e+7 
            395      1.54386e+8 
            405      2.00835e+8 
            414      3.05765e+8 
            422      3.39806e+8 
            430      3.64505e+8 
            441      4.49446e+8 
            451      4.84838e+8 
            460      4.68045e+8 
            470      5.75463e+8 
            480      6.78636e+8 
            490      6.26444e+8 
            500      8.63283e+8 
            506      9.84773e+8 
            512      7.42425e+9 
            520      7.15298e+9 
            530      6.60115e+9 
            540      6.48528e+9 
            550      6.39394e+9 
            560      9.67568e+9 
            570     1.25379e+10 
            580     1.14676e+10 
            590     1.18722e+10 
            600      6.55687e+9 
            610      9.89327e+9 
            620     1.40921e+10 
            630     1.35666e+10 
            640     1.39857e+10 
            650     1.18066e+10 
            658      7.02489e+9 
            665     1.17025e+10 
            675     1.56289e+10 
            685     1.02471e+10 
            695     1.52657e+10 
            705      8.91599e+9 
            716     1.73809e+10 
            726      1.7054e+10 
            735     1.71445e+10 
            745     1.36764e+10 
            755     1.41842e+10 
            765     1.49185e+10 
            775     1.66084e+10 
            785     1.56805e+10 
            795     1.71524e+10 
            805     1.54133e+10 
            815      1.5152e+10 
            825     1.71094e+10 
            835     1.12491e+10 
            845     1.60468e+10 
            855     1.57391e+10 
            865      1.6561e+10 
            875     1.66492e+10 
            885     1.69297e+10 
            895     1.69405e+10 
            905     1.62329e+10 
            915     1.96238e+10 
            925     4.44304e+10 
            935     6.12997e+10 
            945     6.52108e+10 
            955     6.87471e+10 
            965     7.15815e+10 
            975     3.27365e+10 
            985     5.57974e+10 
            995     5.28587e+10 
           1005     5.49153e+10 
           1015     5.85558e+10 
           1025     5.42957e+10 
           1035     5.74295e+10 
           1045     6.48808e+10 
           1055     6.17849e+10 
           1065     5.40304e+10 
           1075     5.56215e+10 
           1085     5.29144e+10 
           1095     5.51415e+10 
           1105     5.29601e+10 
           1115     5.14387e+10 
           1125      3.9354e+10 
           1135     4.96594e+10 
           1145     4.85888e+10 
           1155     4.54637e+10 
           1165      4.5225e+10 
           1175     2.95544e+10 
           1185     4.10285e+10 
           1195     3.97643e+10 
           1205     3.82457e+10 
           1215     3.48728e+10 
           1225      3.7843e+10 
           1235     4.00682e+10 
           1245     3.82751e+10 
           1255     3.84904e+10 
           1265      3.9358e+10 
           1275     4.06433e+10 
           1285     4.04764e+10 
           1295     3.78656e+10 
           1305     3.76458e+10 
           1315     3.96375e+10 
           1325     3.84449e+10 
           1335     3.71989e+10 
           1345     3.72434e+10 
           1355     3.62731e+10 
           1365     3.50864e+10 
           1375     3.38685e+10 
           1385     3.25642e+10 
           1395     2.26538e+10 
           1405     2.44375e+10 
           1415     3.16571e+10 
           1425      2.8643e+10 
           1435     3.04699e+10 
           1442      2.9999e+10 
           1447     2.99198e+10 
           1455     2.84617e+10 
           1465     2.78322e+10 
           1475     2.82405e+10 
           1485     2.81621e+10 
           1495     2.73147e+10 
           1505       2.676e+10 
           1512     2.63612e+10 
           1517       2.661e+10 
           1525     2.55216e+10 
           1535     2.24945e+10 
           1545     1.81466e+10 
           1555     1.85387e+10 
           1565     2.14588e+10 
           1575     2.26376e+10 
           1585     2.26002e+10 
           1595     2.25073e+10 
           1605     2.11937e+10 
           1615     2.03312e+10 
           1625     2.07152e+10 
           1635     2.10207e+10 
           1645     2.10053e+10 
           1655     2.08802e+10 
           1665     2.04562e+10 
           1672     1.88716e+10 
           1677     2.20894e+10 
           1685     2.10323e+10 
           1695     2.03141e+10 
           1705     2.01569e+10 
           1715     1.91079e+10 
           1725      1.8573e+10 
           1735     1.92005e+10 
           1745     1.90095e+10 
           1755     1.87042e+10 
           1765      1.8505e+10 
           1775     1.78905e+10 
           1785     1.81115e+10 
           1795     1.76683e+10 
           1805     1.76592e+10 
           1815     1.72284e+10 
           1825     1.69813e+10 
           1835     1.69746e+10 
           1845     1.62189e+10 
           1855     1.64255e+10 
           1865     1.63679e+10 
           1875     1.59281e+10 
           1885      1.5293e+10 
           1895      1.5067e+10 
           1905     1.53764e+10 
           1915     1.49686e+10 
           1925     1.41262e+10 
           1935     1.48499e+10 
           1945     1.49207e+10 
           1955     1.36901e+10 
           1967     1.42237e+10 
           1976     1.44224e+10 
           1984     1.40259e+10 
           1995     1.36455e+10 
           2005     1.38808e+10 
           2015     1.38167e+10 
           2025     1.37458e+10 
           2035     1.32626e+10 
           2045     1.30611e+10 
           2055     1.08094e+10 
           2065     1.05574e+10 
           2074     1.11693e+10 
           2078     1.11882e+10 
           2085     1.20899e+10 
           2095     1.20005e+10 
           2105     1.20007e+10 
           2115      1.2157e+10 
           2125     1.18868e+10 
           2135     1.18559e+10 
           2145     1.16326e+10 
           2155      1.1589e+10 
           2165     1.11543e+10 
           2175     1.12653e+10 
           2185     1.10504e+10 
           2195     1.11235e+10 
           2205     1.09462e+10 
           2215     1.06433e+10 
           2225     1.06148e+10 
           2235      1.0468e+10 
           2245     1.03219e+10 
           2255     1.01031e+10 
           2265     1.00611e+10 
           2275      9.97939e+9 
           2285      9.70536e+9 
           2295      8.75264e+9 
           2305       9.3838e+9 
           2315      9.26565e+9 
           2325      9.26348e+9 
           2335      9.13041e+9 
           2345       9.0068e+9 
           2355       8.8442e+9 
           2365      8.69817e+9 
           2375      8.52423e+9 
           2385       8.2297e+9 
           2395      8.23337e+9 
           2405      8.22692e+9 
           2415       8.0911e+9 
           2425      8.05206e+9 
           2435      7.91553e+9 
           2445      7.82823e+9 
           2455      7.70833e+9 
           2465      7.60561e+9 
           2475      7.48093e+9 
           2485        7.067e+9 
           2495       4.6287e+9 
           2505      6.55897e+9 
           2513       6.8066e+9 
           2518      6.87407e+9 
           2525      7.03632e+9 
           2535      7.00612e+9 
           2545       6.8616e+9 
           2555      6.81261e+9 
           2565      6.72868e+9 
           2575      6.66913e+9 
           2585      6.59226e+9 
           2595      6.45092e+9 
           2605      6.44257e+9 
           2615      6.30414e+9 
           2625      6.26932e+9 
           2635      6.21586e+9 
           2645      6.11187e+9 
           2655      6.05736e+9 
           2665      5.93826e+9 
           2675      5.79444e+9 
           2685       5.8172e+9 
           2695      5.72224e+9 
           2705      5.68465e+9 
           2715      5.59941e+9 
           2725      5.54164e+9 
           2735      5.42514e+9 
           2745      5.44418e+9 
           2755      5.36155e+9 
           2765      5.29475e+9 
           2775      5.26204e+9 
           2785      5.15487e+9 
           2795      5.00472e+9 
           2805      5.04523e+9 
           2815      5.00897e+9 
           2825      4.95327e+9 
           2835      4.87292e+9 
           2845      4.85316e+9 
           2855      4.77901e+9 
           2865      4.70715e+9 
           2875      4.65213e+9 
           2885      4.61179e+9 
           2895      4.56335e+9 
           2910      4.45059e+9 
           2930      4.39047e+9 
           2950       4.2824e+9 
           2970      4.18328e+9 
           2990      4.05806e+9 
           3010      3.94268e+9 
           3030      3.83631e+9 
           3050      3.79823e+9 
           3070      3.72884e+9 
           3090      3.62715e+9 
           3110      3.58742e+9 
           3130      3.49127e+9 
           3150      3.43876e+9 
           3170      3.36038e+9 
           3190      3.29746e+9 
           3210      3.20096e+9 
           3230      3.14628e+9 
           3250      3.10136e+9 
           3270      3.00329e+9 
           3290      2.96035e+9 
           3310      2.89428e+9 
           3330      2.82663e+9 
           3350      2.75542e+9 
           3370      2.70825e+9 
           3390       2.6759e+9 
           3410      2.61939e+9 
           3430      2.58202e+9 
           3450      2.51055e+9 
           3470      2.47434e+9 
           3490      2.42794e+9 
           3510       2.3816e+9 
           3530      2.33967e+9 
           3550      2.29182e+9 
           3570       2.2473e+9 
           3590      2.20155e+9 
           3610      2.15797e+9 
           3630       2.1167e+9 
           3640      2.08447e+9 
           3650      1.96991e+9 
           3670      1.93879e+9 
           3690      1.90389e+9 
           3710      1.85281e+9 
           3730      1.83771e+9 
           3750      1.87177e+9 
           3770      1.84382e+9 
           3790      1.85882e+9 
           3810      1.87279e+9 
           3830      1.76021e+9 
           3850      1.83163e+9 
           3870      1.76619e+9 
           3890      1.67155e+9 
           3910         1.75e+9 
           3930      1.69613e+9 
           3950      1.65961e+9 
           3970       1.5375e+9 
           3990      1.62719e+9 
           4010       1.5938e+9 
           4030      1.55304e+9 
           4050      1.54357e+9 
           4070        1.487e+9 
           4090       1.4357e+9 
           4110      1.36589e+9 
           4130      1.42127e+9 
           4150      1.40321e+9 
           4170      1.39269e+9 
           4190      1.36603e+9 
           4210      1.34052e+9 
           4230      1.32565e+9 
           4250      1.29267e+9 
           4270      1.26677e+9 
           4290      1.24373e+9 
           4310      1.21589e+9 
           4330      1.18338e+9 
           4350      1.11917e+9 
           4370      1.16574e+9 
           4390      1.14502e+9 
           4410       1.1247e+9 
           4430       1.1176e+9 
           4450      1.09626e+9 
           4470       1.0728e+9 
           4490      1.06545e+9 
           4510      1.04182e+9 
           4530      1.03168e+9 
           4550      1.01006e+9 
           4570      1.00162e+9 
           4590      9.82142e+8 
           4610      9.66725e+8 
           4630      9.48005e+8 
           4650      9.01868e+8 
           4670      9.18776e+8 
           4690      8.99104e+8 
           4710      8.89039e+8 
           4730      8.92263e+8 
           4750      8.77135e+8 
           4770      8.66698e+8 
           4790       8.5368e+8 
           4810      8.39154e+8 
           4830      8.24984e+8 
           4850      8.06423e+8 
           4870      7.52271e+8 
           4890      7.89109e+8 
           4910       7.7688e+8 
           4930       7.6084e+8 
           4950       7.5186e+8 
           4970      7.46873e+8 
           4990      7.36223e+8 
           5010      7.16023e+8 
           5030      7.11383e+8 
           5050      7.01593e+8 
           5070      6.94574e+8 
           5090      6.84314e+8 
           5110      6.74495e+8 
           5130      6.64579e+8 
           5150      6.55294e+8 
           5170      6.45258e+8 
           5190      6.37022e+8 
           5210      6.28518e+8 
           5230      6.20085e+8 
           5250      6.09738e+8 
           5270      6.00737e+8 
           5290      5.94749e+8 
           5310      5.86296e+8 
           5330       5.7835e+8 
           5350      5.70744e+8 
           5370      5.62843e+8 
           5390      5.54615e+8 
           5410      5.43288e+8 
           5430      5.40532e+8 
           5450      5.33097e+8 
           5470      5.25743e+8 
           5490      5.18857e+8 
           5510      5.11487e+8 
           5530       5.0517e+8 
           5550      4.98759e+8 
           5570      4.91735e+8 
           5590      4.83786e+8 
           5610      4.79409e+8 
           5630      4.73157e+8 
           5650      4.66886e+8 
           5670      4.60305e+8 
           5690      4.48383e+8 
           5710      4.34883e+8 
           5730      4.29661e+8 
           5750      4.23464e+8 
           5770      4.19243e+8 
           5790      4.14194e+8 
           5810      4.08569e+8 
           5830      4.04618e+8 
           5850      4.01669e+8 
           5870       3.9184e+8 
           5890      3.93517e+8 
           5910      3.90211e+8 
           5930      3.86833e+8 
           5950      3.83694e+8 
           5970      3.80705e+8 
           5990      3.75741e+8 
           6010      3.71409e+8 
           6030      3.66494e+8 
           6050      3.62181e+8 
           6070      3.57764e+8 
           6090      3.53792e+8 
           6110      3.49109e+8 
           6130      3.44979e+8 
           6150      3.40578e+8 
           6170      3.36038e+8 
           6190      3.33025e+8 
           6210      3.29173e+8 
           6230      3.24443e+8 
           6250      3.21039e+8 
           6270      3.17451e+8 
           6290       3.1374e+8 
           6310      3.08964e+8 
           6330      3.06469e+8 
           6350      3.02579e+8 
           6370      2.99345e+8 
           6390       2.9586e+8 
           6410      2.91596e+8 
           6430      2.89074e+8 
           6450      2.85491e+8 
           6470      2.81848e+8 
           6490      2.78584e+8 
           6510      2.75026e+8 
           6530      2.71497e+8 
           6550      2.67717e+8 
           6570      2.47421e+8 
           6590      2.62751e+8 
           6610      2.60421e+8 
           6630      2.57696e+8 
           6650      2.54529e+8 
           6670      2.49711e+8 
           6690       2.4647e+8 
           6710       2.4563e+8 
           6730      2.42592e+8 
           6750      2.40478e+8 
           6770      2.38172e+8 
           6790      2.35374e+8 
           6810      2.33051e+8 
           6830      2.30412e+8 
           6850      2.27896e+8 
           6870      2.25294e+8 
           6890      2.21695e+8 
           6910      2.19837e+8 
           6930      2.18288e+8 
           6950       2.1591e+8 
           6970      2.13603e+8 
           6990      2.11295e+8 
           7010      2.08734e+8 
           7030      2.06275e+8 
           7050       2.0422e+8 
           7070      2.00028e+8 
           7090      2.00265e+8 
           7110      1.97821e+8 
           7130      1.95861e+8 
           7150       1.9403e+8 
           7170      1.91366e+8 
           7190      1.89742e+8 
           7210      1.88002e+8 
           7230       1.8514e+8 
           7250      1.83769e+8 
           7270      1.82203e+8 
           7290      1.79383e+8 
           7310      1.78297e+8 
           7330      1.76603e+8 
           7350      1.74792e+8 
           7370      1.72957e+8 
           7390       1.7127e+8 
           7410      1.69448e+8 
           7430        1.678e+8 
           7450      1.65937e+8 
           7470      1.64023e+8 
           7490      1.62242e+8 
           7510      1.61011e+8 
           7530        1.594e+8 
           7550      1.57889e+8 
           7570      1.56287e+8 
           7590      1.53921e+8 
           7610      1.52872e+8 
           7630      1.51573e+8 
           7650      1.50061e+8 
           7670      1.48741e+8 
           7690      1.46873e+8 
           7710      1.45643e+8 
           7730      1.43907e+8 
           7750      1.42895e+8 
           7770      1.41599e+8 
           7790      1.40221e+8 
           7810      1.38855e+8 
           7830       1.3752e+8 
           7850      1.36001e+8 
           7870      1.34563e+8 
           7890      1.33355e+8 
           7910      1.32302e+8 
           7930       1.3103e+8 
           7950      1.29859e+8 
           7970      1.28437e+8 
           7990      1.27329e+8 
           8010      1.26136e+8 
           8030      1.24854e+8 
           8050      1.23787e+8 
           8070      1.22642e+8 
           8090      1.21409e+8 
           8110      1.19768e+8 
           8130      1.19237e+8 
           8150      1.18011e+8 
           8170      1.16949e+8 
           8190      1.15429e+8 
           8210      1.12861e+8 
           8230      1.11518e+8 
           8250      1.10928e+8 
           8270       1.0945e+8 
           8290       1.0889e+8 
           8310      1.08023e+8 
           8330      1.06782e+8 
           8350      1.05618e+8 
           8370       1.0492e+8 
           8390      1.04217e+8 
           8410      1.03237e+8 
           8430      1.02414e+8 
           8450      1.01323e+8 
           8470       1.0053e+8 
           8490      9.99105e+7 
           8510       9.8219e+7 
           8530      9.84113e+7 
           8550      9.63642e+7 
           8570      9.72383e+7 
