# Kurucz ODFNEW /NOVER (2003)
# teff = 26000 K (value for the effective temperature for the model. Temperatures are given in K)
# logg = 3.5 log(cm/s2) (value for Log(G) for the model.)
# meta = 0  (value for the Metallicity for the model.)
# lh = 1.25  (l/Hp where l is the  mixing length of the convective element and Hp is the pressure scale height)
# vtur = 2 km/s (Microturbulence velocity)
# alpha = 0  (Alpha)
#
# column 1: WAVELENGTH (ANGSTROM), Wavelength in Angstrom
# column 2: FLUX (ERG/CM2/S/A), Flux in erg/cm2/s/A
          147.2     3.46862e-13 
            151     1.40502e-12 
          155.2      6.1368e-12 
          158.8      2.0525e-11 
            162     5.75961e-11 
            166       1.987e-10 
          170.3     7.07382e-10 
          173.4      1.70726e-9 
          176.8      4.33492e-9 
          180.2      1.06496e-8 
          181.7      1.56694e-8 
          186.1      4.70906e-8 
            191      1.51576e-7 
          193.9      2.94732e-7 
          198.4      7.96995e-7 
          201.8      1.64242e-6 
            205      3.17546e-6 
          210.5      9.42711e-6 
          216.2      2.74835e-5 
          219.8      5.25177e-5 
            223       9.1779e-5 
          226.8     0.000175525 
            230       0.0205143 
            234       0.0462834 
            240       0.0998791 
          246.5        0.226693 
          252.4        0.462407 
          256.8        0.720768 
            260         1.19673 
            264         1.85019 
          268.5         3.01489 
          273.5         4.98854 
          278.5          8.0128 
            284         15.2222 
            290         25.8084 
            296         42.8056 
            301         63.2449 
            308         115.949 
            318         270.302 
            328         524.558 
            338         1057.17 
            348         1974.14 
            357          9670.3 
            366         20501.7 
            375         29487.4 
            385         48333.7 
            395         97286.9 
            405          139897 
            414          205505 
            422          268896 
            430          373571 
            441          537662 
            451          695779 
            460          882092 
            470      1.21219e+6 
            480      1.59709e+6 
            490      2.09076e+6 
            500      2.65609e+6 
            506      1.23325e+7 
            512      8.57825e+7 
            520      8.90079e+7 
            530      9.35587e+7 
            540      9.43128e+7 
            550      1.38076e+8 
            560      1.65516e+8 
            570      1.86127e+8 
            580      1.73123e+8 
            590      2.17077e+8 
            600      2.22658e+8 
            610      2.65128e+8 
            620      2.99345e+8 
            630      3.09148e+8 
            640       2.8504e+8 
            650      2.21989e+8 
            658      3.10684e+8 
            665      3.73761e+8 
            675      3.91501e+8 
            685      3.70094e+8 
            695      5.00868e+8 
            705      4.71138e+8 
            716       5.5908e+8 
            726      5.59866e+8 
            735      5.77181e+8 
            745      6.45604e+8 
            755      6.71012e+8 
            765      7.09266e+8 
            775       7.5349e+8 
            785      8.00808e+8 
            795      8.19533e+8 
            805      8.30749e+8 
            815      8.37882e+8 
            825      9.13339e+8 
            835      7.53648e+8 
            845      9.12402e+8 
            855      9.17106e+8 
            865      9.70491e+8 
            875      1.02377e+9 
            885      1.09504e+9 
            895      1.13434e+9 
            905      1.11783e+9 
            915      1.71967e+9 
            925     1.20875e+10 
            935     2.15805e+10 
            945     2.95444e+10 
            955     3.19773e+10 
            965     3.39153e+10 
            975      7.98458e+9 
            985     2.49407e+10 
            995     2.59834e+10 
           1005     3.01872e+10 
           1015     3.14541e+10 
           1025     2.35811e+10 
           1035     2.68294e+10 
           1045     3.62818e+10 
           1055      3.3427e+10 
           1065     2.77403e+10 
           1075     3.09824e+10 
           1085     2.81402e+10 
           1095     3.10074e+10 
           1105     2.87746e+10 
           1115     2.80902e+10 
           1125      2.1919e+10 
           1135      2.8422e+10 
           1145     2.65249e+10 
           1155     2.65267e+10 
           1165     2.59689e+10 
           1175      1.4697e+10 
           1185     2.39493e+10 
           1195     2.31141e+10 
           1205     1.80749e+10 
           1215     1.65213e+10 
           1225     2.20315e+10 
           1235     2.39332e+10 
           1245     2.28153e+10 
           1255     2.27859e+10 
           1265     2.32894e+10 
           1275     2.40435e+10 
           1285     2.38373e+10 
           1295     1.87275e+10 
           1305     2.01015e+10 
           1315     2.33198e+10 
           1325     2.19713e+10 
           1335     2.12502e+10 
           1345     2.13894e+10 
           1355      2.1083e+10 
           1365     1.97999e+10 
           1375       1.911e+10 
           1385     1.83924e+10 
           1395     1.24927e+10 
           1405     1.38363e+10 
           1415     1.66222e+10 
           1425     1.58805e+10 
           1435     1.66848e+10 
           1442     1.69421e+10 
           1447     1.66757e+10 
           1455     1.60212e+10 
           1465     1.49161e+10 
           1475     1.53308e+10 
           1485     1.51995e+10 
           1495     1.48093e+10 
           1505     1.36286e+10 
           1512     1.23349e+10 
           1517     1.27142e+10 
           1525     1.28745e+10 
           1535     1.08056e+10 
           1545     1.01692e+10 
           1555      9.90237e+9 
           1565     1.09968e+10 
           1575     1.17956e+10 
           1585     1.18257e+10 
           1595     1.16758e+10 
           1605     1.15758e+10 
           1615     1.11768e+10 
           1625     1.11737e+10 
           1635     1.17508e+10 
           1645     1.17641e+10 
           1655     1.16601e+10 
           1665     1.16953e+10 
           1672     1.10064e+10 
           1677     1.24814e+10 
           1685     1.18469e+10 
           1695      1.1188e+10 
           1705     1.09978e+10 
           1715     1.03534e+10 
           1725     1.01679e+10 
           1735     1.05294e+10 
           1745     1.03436e+10 
           1755      1.0343e+10 
           1765     1.03017e+10 
           1775      9.61833e+9 
           1785      9.82903e+9 
           1795      9.94642e+9 
           1805     1.00221e+10 
           1815      9.05175e+9 
           1825      9.34023e+9 
           1835      9.13309e+9 
           1845      8.31621e+9 
           1855      8.53553e+9 
           1865       8.6432e+9 
           1875      8.82108e+9 
           1885      7.90795e+9 
           1895      7.37791e+9 
           1905      7.96493e+9 
           1915      7.55519e+9 
           1925      7.10358e+9 
           1935      7.60708e+9 
           1945      7.79545e+9 
           1955      6.93623e+9 
           1967      7.54454e+9 
           1976      7.89018e+9 
           1984      7.32794e+9 
           1995      7.19274e+9 
           2005      7.45732e+9 
           2015      7.40826e+9 
           2025      7.57092e+9 
           2035      6.89575e+9 
           2045      7.00017e+9 
           2055      6.49402e+9 
           2065      6.44046e+9 
           2074      6.87173e+9 
           2078      6.25509e+9 
           2085      6.66422e+9 
           2095      6.37123e+9 
           2105      6.61028e+9 
           2115      6.63576e+9 
           2125      6.68091e+9 
           2135      6.57302e+9 
           2145      6.22186e+9 
           2155      6.47421e+9 
           2165      6.41342e+9 
           2175      6.34104e+9 
           2185      6.15064e+9 
           2195      6.22609e+9 
           2205      6.19989e+9 
           2215      6.09581e+9 
           2225      5.94609e+9 
           2235      5.82505e+9 
           2245      5.86454e+9 
           2255      5.70226e+9 
           2265      5.73125e+9 
           2275      5.65477e+9 
           2285      5.61549e+9 
           2295      5.00317e+9 
           2305      5.41004e+9 
           2315      5.28271e+9 
           2325      5.22579e+9 
           2335      5.10699e+9 
           2345      5.15039e+9 
           2355      5.08936e+9 
           2365      5.04176e+9 
           2375      4.92472e+9 
           2385      4.87364e+9 
           2395      4.80807e+9 
           2405      4.74922e+9 
           2415       4.6902e+9 
           2425      4.66621e+9 
           2435      4.54587e+9 
           2445      4.53907e+9 
           2455      4.52223e+9 
           2465      4.44997e+9 
           2475       4.3722e+9 
           2485      4.26064e+9 
           2495      3.36931e+9 
           2505      4.08853e+9 
           2513      3.97694e+9 
           2518      4.10032e+9 
           2525      4.10019e+9 
           2535      4.06907e+9 
           2545      3.92438e+9 
           2555      3.94352e+9 
           2565      3.89783e+9 
           2575      3.88159e+9 
           2585      3.82687e+9 
           2595      3.78943e+9 
           2605      3.75934e+9 
           2615      3.69616e+9 
           2625      3.67002e+9 
           2635      3.63321e+9 
           2645      3.57671e+9 
           2655      3.55137e+9 
           2665      3.42722e+9 
           2675      3.42007e+9 
           2685      3.41925e+9 
           2695      3.30087e+9 
           2705      3.24294e+9 
           2715      3.24107e+9 
           2725      3.23123e+9 
           2735      3.19551e+9 
           2745      3.14837e+9 
           2755      3.12873e+9 
           2765       3.0815e+9 
           2775      3.09079e+9 
           2785      3.03852e+9 
           2795       2.9359e+9 
           2805      2.95541e+9 
           2815      2.95323e+9 
           2825      2.91154e+9 
           2835      2.82087e+9 
           2845      2.84673e+9 
           2855      2.79262e+9 
           2865      2.78165e+9 
           2875      2.75131e+9 
           2885      2.72321e+9 
           2895      2.68133e+9 
           2910      2.62395e+9 
           2930      2.59097e+9 
           2950      2.51297e+9 
           2970      2.47322e+9 
           2990       2.4158e+9 
           3010      2.32813e+9 
           3030      2.31157e+9 
           3050      2.27544e+9 
           3070      2.23878e+9 
           3090      2.14869e+9 
           3110      2.14109e+9 
           3130      2.08566e+9 
           3150      2.05103e+9 
           3170       2.0003e+9 
           3190      1.95985e+9 
           3210      1.92918e+9 
           3230      1.88143e+9 
           3250      1.85463e+9 
           3270      1.81021e+9 
           3290      1.77493e+9 
           3310      1.74231e+9 
           3330      1.70289e+9 
           3350      1.67241e+9 
           3370      1.63846e+9 
           3390      1.61384e+9 
           3410      1.58372e+9 
           3430      1.54962e+9 
           3450      1.51502e+9 
           3470      1.48766e+9 
           3490      1.45794e+9 
           3510      1.43502e+9 
           3530       1.4149e+9 
           3550      1.38734e+9 
           3570      1.36519e+9 
           3590      1.32772e+9 
           3610      1.30472e+9 
           3630       1.2843e+9 
           3640      1.28069e+9 
           3650      1.25004e+9 
           3670        1.235e+9 
           3690      1.20433e+9 
           3710      1.16593e+9 
           3730      1.13426e+9 
           3750      1.19361e+9 
           3770      1.18125e+9 
           3790      1.20894e+9 
           3810      1.23887e+9 
           3830      1.11815e+9 
           3850      1.23268e+9 
           3870       1.2009e+9 
           3890       1.0662e+9 
           3910      1.19122e+9 
           3930      1.15103e+9 
           3950       1.1386e+9 
           3970      9.86779e+8 
           3990      1.10455e+9 
           4010      1.08993e+9 
           4030      1.04755e+9 
           4050      1.05346e+9 
           4070      1.01011e+9 
           4090      9.66884e+8 
           4110      8.89698e+8 
           4130      9.64788e+8 
           4150      9.56255e+8 
           4170      9.49271e+8 
           4190      9.36046e+8 
           4210      9.25877e+8 
           4230       9.0712e+8 
           4250      8.83752e+8 
           4270      8.61691e+8 
           4290      8.49786e+8 
           4310      8.27012e+8 
           4330      7.86959e+8 
           4350      7.32335e+8 
           4370      7.88636e+8 
           4390      7.82444e+8 
           4410      7.73504e+8 
           4430      7.66689e+8 
           4450      7.53269e+8 
           4470      7.28254e+8 
           4490      7.31461e+8 
           4510       7.2258e+8 
           4530      7.12046e+8 
           4550      7.00978e+8 
           4570      6.89534e+8 
           4590      6.77781e+8 
           4610      6.63457e+8 
           4630      6.53608e+8 
           4650       6.2979e+8 
           4670      6.33839e+8 
           4690       6.2776e+8 
           4710      6.07258e+8 
           4730      6.08498e+8 
           4750      5.98259e+8 
           4770      5.96316e+8 
           4790      5.86388e+8 
           4810      5.75448e+8 
           4830      5.65476e+8 
           4850      5.43909e+8 
           4870       4.9677e+8 
           4890      5.42263e+8 
           4910      5.35401e+8 
           4930      5.19797e+8 
           4950      5.17404e+8 
           4970      5.14179e+8 
           4990      5.06056e+8 
           5010      4.87615e+8 
           5030      4.90803e+8 
           5050      4.81206e+8 
           5070      4.77945e+8 
           5090      4.70416e+8 
           5110      4.63249e+8 
           5130      4.54347e+8 
           5150      4.49007e+8 
           5170      4.44257e+8 
           5190      4.38728e+8 
           5210      4.32396e+8 
           5230      4.26437e+8 
           5250      4.20625e+8 
           5270      4.14088e+8 
           5290      4.09293e+8 
           5310      4.03437e+8 
           5330      3.98386e+8 
           5350      3.92767e+8 
           5370      3.87809e+8 
           5390      3.82148e+8 
           5410      3.77372e+8 
           5430      3.72387e+8 
           5450      3.67223e+8 
           5470      3.62377e+8 
           5490      3.57579e+8 
           5510      3.53412e+8 
           5530      3.48126e+8 
           5550      3.44313e+8 
           5570      3.39574e+8 
           5590      3.35328e+8 
           5610      3.30966e+8 
           5630      3.26848e+8 
           5650      3.21883e+8 
           5670      3.16499e+8 
           5690       3.1102e+8 
           5710      3.09261e+8 
           5730      3.05671e+8 
           5750      3.00802e+8 
           5770      2.98562e+8 
           5790      2.94503e+8 
           5810      2.90894e+8 
           5830      2.86607e+8 
           5850      2.83561e+8 
           5870      2.73957e+8 
           5890      2.74847e+8 
           5910      2.72559e+8 
           5930      2.68773e+8 
           5950      2.65427e+8 
           5970      2.63651e+8 
           5990        2.593e+8 
           6010      2.56857e+8 
           6030       2.5326e+8 
           6050      2.50467e+8 
           6070      2.47878e+8 
           6090      2.44943e+8 
           6110      2.41989e+8 
           6130       2.3924e+8 
           6150      2.35515e+8 
           6170      2.32991e+8 
           6190      2.30603e+8 
           6210      2.28094e+8 
           6230      2.25477e+8 
           6250      2.22503e+8 
           6270      2.20032e+8 
           6290      2.17616e+8 
           6310      2.14942e+8 
           6330      2.12655e+8 
           6350      2.09851e+8 
           6370      2.07756e+8 
           6390      2.05295e+8 
           6410      2.02979e+8 
           6430      2.00753e+8 
           6450      1.98414e+8 
           6470      1.95614e+8 
           6490      1.93462e+8 
           6510      1.91653e+8 
           6530      1.89129e+8 
           6550      1.84455e+8 
           6570      1.66734e+8 
           6590      1.81589e+8 
           6610      1.80923e+8 
           6630      1.79139e+8 
           6650      1.77049e+8 
           6670      1.73974e+8 
           6690      1.72119e+8 
           6710      1.71446e+8 
           6730      1.69147e+8 
           6750      1.67774e+8 
           6770      1.65979e+8 
           6790       1.6318e+8 
           6810      1.62207e+8 
           6830      1.60427e+8 
           6850      1.58857e+8 
           6870      1.57135e+8 
           6890      1.55256e+8 
           6910      1.53436e+8 
           6930      1.52183e+8 
           6950      1.50575e+8 
           6970      1.48983e+8 
           6990      1.47384e+8 
           7010      1.45823e+8 
           7030      1.44248e+8 
           7050      1.42763e+8 
           7070      1.39274e+8 
           7090      1.39816e+8 
           7110      1.37607e+8 
           7130       1.3628e+8 
           7150      1.35504e+8 
           7170       1.3409e+8 
           7190      1.32732e+8 
           7210      1.31367e+8 
           7230      1.28443e+8 
           7250      1.28423e+8 
           7270      1.27361e+8 
           7290       1.2516e+8 
           7310      1.24758e+8 
           7330      1.23469e+8 
           7350      1.22268e+8 
           7370      1.21057e+8 
           7390      1.19837e+8 
           7410      1.18635e+8 
           7430      1.17431e+8 
           7450      1.16272e+8 
           7470      1.14658e+8 
           7490      1.13905e+8 
           7510      1.12792e+8 
           7530      1.11642e+8 
           7550      1.10635e+8 
           7570      1.09545e+8 
           7590      1.08451e+8 
           7610      1.07258e+8 
           7630      1.06334e+8 
           7650      1.05302e+8 
           7670      1.04299e+8 
           7690      1.03267e+8 
           7710      1.02244e+8 
           7730      1.01242e+8 
           7750      1.00325e+8 
           7770      9.91917e+7 
           7790      9.84223e+7 
           7810      9.74186e+7 
           7830      9.65529e+7 
           7850      9.56763e+7 
           7870      9.46433e+7 
           7890      9.36073e+7 
           7910      9.28997e+7 
           7930      9.19704e+7 
           7950      9.11089e+7 
           7970      9.01955e+7 
           7990      8.93964e+7 
           8010      8.85043e+7 
           8030      8.77134e+7 
           8050      8.69642e+7 
           8070      8.61808e+7 
           8090      8.52774e+7 
           8110      8.41471e+7 
           8130      8.38533e+7 
           8150      8.29602e+7 
           8170      8.23513e+7 
           8190      8.12756e+7 
           8210      8.03827e+7 
           8230      7.96031e+7 
           8250      7.92121e+7 
           8270      7.78214e+7 
           8290      7.76766e+7 
           8310      7.70359e+7 
           8330      7.63406e+7 
           8350      7.53432e+7 
           8370      7.47846e+7 
           8390      7.42519e+7 
           8410      7.35209e+7 
           8430      7.28332e+7 
           8450      7.17713e+7 
           8470      7.13172e+7 
           8490      7.09398e+7 
           8510       6.9712e+7 
           8530      6.98981e+7 
           8550       6.7742e+7 
           8570      6.94369e+7 
           8590      6.66531e+7 
