# Kurucz ODFNEW /NOVER (2003)
# teff = 7750 K (value for the effective temperature for the model. Temperatures are given in K)
# logg = 2.5 log(cm/s2) (value for Log(G) for the model.)
# meta = -4  (value for the Metallicity for the model.)
# lh = 1.25  (l/Hp where l is the  mixing length of the convective element and Hp is the pressure scale height)
# vtur = 2 km/s (Microturbulence velocity)
# alpha = 0.4  (Alpha)
#
# column 1: WAVELENGTH (ANGSTROM), Wavelength in Angstrom
# column 2: FLUX (ERG/CM2/S/A), Flux in erg/cm2/s/A
          147.2     1.73866e-35 
            151     1.65225e-35 
          155.2     1.56403e-35 
          158.8     1.49392e-35 
            162     1.43549e-35 
            166     1.36714e-35 
          170.3     1.29897e-35 
          173.4     1.25294e-35 
          176.8     1.20522e-35 
          180.2     1.16017e-35 
          181.7     1.14109e-35 
          186.1     1.08777e-35 
            191     1.03267e-35 
          193.9     1.00201e-35 
          198.4     9.57076e-36 
          201.8     9.25097e-36 
            205     8.96441e-36 
          210.5     8.50208e-36 
          216.2     8.05969e-36 
          219.8     7.79784e-36 
            223     7.57565e-36 
          226.8     7.32392e-36 
            230     7.12154e-36 
            234     6.88015e-36 
            240     6.54044e-36 
          246.5     6.20006e-36 
          252.4     5.91358e-36 
          256.8     5.71267e-36 
            260     5.57292e-36 
            264     5.40532e-36 
          268.5     5.22566e-36 
          273.5     5.03634e-36 
          278.5     4.85712e-36 
            284     4.67082e-36 
            290     4.47954e-36 
            296     9.37266e-24 
            301     5.61096e-23 
            308     3.93937e-22 
            318     4.63442e-21 
            328     4.65169e-20 
            338     4.04746e-19 
            348     3.09832e-18 
            357     1.74881e-17 
            366     9.03998e-17 
            375     4.30402e-16 
            385     2.23229e-15 
            395     1.06136e-14 
            405     4.65787e-14 
            414     1.65505e-13 
            422     4.87084e-13 
            430      1.3745e-12 
            441     5.36848e-12 
            451     1.74515e-11 
            460     4.81808e-11 
            470     1.41974e-10 
            480     3.99032e-10 
            490      1.07344e-9 
            500      2.76881e-9 
            506       5.6962e-9 
            512      1.04971e-8 
            520       2.0996e-8 
            530      4.86838e-8 
            540      1.08066e-7 
            550      2.34556e-7 
            560      4.92427e-7 
            570       1.0055e-6 
            580      1.98656e-6 
            590      3.88039e-6 
            600      7.35313e-6 
            610      1.36325e-5 
            620      2.47422e-5 
            630      4.40059e-5 
            640      7.67825e-5 
            650     0.000131548 
            658     0.000199849 
            665     0.000285589 
            675     0.000469034 
            685     0.000758525 
            695      0.00120922 
            705       0.0019003 
            716      0.00307597 
            726      0.00470086 
            735      0.00681359 
            745        0.010176 
            755       0.0150249 
            765        0.021941 
            775       0.0317114 
            785       0.0453812 
            795       0.0643157 
            805       0.0903011 
            815        0.125645 
            825        0.173314 
            835        0.237074 
            845        0.321686 
            855        0.433136 
            865        0.578821 
            875        0.768245 
            885         1.01279 
            895         1.32613 
            905         1.72513 
            915         4.02443 
            925         15.8441 
            935          27.077 
            945         48.6486 
            955          75.571 
            965          85.223 
            975         59.5634 
            985         188.527 
            995         235.115 
           1005         217.569 
           1015         164.843 
           1025         147.909 
           1035         268.881 
           1045         506.089 
           1055         811.016 
           1065         4377.37 
           1075         17483.8 
           1085         41397.1 
           1095         40584.8 
           1105         33408.2 
           1115         17631.6 
           1125         8192.27 
           1135         3951.46 
           1145         2054.47 
           1155            1736 
           1165         1557.82 
           1175         1132.16 
           1185         3447.43 
           1195         1696.52 
           1205         1277.69 
           1215         993.791 
           1225         1549.34 
           1235         2603.87 
           1245         944.093 
           1255         1748.71 
           1265         4088.35 
           1275         5229.08 
           1285          7169.2 
           1295         11000.5 
           1305         23833.4 
           1315         52567.5 
           1325          108567 
           1335          196314 
           1345          322829 
           1355          470105 
           1365          665718 
           1375          701043 
           1385          678839 
           1395          695953 
           1405       1.3096e+6 
           1415       2.4035e+6 
           1425      2.68601e+6 
           1435      3.08687e+6 
           1442      3.51643e+6 
           1447      3.25251e+6 
           1455      3.91335e+6 
           1465      3.69125e+6 
           1475      4.14855e+6 
           1485      4.39866e+6 
           1495      4.69786e+6 
           1505      5.11681e+6 
           1512      5.32332e+6 
           1517      4.83204e+6 
           1525      5.17965e+6 
           1535      5.20783e+6 
           1545      4.79122e+6 
           1555      4.66576e+6 
           1565      3.94507e+6 
           1575      3.77986e+6 
           1585      3.51038e+6 
           1595      3.31693e+6 
           1605      3.31346e+6 
           1615      4.70163e+6 
           1625      6.43313e+6 
           1635      8.25254e+6 
           1645       1.0496e+7 
           1655      1.07003e+7 
           1665      1.29291e+7 
           1672      1.31084e+7 
           1677      1.35644e+7 
           1685      1.40635e+7 
           1695      1.42049e+7 
           1705      1.43485e+7 
           1715      1.48183e+7 
           1725      1.48685e+7 
           1735      1.51995e+7 
           1745      1.50455e+7 
           1755      1.52317e+7 
           1765      1.52374e+7 
           1775       1.5346e+7 
           1785       1.5288e+7 
           1795      1.55379e+7 
           1805      1.53177e+7 
           1815      1.53632e+7 
           1825      1.53333e+7 
           1835      1.55056e+7 
           1845      1.52871e+7 
           1855      1.55125e+7 
           1865       1.5639e+7 
           1875      1.56612e+7 
           1885      1.56916e+7 
           1895      1.57174e+7 
           1905      1.56016e+7 
           1915      1.57247e+7 
           1925      1.57824e+7 
           1935      1.55432e+7 
           1945       1.5818e+7 
           1955      1.58221e+7 
           1967       1.5839e+7 
           1976       1.5779e+7 
           1984      1.57535e+7 
           1995      1.58405e+7 
           2005       1.5786e+7 
           2015      1.57197e+7 
           2025      1.56769e+7 
           2035      1.58361e+7 
           2045      1.58276e+7 
           2055      1.56204e+7 
           2065      1.56727e+7 
           2074       1.5882e+7 
           2078      1.58837e+7 
           2085      1.58743e+7 
           2095      1.58777e+7 
           2105      1.58844e+7 
           2115      1.58786e+7 
           2125      1.58129e+7 
           2135      1.58478e+7 
           2145        1.591e+7 
           2155      1.58917e+7 
           2165      1.57339e+7 
           2175      1.58054e+7 
           2185       1.5901e+7 
           2195      1.59792e+7 
           2205      1.58501e+7 
           2215      1.56206e+7 
           2225      1.57544e+7 
           2235      1.59863e+7 
           2245      1.59369e+7 
           2255        1.577e+7 
           2265       1.5667e+7 
           2275      1.58855e+7 
           2285      1.59134e+7 
           2295      1.58552e+7 
           2305      1.59491e+7 
           2315       1.5924e+7 
           2325      1.59149e+7 
           2335      1.57726e+7 
           2345      1.53596e+7 
           2355      1.58326e+7 
           2365      1.54195e+7 
           2375      1.57761e+7 
           2385      1.52507e+7 
           2395      1.57062e+7 
           2405      1.57328e+7 
           2415      1.57346e+7 
           2425      1.60791e+7 
           2435      1.59931e+7 
           2445      1.60188e+7 
           2455      1.60986e+7 
           2465       1.6011e+7 
           2475      1.60055e+7 
           2485      1.59825e+7 
           2495      1.59085e+7 
           2505      1.61162e+7 
           2513      1.59218e+7 
           2518      1.59424e+7 
           2525      1.58819e+7 
           2535      1.58331e+7 
           2545      1.60236e+7 
           2555       1.6206e+7 
           2565      1.60392e+7 
           2575      1.61268e+7 
           2585      1.61427e+7 
           2595       1.6113e+7 
           2605      1.60651e+7 
           2615      1.60223e+7 
           2625      1.60393e+7 
           2635      1.61365e+7 
           2645      1.64595e+7 
           2655      1.64629e+7 
           2665       1.6389e+7 
           2675       1.6422e+7 
           2685      1.64969e+7 
           2695      1.64826e+7 
           2705      1.65097e+7 
           2715      1.63868e+7 
           2725      1.63763e+7 
           2735      1.64235e+7 
           2745      1.60361e+7 
           2755      1.61685e+7 
           2765      1.64051e+7 
           2775       1.6588e+7 
           2785      1.65803e+7 
           2795      1.59372e+7 
           2805      1.63083e+7 
           2815      1.66628e+7 
           2825      1.66678e+7 
           2835      1.66184e+7 
           2845      1.66521e+7 
           2855      1.65107e+7 
           2865      1.66265e+7 
           2875      1.66792e+7 
           2885      1.66625e+7 
           2895      1.67354e+7 
           2910      1.67618e+7 
           2930      1.67097e+7 
           2950      1.67138e+7 
           2970      1.67905e+7 
           2990      1.67933e+7 
           3010      1.68391e+7 
           3030      1.68564e+7 
           3050      1.68689e+7 
           3070      1.68457e+7 
           3090      1.68891e+7 
           3110      1.69001e+7 
           3130      1.69044e+7 
           3150      1.69045e+7 
           3170      1.69198e+7 
           3190       1.6886e+7 
           3210      1.69274e+7 
           3230      1.68755e+7 
           3250      1.69292e+7 
           3270      1.69553e+7 
           3290      1.69628e+7 
           3310       1.6965e+7 
           3330      1.69481e+7 
           3350      1.69215e+7 
           3370      1.69312e+7 
           3390      1.69337e+7 
           3410       1.6954e+7 
           3430      1.69483e+7 
           3450       1.6941e+7 
           3470      1.69331e+7 
           3490       1.6927e+7 
           3510      1.69197e+7 
           3530      1.69108e+7 
           3550      1.69001e+7 
           3570      1.68851e+7 
           3590      1.68726e+7 
           3610       1.6859e+7 
           3630      1.68436e+7 
           3640      1.68348e+7 
           3650      1.69075e+7 
           3670      1.67061e+7 
           3690      1.68514e+7 
           3710      2.06381e+7 
           3730      2.49156e+7 
           3750      3.46363e+7 
           3770      3.69469e+7 
           3790      4.43501e+7 
           3810      5.18324e+7 
           3830      4.16026e+7 
           3850      5.69701e+7 
           3870      6.33177e+7 
           3890      3.62163e+7 
           3910      6.26129e+7 
           3930      6.54311e+7 
           3950      6.17834e+7 
           3970      3.49339e+7 
           3990      5.89464e+7 
           4010      6.38562e+7 
           4030      6.36577e+7 
           4050      6.28078e+7 
           4070      6.08684e+7 
           4090      4.87304e+7 
           4110      3.74675e+7 
           4130      5.77963e+7 
           4150      5.91217e+7 
           4170      5.87921e+7 
           4190      5.82129e+7 
           4210      5.75591e+7 
           4230      5.68792e+7 
           4250      5.61929e+7 
           4270      5.54467e+7 
           4290      5.45215e+7 
           4310      5.26214e+7 
           4330      4.09604e+7 
           4350      3.48508e+7 
           4370      5.03814e+7 
           4390      5.14208e+7 
           4410      5.11743e+7 
           4430      5.07133e+7 
           4450      5.02566e+7 
           4470      4.96891e+7 
           4490      4.91502e+7 
           4510      4.86153e+7 
           4530      4.80823e+7 
           4550      4.75513e+7 
           4570      4.70404e+7 
           4590      4.65313e+7 
           4610      4.60344e+7 
           4630      4.55374e+7 
           4650      4.50525e+7 
           4670      4.45724e+7 
           4690      4.40989e+7 
           4710      4.36266e+7 
           4730      4.31726e+7 
           4750       4.2703e+7 
           4770      4.21618e+7 
           4790      4.16364e+7 
           4810      4.09718e+7 
           4830      3.96174e+7 
           4850      3.25103e+7 
           4870      2.65063e+7 
           4890      3.78004e+7 
           4910      3.88167e+7 
           4930      3.87101e+7 
           4950      3.84209e+7 
           4970      3.81245e+7 
           4990       3.7756e+7 
           5010      3.73741e+7 
           5030       3.7006e+7 
           5050      3.66396e+7 
           5070      3.62764e+7 
           5090      3.59192e+7 
           5110      3.55664e+7 
           5130       3.5218e+7 
           5150       3.4874e+7 
           5170      3.45216e+7 
           5190      3.41945e+7 
           5210        3.387e+7 
           5230      3.35426e+7 
           5250      3.32219e+7 
           5270      3.29024e+7 
           5290      3.25908e+7 
           5310      3.22803e+7 
           5330      3.19748e+7 
           5350      3.16744e+7 
           5370      3.13748e+7 
           5390      3.10815e+7 
           5410      3.07903e+7 
           5430      3.05039e+7 
           5450      3.02195e+7 
           5470      2.99398e+7 
           5490      2.96633e+7 
           5510        2.939e+7 
           5530      2.91211e+7 
           5550      2.88542e+7 
           5570      2.85915e+7 
           5590      2.83318e+7 
           5610      2.80751e+7 
           5630      2.78213e+7 
           5650      2.75704e+7 
           5670      2.73223e+7 
           5690      2.70771e+7 
           5710      2.68357e+7 
           5730      2.65959e+7 
           5750      2.63599e+7 
           5770      2.61255e+7 
           5790      2.58947e+7 
           5810      2.56665e+7 
           5830      2.54409e+7 
           5850      2.52177e+7 
           5870      2.49947e+7 
           5890      2.47786e+7 
           5910      2.45648e+7 
           5930      2.43512e+7 
           5950      2.41409e+7 
           5970      2.39329e+7 
           5990      2.37272e+7 
           6010      2.35236e+7 
           6030      2.33222e+7 
           6050       2.3123e+7 
           6070      2.29269e+7 
           6090      2.27329e+7 
           6110      2.25399e+7 
           6130        2.235e+7 
           6150       2.2162e+7 
           6170       2.1976e+7 
           6190       2.1792e+7 
           6210      2.16108e+7 
           6230      2.14305e+7 
           6250      2.12521e+7 
           6270      2.10765e+7 
           6290      2.09017e+7 
           6310      2.07297e+7 
           6330      2.05585e+7 
           6350        2.039e+7 
           6370      2.02231e+7 
           6390       2.0058e+7 
           6410      1.98945e+7 
           6430      1.97327e+7 
           6450      1.95706e+7 
           6470      1.93787e+7 
           6490      1.91844e+7 
           6510      1.89538e+7 
           6530      1.85357e+7 
           6550      1.66533e+7 
           6570      1.34432e+7 
           6590      1.77339e+7 
           6610      1.81397e+7 
           6630      1.81153e+7 
           6650      1.80133e+7 
           6670      1.79156e+7 
           6690      1.77758e+7 
           6710      1.76357e+7 
           6730       1.7497e+7 
           6750      1.73604e+7 
           6770      1.72242e+7 
           6790      1.70902e+7 
           6810      1.69567e+7 
           6830      1.68252e+7 
           6850      1.66942e+7 
           6870      1.65652e+7 
           6890      1.64374e+7 
           6910      1.63109e+7 
           6930      1.61855e+7 
           6950      1.60613e+7 
           6970      1.59382e+7 
           6990      1.58163e+7 
           7010      1.56955e+7 
           7030      1.55766e+7 
           7050       1.5458e+7 
           7070      1.53413e+7 
           7090      1.52249e+7 
           7110      1.51103e+7 
           7130      1.49967e+7 
           7150      1.48835e+7 
           7170       1.4772e+7 
           7190      1.46615e+7 
           7210       1.4552e+7 
           7230      1.44435e+7 
           7250       1.4336e+7 
           7270      1.42294e+7 
           7290      1.41238e+7 
           7310      1.40191e+7 
           7330      1.39154e+7 
           7350      1.38132e+7 
           7370      1.37113e+7 
           7390       1.3611e+7 
           7410      1.35109e+7 
           7430      1.34123e+7 
           7450      1.33146e+7 
           7470       1.3217e+7 
           7490       1.3121e+7 
           7510      1.30259e+7 
           7530      1.29315e+7 
           7550       1.2838e+7 
           7570      1.27453e+7 
           7590      1.26533e+7 
           7610      1.25628e+7 
           7630      1.24725e+7 
           7650      1.23829e+7 
           7670      1.22947e+7 
           7690      1.22066e+7 
           7710      1.21199e+7 
           7730      1.20333e+7 
           7750      1.19481e+7 
           7770      1.18617e+7 
           7790      1.17791e+7 
           7810       1.1696e+7 
           7830      1.16136e+7 
           7850      1.15319e+7 
           7870      1.14509e+7 
           7890      1.13705e+7 
           7910      1.12914e+7 
           7930      1.12123e+7 
           7950      1.11339e+7 
           7970      1.10568e+7 
           7990      1.09797e+7 
           8010      1.09038e+7 
           8030      1.08279e+7 
           8050      1.07532e+7 
           8070      1.06792e+7 
           8090      1.06051e+7 
           8110      1.05323e+7 
           8130        1.046e+7 
           8150      1.03883e+7 
           8170      1.03172e+7 
           8190      1.02466e+7 
           8210      1.01957e+7 
           8230      1.01317e+7 
           8250      1.00699e+7 
           8270      1.00075e+7 
           8290      9.94173e+6 
           8310      9.86938e+6 
           8330      9.78947e+6 
           8350      9.71832e+6 
           8370      9.58643e+6 
           8390      9.51723e+6 
           8410       9.4081e+6 
           8430      9.44568e+6 
           8450      9.40735e+6 
           8470      8.99277e+6 
           8490      9.56247e+6 
           8510      8.78618e+6 
           8530       9.6304e+6 
           8550      8.43515e+6 
           8570      9.74179e+6 
