# Kurucz ODFNEW /NOVER (2003)
# teff = 18000 K (value for the effective temperature for the model. Temperatures are given in K)
# logg = 5 log(cm/s2) (value for Log(G) for the model.)
# meta = -0.5  (value for the Metallicity for the model.)
# lh = 1.25  (l/Hp where l is the  mixing length of the convective element and Hp is the pressure scale height)
# vtur = 2 km/s (Microturbulence velocity)
# alpha = 0  (Alpha)
#
# column 1: WAVELENGTH (ANGSTROM), Wavelength in Angstrom
# column 2: FLUX (ERG/CM2/S/A), Flux in erg/cm2/s/A
          147.2     2.37779e-22 
            151     1.76923e-21 
          155.2     1.40904e-20 
          158.8     7.59392e-20 
            162      3.1931e-19 
            166     1.78248e-18 
          170.3     1.03615e-17 
          173.4     3.49346e-17 
          176.8      1.2621e-16 
          180.2     4.34668e-16 
          181.7     7.39038e-16 
          186.1     3.34195e-15 
            191     1.65228e-14 
          193.9      4.0811e-14 
          198.4     1.57755e-13 
          201.8     4.22547e-13 
            205     1.03915e-12 
          210.5     4.54632e-12 
          216.2     1.94069e-11 
          219.8     4.67036e-11 
            223     9.92486e-11 
          226.8     2.36753e-10 
            230     5.14175e-10 
            234      1.31122e-9 
            240      4.54371e-9 
          246.5      1.62032e-8 
          252.4      4.85807e-8 
          256.8      1.05942e-7 
            260      1.85612e-7 
            264      3.64276e-7 
          268.5      7.57668e-7 
          273.5      1.66048e-6 
          278.5      3.54453e-6 
            284      7.90442e-6 
            290      1.82837e-5 
            296      4.07804e-5 
            301      7.77526e-5 
            308     0.000184326 
            318     0.000596105 
            328      0.00178231 
            338      0.00498958 
            348       0.0131313 
            357       0.0298962 
            366        0.065325 
            375        0.136919 
            385        0.298867 
            395        0.625198 
            405         1.25935 
            414         2.29362 
            422         3.81692 
            430         6.21736 
            441         11.8343 
            451         20.6089 
            460         33.1935 
            470         55.1093 
            480          89.398 
            490         142.002 
            500         220.974 
            506         1891.92 
            512         4832.13 
            520         6339.61 
            530         9116.07 
            540         11583.8 
            550         16907.4 
            560         22267.4 
            570         29595.7 
            580         34526.1 
            590         48092.8 
            600         62184.4 
            610         79372.4 
            620         98141.7 
            630          122435 
            640          147601 
            650          181347 
            658          214606 
            665          242492 
            675          288171 
            685          344594 
            695          414833 
            705          488071 
            716          579891 
            726          675807 
            735          772810 
            745          899494 
            755      1.03979e+6 
            765      1.18814e+6 
            775      1.36441e+6 
            785      1.55436e+6 
            795      1.75399e+6 
            805      1.98217e+6 
            815      2.22053e+6 
            825      2.50112e+6 
            835      2.75831e+6 
            845      3.09372e+6 
            855      3.42724e+6 
            865      3.81626e+6 
            875      4.21819e+6 
            885      4.67746e+6 
            895      5.13719e+6 
            905      5.52566e+6 
            915      8.76144e+6 
            925      2.63368e+7 
            935      4.90226e+7 
            945      1.91966e+8 
            955      8.75913e+8 
            965      1.33603e+9 
            975      3.02319e+8 
            985      3.57977e+9 
            995      4.54119e+9 
           1005      4.98389e+9 
           1015      2.64084e+9 
           1025      1.58681e+8 
           1035      1.70112e+9 
           1045      5.51454e+9 
           1055      6.22182e+9 
           1065       5.4037e+9 
           1075       6.3403e+9 
           1085      5.85595e+9 
           1095      6.28079e+9 
           1105      5.71809e+9 
           1115      5.60295e+9 
           1125       5.3877e+9 
           1135      5.93801e+9 
           1145      5.28675e+9 
           1155      5.53223e+9 
           1165      5.77047e+9 
           1175       4.9231e+9 
           1185      5.37183e+9 
           1195      3.29975e+9 
           1205      1.70716e+9 
           1215      2.06317e+8 
           1225       1.2273e+9 
           1235      3.95569e+9 
           1245       4.8731e+9 
           1255      4.94763e+9 
           1265       4.4808e+9 
           1275      4.97926e+9 
           1285      5.14276e+9 
           1295      4.19428e+9 
           1305      3.69136e+9 
           1315      4.84086e+9 
           1325      4.66399e+9 
           1335      4.27942e+9 
           1345      4.65189e+9 
           1355      4.47247e+9 
           1365      4.23006e+9 
           1375      4.25245e+9 
           1385      4.29515e+9 
           1395      4.08396e+9 
           1405      4.16744e+9 
           1415      4.02333e+9 
           1425       4.0396e+9 
           1435      3.96922e+9 
           1442      4.06557e+9 
           1447      4.03285e+9 
           1455      3.94289e+9 
           1465       3.8006e+9 
           1475      3.71894e+9 
           1485      3.60598e+9 
           1495      3.62583e+9 
           1505      3.48733e+9 
           1512      3.31323e+9 
           1517      3.42664e+9 
           1525      3.36859e+9 
           1535      3.18223e+9 
           1545      3.28842e+9 
           1555      3.10261e+9 
           1565       3.0234e+9 
           1575      3.12045e+9 
           1585      3.12453e+9 
           1595      3.15345e+9 
           1605      3.01176e+9 
           1615      2.99104e+9 
           1625      2.87673e+9 
           1635      2.90591e+9 
           1645      2.87389e+9 
           1655      2.69402e+9 
           1665      2.86017e+9 
           1672      2.72577e+9 
           1677      2.76419e+9 
           1685      2.79453e+9 
           1695       2.6995e+9 
           1705      2.59341e+9 
           1715      2.50113e+9 
           1725      2.46196e+9 
           1735       2.5219e+9 
           1745       2.4379e+9 
           1755      2.49361e+9 
           1765      2.29782e+9 
           1775      2.39469e+9 
           1785      2.37053e+9 
           1795      2.39821e+9 
           1805      2.36211e+9 
           1815      2.27989e+9 
           1825      2.28642e+9 
           1835      2.21368e+9 
           1845      2.10708e+9 
           1855      2.05377e+9 
           1865      2.05552e+9 
           1875      2.12935e+9 
           1885      2.01139e+9 
           1895      1.94228e+9 
           1905      2.01329e+9 
           1915      1.93531e+9 
           1925      1.90488e+9 
           1935      1.91322e+9 
           1945      1.93851e+9 
           1955      1.84135e+9 
           1967      1.90249e+9 
           1976      1.92466e+9 
           1984      1.84457e+9 
           1995      1.78358e+9 
           2005      1.80398e+9 
           2015      1.75726e+9 
           2025      1.80426e+9 
           2035      1.74136e+9 
           2045       1.7314e+9 
           2055      1.66222e+9 
           2065       1.6792e+9 
           2074      1.69199e+9 
           2078      1.65983e+9 
           2085      1.67045e+9 
           2095       1.6118e+9 
           2105      1.62279e+9 
           2115      1.60656e+9 
           2125      1.61492e+9 
           2135      1.56916e+9 
           2145      1.55579e+9 
           2155      1.55558e+9 
           2165      1.51319e+9 
           2175      1.49605e+9 
           2185      1.47599e+9 
           2195      1.48681e+9 
           2205      1.44624e+9 
           2215      1.41355e+9 
           2225       1.3731e+9 
           2235      1.40858e+9 
           2245      1.37431e+9 
           2255      1.34074e+9 
           2265      1.34581e+9 
           2275      1.34194e+9 
           2285       1.3409e+9 
           2295      1.30306e+9 
           2305      1.28235e+9 
           2315      1.25977e+9 
           2325      1.25146e+9 
           2335      1.21299e+9 
           2345      1.17232e+9 
           2355      1.18989e+9 
           2365      1.15149e+9 
           2375      1.16105e+9 
           2385      1.11769e+9 
           2395      1.14516e+9 
           2405      1.11136e+9 
           2415      1.11038e+9 
           2425      1.11527e+9 
           2435      1.07671e+9 
           2445       1.0879e+9 
           2455       1.0793e+9 
           2465      1.05723e+9 
           2475      1.04151e+9 
           2485      1.05785e+9 
           2495      1.02851e+9 
           2505      1.04337e+9 
           2513      1.01419e+9 
           2518      1.02514e+9 
           2525      9.90096e+8 
           2535      9.77668e+8 
           2545      9.66627e+8 
           2555      9.83082e+8 
           2565      9.68732e+8 
           2575      9.78325e+8 
           2585      9.74942e+8 
           2595       9.6554e+8 
           2605      9.46372e+8 
           2615      9.38873e+8 
           2625      9.30312e+8 
           2635      9.25326e+8 
           2645      9.41766e+8 
           2655      9.31212e+8 
           2665      9.09119e+8 
           2675      9.11706e+8 
           2685      9.02471e+8 
           2695      8.87643e+8 
           2705      8.82688e+8 
           2715      8.66436e+8 
           2725      8.55116e+8 
           2735       8.6071e+8 
           2745      8.26302e+8 
           2755      8.20563e+8 
           2765      8.23311e+8 
           2775      8.29373e+8 
           2785      8.20368e+8 
           2795      7.85429e+8 
           2805      8.00428e+8 
           2815      8.04497e+8 
           2825      7.91825e+8 
           2835      7.73031e+8 
           2845       7.6607e+8 
           2855      7.65612e+8 
           2865      7.67712e+8 
           2875      7.55954e+8 
           2885      7.52081e+8 
           2895      7.47253e+8 
           2910      7.40771e+8 
           2930      7.22135e+8 
           2950      7.07615e+8 
           2970      7.00081e+8 
           2990      6.86365e+8 
           3010      6.78688e+8 
           3030      6.68157e+8 
           3050      6.55738e+8 
           3070      6.44264e+8 
           3090      6.34255e+8 
           3110      6.22306e+8 
           3130      6.12648e+8 
           3150      6.02122e+8 
           3170      5.92261e+8 
           3190      5.77528e+8 
           3210      5.72145e+8 
           3230      5.63276e+8 
           3250      5.54296e+8 
           3270      5.45916e+8 
           3290      5.37002e+8 
           3310      5.28916e+8 
           3330      5.20271e+8 
           3350      5.11358e+8 
           3370      5.03648e+8 
           3390      4.95723e+8 
           3410      4.88144e+8 
           3430      4.80034e+8 
           3450      4.72142e+8 
           3470       4.6512e+8 
           3490      4.58381e+8 
           3510      4.51582e+8 
           3530      4.44696e+8 
           3550      4.37846e+8 
           3570      4.31831e+8 
           3590      4.24168e+8 
           3610       4.1844e+8 
           3630      4.11698e+8 
           3640      4.09667e+8 
           3650       4.0635e+8 
           3670      4.01626e+8 
           3690      3.95458e+8 
           3710      3.83925e+8 
           3730      3.65062e+8 
           3750      3.75216e+8 
           3770      3.74638e+8 
           3790      4.11216e+8 
           3810      4.46357e+8 
           3830      3.78119e+8 
           3850      4.72129e+8 
           3870      5.04967e+8 
           3890      3.44487e+8 
           3910      5.00652e+8 
           3930      5.14229e+8 
           3950      4.89018e+8 
           3970      3.24982e+8 
           3990      4.63762e+8 
           4010      4.88574e+8 
           4030      4.58963e+8 
           4050      4.82255e+8 
           4070      4.65701e+8 
           4090      3.86839e+8 
           4110      3.21708e+8 
           4130       4.3144e+8 
           4150       4.4046e+8 
           4170      4.39452e+8 
           4190      4.34751e+8 
           4210      4.28441e+8 
           4230      4.21515e+8 
           4250      4.14554e+8 
           4270      4.04977e+8 
           4290      3.98896e+8 
           4310      3.83785e+8 
           4330       3.1197e+8 
           4350      2.78448e+8 
           4370      3.62646e+8 
           4390      3.57434e+8 
           4410      3.65144e+8 
           4430      3.59109e+8 
           4450      3.55318e+8 
           4470      3.31839e+8 
           4490      3.41895e+8 
           4510      3.40648e+8 
           4530       3.3526e+8 
           4550      3.30281e+8 
           4570      3.25755e+8 
           4590      3.20902e+8 
           4610       3.1628e+8 
           4630      3.11304e+8 
           4650      3.06959e+8 
           4670      3.02625e+8 
           4690      2.98354e+8 
           4710      2.89865e+8 
           4730      2.89153e+8 
           4750       2.8462e+8 
           4770      2.81095e+8 
           4790      2.76405e+8 
           4810      2.70545e+8 
           4830      2.60752e+8 
           4850        2.198e+8 
           4870      1.91042e+8 
           4890      2.46357e+8 
           4910      2.51199e+8 
           4930      2.43755e+8 
           4950      2.47509e+8 
           4970      2.44819e+8 
           4990      2.41499e+8 
           5010      2.34622e+8 
           5030      2.34651e+8 
           5050      2.28911e+8 
           5070      2.28735e+8 
           5090      2.25633e+8 
           5110      2.22441e+8 
           5130      2.19608e+8 
           5150        2.165e+8 
           5170      2.13813e+8 
           5190      2.11063e+8 
           5210        2.076e+8 
           5230      2.05506e+8 
           5250      2.02932e+8 
           5270      2.00146e+8 
           5290      1.97828e+8 
           5310      1.95178e+8 
           5330      1.92682e+8 
           5350      1.90046e+8 
           5370      1.87889e+8 
           5390      1.85485e+8 
           5410      1.83048e+8 
           5430      1.80552e+8 
           5450      1.78405e+8 
           5470      1.76108e+8 
           5490      1.74077e+8 
           5510      1.71848e+8 
           5530      1.69782e+8 
           5550      1.67692e+8 
           5570      1.65604e+8 
           5590      1.63577e+8 
           5610      1.61527e+8 
           5630      1.59656e+8 
           5650      1.57324e+8 
           5670      1.55501e+8 
           5690      1.53817e+8 
           5710      1.52036e+8 
           5730      1.50219e+8 
           5750      1.48413e+8 
           5770       1.4665e+8 
           5790      1.44875e+8 
           5810      1.43142e+8 
           5830      1.41464e+8 
           5850      1.39783e+8 
           5870      1.34382e+8 
           5890      1.36131e+8 
           5910      1.34909e+8 
           5930       1.3338e+8 
           5950      1.31612e+8 
           5970      1.30256e+8 
           5990      1.28632e+8 
           6010      1.27307e+8 
           6030      1.25832e+8 
           6050      1.24395e+8 
           6070      1.22963e+8 
           6090      1.21557e+8 
           6110      1.20208e+8 
           6130      1.18843e+8 
           6150      1.17364e+8 
           6170      1.16159e+8 
           6190      1.14879e+8 
           6210      1.13593e+8 
           6230      1.12292e+8 
           6250      1.10938e+8 
           6270      1.09829e+8 
           6290      1.08608e+8 
           6310      1.07381e+8 
           6330      1.06234e+8 
           6350      1.04566e+8 
           6370      1.03585e+8 
           6390      1.02772e+8 
           6410      1.01609e+8 
           6430      1.00577e+8 
           6450      9.94289e+7 
           6470      9.82211e+7 
           6490      9.69727e+7 
           6510      9.55066e+7 
           6530      9.31378e+7 
           6550      8.45177e+7 
           6570      7.33291e+7 
           6590       8.8318e+7 
           6610      9.02158e+7 
           6630      8.98866e+7 
           6650      8.91594e+7 
           6670      8.75924e+7 
           6690      8.68169e+7 
           6710      8.66181e+7 
           6730      8.57298e+7 
           6750      8.48422e+7 
           6770      8.39717e+7 
           6790      8.30692e+7 
           6810      8.22327e+7 
           6830      8.13803e+7 
           6850      8.05606e+7 
           6870       7.9745e+7 
           6890      7.89327e+7 
           6910      7.81293e+7 
           6930      7.73001e+7 
           6950      7.65587e+7 
           6970      7.57958e+7 
           6990      7.50296e+7 
           7010      7.42678e+7 
           7030      7.35295e+7 
           7050      7.27461e+7 
           7070      7.13425e+7 
           7090       7.1367e+7 
           7110      7.06463e+7 
           7130      6.99578e+7 
           7150      6.92634e+7 
           7170      6.85932e+7 
           7190      6.79257e+7 
           7210      6.72617e+7 
           7230       6.6449e+7 
           7250      6.59453e+7 
           7270      6.53199e+7 
           7290      6.44261e+7 
           7310      6.40635e+7 
           7330      6.34472e+7 
           7350      6.28395e+7 
           7370      6.22374e+7 
           7390       6.1643e+7 
           7410      6.10555e+7 
           7430      6.04522e+7 
           7450      5.98952e+7 
           7470       5.9311e+7 
           7490       5.8761e+7 
           7510      5.82106e+7 
           7530      5.76732e+7 
           7550      5.71335e+7 
           7570      5.66025e+7 
           7590      5.60718e+7 
           7610       5.5555e+7 
           7630      5.50389e+7 
           7650      5.45275e+7 
           7670      5.40245e+7 
           7690       5.3526e+7 
           7710      5.30351e+7 
           7730      5.25479e+7 
           7750      5.20675e+7 
           7770      5.13243e+7 
           7790      5.11232e+7 
           7810      5.06573e+7 
           7830      5.02028e+7 
           7850      4.96979e+7 
           7870      4.92431e+7 
           7890      4.87481e+7 
           7910      4.84248e+7 
           7930      4.79945e+7 
           7950      4.75167e+7 
           7970      4.71385e+7 
           7990      4.66397e+7 
           8010      4.63078e+7 
           8030      4.58975e+7 
           8050      4.54918e+7 
           8070      4.50913e+7 
           8090      4.46902e+7 
           8110      4.42982e+7 
           8130      4.39101e+7 
           8150      4.35276e+7 
           8170      4.31522e+7 
           8190      4.27648e+7 
           8210      4.23387e+7 
           8230      4.19735e+7 
           8250      4.16828e+7 
           8270      4.13019e+7 
           8290      4.09828e+7 
           8310      4.06581e+7 
           8330      4.03149e+7 
           8350      3.99404e+7 
           8370      3.96352e+7 
           8390      3.93304e+7 
           8410      3.89917e+7 
           8430      3.86479e+7 
           8450      3.81681e+7 
           8470      3.79587e+7 
           8490      3.76096e+7 
           8510      3.72078e+7 
           8530      3.69782e+7 
           8550      3.62648e+7 
           8570      3.65209e+7 
           8590      3.54882e+7 
