# Kurucz ODFNEW /NOVER (2003)
# teff = 32000 K (value for the effective temperature for the model. Temperatures are given in K)
# logg = 5 log(cm/s2) (value for Log(G) for the model.)
# meta = 0.5  (value for the Metallicity for the model.)
# lh = 1.25  (l/Hp where l is the  mixing length of the convective element and Hp is the pressure scale height)
# vtur = 2 km/s (Microturbulence velocity)
# alpha = 0  (Alpha)
#
# column 1: WAVELENGTH (ANGSTROM), Wavelength in Angstrom
# column 2: FLUX (ERG/CM2/S/A), Flux in erg/cm2/s/A
          147.2      9.97189e-7 
            151      2.76686e-6 
          155.2      8.08574e-6 
          158.8      1.94225e-5 
            162       4.1075e-5 
            166     0.000100767 
          170.3     0.000251611 
          173.4      0.00047662 
          176.8     0.000934452 
          180.2      0.00178387 
          181.7      0.00235966 
          186.1       0.0051991 
            191       0.0120389 
          193.9        0.019385 
          198.4       0.0395703 
          201.8       0.0663553 
            205        0.106246 
          210.5        0.231401 
          216.2        0.495308 
          219.8        0.788907 
            223         1.17597 
          226.8         1.94706 
            230         162.727 
            234          336.88 
            240          575.33 
          246.5          1028.9 
          252.4         1732.15 
          256.8         2474.22 
            260         3948.08 
            264         5924.23 
          268.5         8800.01 
          273.5         12563.6 
          278.5         16984.9 
            284         35063.4 
            290         51850.7 
            296         72270.7 
            301          101271 
            308          217951 
            318          432335 
            328          661265 
            338      1.15115e+6 
            348      1.81471e+6 
            357      5.03423e+6 
            366        1.047e+7 
            375      1.30337e+7 
            385      1.94875e+7 
            395      3.98641e+7 
            405      4.97483e+7 
            414      7.02175e+7 
            422       8.2816e+7 
            430      1.02025e+8 
            441      1.29032e+8 
            451      1.46251e+8 
            460      1.60302e+8 
            470      1.98938e+8 
            480      2.39952e+8 
            490      2.76389e+8 
            500      3.25931e+8 
            506      5.46799e+8 
            512      4.43865e+9 
            520      4.19752e+9 
            530      3.93159e+9 
            540      3.63435e+9 
            550      4.71416e+9 
            560      5.79666e+9 
            570      6.01666e+9 
            580      5.52406e+9 
            590      6.06501e+9 
            600      5.07057e+9 
            610      6.19644e+9 
            620      7.13042e+9 
            630      6.92493e+9 
            640      6.52811e+9 
            650      6.63249e+9 
            658        5.902e+9 
            665      6.81141e+9 
            675      7.32267e+9 
            685      5.88235e+9 
            695      8.28996e+9 
            705      6.87538e+9 
            716      8.90942e+9 
            726      8.60563e+9 
            735      8.60677e+9 
            745       8.7309e+9 
            755      8.75824e+9 
            765       9.0406e+9 
            775      9.35324e+9 
            785      9.74615e+9 
            795      9.68967e+9 
            805      9.33997e+9 
            815      9.24092e+9 
            825      9.87841e+9 
            835      7.88283e+9 
            845      9.34721e+9 
            855      9.17828e+9 
            865      9.54329e+9 
            875      9.69053e+9 
            885     1.00197e+10 
            895     1.01281e+10 
            905      9.73993e+9 
            915      9.96017e+9 
            925     2.82887e+10 
            935     4.96603e+10 
            945     7.73687e+10 
            955     8.87314e+10 
            965     1.06883e+11 
            975     2.93362e+10 
            985     8.39834e+10 
            995      7.5618e+10 
           1005     8.25166e+10 
           1015     8.76527e+10 
           1025     5.67555e+10 
           1035     8.02993e+10 
           1045     1.02163e+11 
           1055     9.44984e+10 
           1065     7.51084e+10 
           1075     8.22391e+10 
           1085     7.42114e+10 
           1095     8.08647e+10 
           1105     7.59522e+10 
           1115     7.47626e+10 
           1125     5.58207e+10 
           1135      7.0911e+10 
           1145      6.6833e+10 
           1155     6.41953e+10 
           1165     6.16129e+10 
           1175     3.57867e+10 
           1185     5.59182e+10 
           1195     5.42159e+10 
           1205     4.88598e+10 
           1215     3.48345e+10 
           1225      4.9454e+10 
           1235     5.45597e+10 
           1245     5.19392e+10 
           1255     5.15884e+10 
           1265     5.35092e+10 
           1275     5.54541e+10 
           1285       5.571e+10 
           1295     4.79026e+10 
           1305     4.93192e+10 
           1315     5.46285e+10 
           1325     5.15839e+10 
           1335     5.00721e+10 
           1345     4.93365e+10 
           1355       4.881e+10 
           1365     4.58592e+10 
           1375     4.40409e+10 
           1385     4.18557e+10 
           1395     2.99095e+10 
           1405     3.19109e+10 
           1415     3.87167e+10 
           1425     3.50733e+10 
           1435     3.77237e+10 
           1442     3.77279e+10 
           1447     3.74065e+10 
           1455     3.54356e+10 
           1465     3.34282e+10 
           1475     3.41383e+10 
           1485     3.39107e+10 
           1495     3.27962e+10 
           1505      3.0286e+10 
           1512     2.85957e+10 
           1517     2.91425e+10 
           1525     2.86853e+10 
           1535     2.38775e+10 
           1545      2.0858e+10 
           1555     2.07339e+10 
           1565     2.34723e+10 
           1575     2.49277e+10 
           1585      2.5181e+10 
           1595     2.50603e+10 
           1605     2.45427e+10 
           1615     2.31391e+10 
           1625     2.36499e+10 
           1635     2.43169e+10 
           1645       2.449e+10 
           1655     2.43036e+10 
           1665     2.41389e+10 
           1672     2.22217e+10 
           1677     2.63211e+10 
           1685     2.47489e+10 
           1695     2.35582e+10 
           1705     2.31725e+10 
           1715      2.1936e+10 
           1725     2.07886e+10 
           1735      2.1741e+10 
           1745     2.15594e+10 
           1755     2.13792e+10 
           1765     2.10711e+10 
           1775      1.9873e+10 
           1785     2.03651e+10 
           1795     2.01681e+10 
           1805     2.01383e+10 
           1815     1.89095e+10 
           1825     1.89291e+10 
           1835     1.86663e+10 
           1845     1.71796e+10 
           1855     1.77437e+10 
           1865      1.7894e+10 
           1875     1.77208e+10 
           1885     1.62589e+10 
           1895     1.55307e+10 
           1905     1.63376e+10 
           1915     1.56302e+10 
           1925      1.4478e+10 
           1935      1.5683e+10 
           1945     1.60918e+10 
           1955     1.42155e+10 
           1967      1.5246e+10 
           1976     1.59266e+10 
           1984     1.48691e+10 
           1995     1.46337e+10 
           2005     1.49847e+10 
           2015     1.49069e+10 
           2025     1.50559e+10 
           2035     1.39904e+10 
           2045     1.39908e+10 
           2055     1.21065e+10 
           2065     1.18322e+10 
           2074     1.22413e+10 
           2078     1.16166e+10 
           2085     1.20258e+10 
           2095     1.19396e+10 
           2105     1.28892e+10 
           2115      1.3048e+10 
           2125     1.29372e+10 
           2135      1.2708e+10 
           2145     1.22983e+10 
           2155     1.25105e+10 
           2165      1.2093e+10 
           2175       1.217e+10 
           2185     1.18103e+10 
           2195     1.19962e+10 
           2205     1.18551e+10 
           2215     1.14803e+10 
           2225     1.14017e+10 
           2235     1.11717e+10 
           2245     1.10895e+10 
           2255     1.07128e+10 
           2265     1.08064e+10 
           2275     1.06694e+10 
           2285     1.03915e+10 
           2295      9.11027e+9 
           2305      9.92978e+9 
           2315      9.82801e+9 
           2325      9.78965e+9 
           2335      9.60164e+9 
           2345      9.58912e+9 
           2355      9.38015e+9 
           2365      9.24374e+9 
           2375      8.97839e+9 
           2385      8.72046e+9 
           2395      8.70493e+9 
           2405      8.66461e+9 
           2415      8.54908e+9 
           2425      8.50626e+9 
           2435      8.29421e+9 
           2445      8.24478e+9 
           2455       8.1615e+9 
           2465      8.05263e+9 
           2475       7.9225e+9 
           2485      7.67402e+9 
           2495      5.87653e+9 
           2505      7.30822e+9 
           2513       7.0142e+9 
           2518      7.17294e+9 
           2525      7.36958e+9 
           2535      7.32621e+9 
           2545      7.08902e+9 
           2555      7.05211e+9 
           2565       6.9497e+9 
           2575      6.89469e+9 
           2585      6.82905e+9 
           2595      6.73008e+9 
           2605      6.67185e+9 
           2615      6.53443e+9 
           2625      6.49895e+9 
           2635      6.42584e+9 
           2645      6.29711e+9 
           2655      6.24763e+9 
           2665      6.00775e+9 
           2675      5.92343e+9 
           2685      5.97449e+9 
           2695      5.75648e+9 
           2705      5.63728e+9 
           2715      5.61576e+9 
           2725      5.61216e+9 
           2735      5.50069e+9 
           2745      5.47668e+9 
           2755      5.42906e+9 
           2765      5.32875e+9 
           2775       5.3682e+9 
           2785      5.26221e+9 
           2795      5.03703e+9 
           2805      5.07874e+9 
           2815      5.10548e+9 
           2825      5.01983e+9 
           2835      4.85324e+9 
           2845      4.90622e+9 
           2855      4.81136e+9 
           2865      4.75856e+9 
           2875      4.70455e+9 
           2885      4.63849e+9 
           2895      4.57909e+9 
           2910      4.45459e+9 
           2930      4.42514e+9 
           2950      4.27694e+9 
           2970      4.19711e+9 
           2990      4.06674e+9 
           3010      3.91541e+9 
           3030       3.8531e+9 
           3050      3.80552e+9 
           3070      3.75622e+9 
           3090      3.59345e+9 
           3110      3.58801e+9 
           3130      3.47727e+9 
           3150      3.42115e+9 
           3170        3.323e+9 
           3190       3.2624e+9 
           3210      3.19398e+9 
           3230      3.11537e+9 
           3250      3.07393e+9 
           3270      2.98279e+9 
           3290      2.93094e+9 
           3310      2.86623e+9 
           3330      2.79161e+9 
           3350       2.7338e+9 
           3370      2.67438e+9 
           3390      2.64367e+9 
           3410      2.58515e+9 
           3430      2.53975e+9 
           3450      2.47216e+9 
           3470      2.42666e+9 
           3490      2.37532e+9 
           3510      2.32953e+9 
           3530      2.29495e+9 
           3550      2.24459e+9 
           3570      2.20589e+9 
           3590      2.13949e+9 
           3610      2.10564e+9 
           3630      2.06547e+9 
           3640      2.05533e+9 
           3650      2.00291e+9 
           3670      1.97512e+9 
           3690      1.93897e+9 
           3710       1.8596e+9 
           3730      1.82379e+9 
           3750      1.79233e+9 
           3770      1.72635e+9 
           3790      1.76965e+9 
           3810      1.81538e+9 
           3830      1.61487e+9 
           3850      1.82325e+9 
           3870      1.78453e+9 
           3890      1.50432e+9 
           3910      1.80749e+9 
           3930      1.76165e+9 
           3950      1.70225e+9 
           3970      1.38715e+9 
           3990      1.66219e+9 
           4010      1.65563e+9 
           4030      1.56745e+9 
           4050      1.60125e+9 
           4070      1.51127e+9 
           4090      1.39748e+9 
           4110      1.26558e+9 
           4130      1.45365e+9 
           4150      1.44195e+9 
           4170      1.44239e+9 
           4190      1.41989e+9 
           4210       1.4011e+9 
           4230      1.37506e+9 
           4250      1.32628e+9 
           4270      1.29469e+9 
           4290      1.26999e+9 
           4310      1.22169e+9 
           4330      1.12063e+9 
           4350      1.04228e+9 
           4370      1.16397e+9 
           4390      1.15773e+9 
           4410       1.1505e+9 
           4430      1.14755e+9 
           4450      1.12363e+9 
           4470       1.0715e+9 
           4490      1.09135e+9 
           4510      1.07428e+9 
           4530       1.0632e+9 
           4550      1.04462e+9 
           4570      1.03244e+9 
           4590      1.01181e+9 
           4610       9.8431e+8 
           4630      9.61361e+8 
           4650      9.17131e+8 
           4670      9.38382e+8 
           4690       9.2661e+8 
           4710      8.96902e+8 
           4730      9.07149e+8 
           4750      8.91895e+8 
           4770       8.8968e+8 
           4790      8.73498e+8 
           4810      8.52995e+8 
           4830      8.32396e+8 
           4850      7.70323e+8 
           4870      6.93117e+8 
           4890      7.94213e+8 
           4910      7.88147e+8 
           4930      7.61507e+8 
           4950      7.63284e+8 
           4970       7.6121e+8 
           4990      7.48448e+8 
           5010      7.14462e+8 
           5030       7.2124e+8 
           5050      7.08655e+8 
           5070      7.05698e+8 
           5090      6.92762e+8 
           5110      6.80857e+8 
           5130      6.66326e+8 
           5150      6.58305e+8 
           5170      6.51559e+8 
           5190      6.43945e+8 
           5210      6.34958e+8 
           5230      6.25676e+8 
           5250      6.15205e+8 
           5270      6.05092e+8 
           5290      5.99327e+8 
           5310      5.90478e+8 
           5330      5.82488e+8 
           5350       5.7364e+8 
           5370      5.66278e+8 
           5390      5.57493e+8 
           5410      5.47844e+8 
           5430      5.43062e+8 
           5450      5.35076e+8 
           5470      5.27531e+8 
           5490      5.20182e+8 
           5510      5.13968e+8 
           5530       5.0565e+8 
           5550      5.00276e+8 
           5570      4.93192e+8 
           5590      4.86101e+8 
           5610      4.80187e+8 
           5630      4.73929e+8 
           5650      4.66331e+8 
           5670      4.57926e+8 
           5690      4.47289e+8 
           5710      4.43849e+8 
           5730      4.39207e+8 
           5750      4.31782e+8 
           5770      4.28681e+8 
           5790      4.22488e+8 
           5810      4.16772e+8 
           5830      4.09849e+8 
           5850      4.06083e+8 
           5870       3.8949e+8 
           5890      3.92192e+8 
           5910       3.8952e+8 
           5930      3.84508e+8 
           5950      3.79768e+8 
           5970      3.77587e+8 
           5990      3.70922e+8 
           6010      3.68134e+8 
           6030      3.62588e+8 
           6050       3.5863e+8 
           6070      3.55003e+8 
           6090      3.50715e+8 
           6110      3.46121e+8 
           6130      3.42212e+8 
           6150      3.35906e+8 
           6170      3.32476e+8 
           6190      3.29387e+8 
           6210      3.25823e+8 
           6230      3.22006e+8 
           6250      3.17055e+8 
           6270      3.13694e+8 
           6290      3.10255e+8 
           6310      3.06125e+8 
           6330      3.02953e+8 
           6350      2.98674e+8 
           6370      2.95882e+8 
           6390      2.92169e+8 
           6410      2.88744e+8 
           6430      2.85466e+8 
           6450      2.81896e+8 
           6470      2.77078e+8 
           6490      2.74228e+8 
           6510      2.70937e+8 
           6530      2.66462e+8 
           6550      2.54317e+8 
           6570      2.25759e+8 
           6590      2.54848e+8 
           6610      2.55377e+8 
           6630      2.53488e+8 
           6650      2.50483e+8 
           6670       2.4474e+8 
           6690      2.42118e+8 
           6710      2.41982e+8 
           6730      2.38516e+8 
           6750      2.36733e+8 
           6770      2.34333e+8 
           6790      2.29703e+8 
           6810       2.2877e+8 
           6830      2.26124e+8 
           6850       2.2393e+8 
           6870      2.21311e+8 
           6890      2.18401e+8 
           6910      2.15521e+8 
           6930      2.14303e+8 
           6950      2.11956e+8 
           6970       2.0964e+8 
           6990      2.07262e+8 
           7010      2.04893e+8 
           7030      2.02365e+8 
           7050      2.00346e+8 
           7070      1.95144e+8 
           7090      1.95994e+8 
           7110      1.93037e+8 
           7130      1.91096e+8 
           7150      1.89763e+8 
           7170      1.87878e+8 
           7190      1.86011e+8 
           7210      1.84103e+8 
           7230      1.79598e+8 
           7250      1.79741e+8 
           7270      1.78311e+8 
           7290      1.75052e+8 
           7310      1.74518e+8 
           7330      1.72627e+8 
           7350      1.70915e+8 
           7370      1.69184e+8 
           7390      1.67442e+8 
           7410      1.65695e+8 
           7430      1.63979e+8 
           7450      1.62251e+8 
           7470      1.59675e+8 
           7490      1.58515e+8 
           7510      1.57264e+8 
           7530        1.555e+8 
           7550      1.54181e+8 
           7570      1.52585e+8 
           7590       1.5088e+8 
           7610      1.49112e+8 
           7630      1.47911e+8 
           7650      1.46443e+8 
           7670      1.45066e+8 
           7690       1.4342e+8 
           7710      1.42012e+8 
           7730      1.40401e+8 
           7750      1.39364e+8 
           7770      1.37861e+8 
           7790      1.36664e+8 
           7810      1.35279e+8 
           7830      1.33993e+8 
           7850      1.32687e+8 
           7870      1.31029e+8 
           7890      1.29572e+8 
           7910      1.28605e+8 
           7930      1.27328e+8 
           7950      1.26295e+8 
           7970      1.25039e+8 
           7990      1.23877e+8 
           8010      1.22619e+8 
           8030      1.21401e+8 
           8050      1.20374e+8 
           8070        1.192e+8 
           8090       1.1799e+8 
           8110      1.15891e+8 
           8130      1.15857e+8 
           8150       1.1471e+8 
           8170      1.13726e+8 
           8190      1.11795e+8 
           8210      1.10815e+8 
           8230      1.09404e+8 
           8250      1.09107e+8 
           8270       1.0701e+8 
           8290      1.06993e+8 
           8310      1.06217e+8 
           8330      1.05137e+8 
           8350      1.03754e+8 
           8370      1.03054e+8 
           8390      1.02429e+8 
           8410      1.01341e+8 
           8430      1.00553e+8 
           8450      9.90648e+7 
           8470      9.87498e+7 
           8490      9.76631e+7 
           8510      9.65595e+7 
           8530      9.58536e+7 
           8550      9.49676e+7 
           8570      9.43915e+7 
           8590      9.23391e+7 
