# Kurucz ODFNEW /NOVER (2003)
# teff = 7500 K (value for the effective temperature for the model. Temperatures are given in K)
# logg = 2.5 log(cm/s2) (value for Log(G) for the model.)
# meta = -1.5  (value for the Metallicity for the model.)
# lh = 1.25  (l/Hp where l is the  mixing length of the convective element and Hp is the pressure scale height)
# vtur = 2 km/s (Microturbulence velocity)
# alpha = 0.4  (Alpha)
#
# column 1: WAVELENGTH (ANGSTROM), Wavelength in Angstrom
# column 2: FLUX (ERG/CM2/S/A), Flux in erg/cm2/s/A
            357     3.59145e-23 
            366     2.86915e-22 
            375     1.90046e-21 
            385     1.38754e-20 
            395     9.12239e-20 
            405      5.4475e-19 
            414     2.52067e-18 
            422     9.29427e-18 
            430     3.25894e-17 
            441     6.83235e-18 
            451     2.62394e-17 
            460     8.35196e-17 
            470     2.86069e-16 
            480     9.26944e-16 
            490     2.85426e-15 
            500     8.36641e-15 
            506     4.45493e-13 
            512     1.18708e-12 
            520     9.38995e-14 
            530     2.42963e-13 
            540     5.95338e-13 
            550     1.42572e-12 
            560     3.28065e-12 
            570     7.31126e-12 
            580     1.56291e-11 
            590     3.32087e-11 
            600     6.78929e-11 
            610     1.35272e-10 
            620     2.62956e-10 
            630     4.99392e-10 
            640     9.28027e-10 
            650      1.68873e-9 
            658      2.68666e-9 
            665       3.9919e-9 
            675      6.91843e-9 
            685      1.17774e-8 
            695      1.97082e-8 
            705       3.2432e-8 
            716      5.51276e-8 
            726      8.78789e-8 
            735        1.321e-7 
            745      2.05122e-7 
            755      3.14337e-7 
            765       4.7563e-7 
            775      7.11027e-7 
            785      1.05061e-6 
            795      1.53291e-6 
            805      2.21785e-6 
            815      3.17355e-6 
            825      4.49546e-6 
            835      6.30778e-6 
            845         8.77e-6 
            855      1.20843e-5 
            865      1.65092e-5 
            875      2.23619e-5 
            885      3.00686e-5 
            895      4.01108e-5 
            905      5.30901e-5 
            915         0.15849 
            925        0.856114 
            935          1.2263 
            945         1.77412 
            955         2.52216 
            965         3.17448 
            975         3.04808 
            985          5.1732 
            995          6.1763 
           1005         7.91411 
           1015         8.51917 
           1025         8.37742 
           1035         13.1402 
           1045         18.1088 
           1055         22.4168 
           1065         26.6983 
           1075         32.8343 
           1085         39.7074 
           1095         46.3157 
           1105         118.046 
           1115         280.472 
           1125         350.111 
           1135         437.784 
           1145         484.825 
           1155         463.165 
           1165         501.547 
           1175         462.185 
           1185         721.171 
           1195         174.026 
           1205         106.917 
           1215         29.3911 
           1225         123.144 
           1235         320.407 
           1245         524.812 
           1255         931.523 
           1265          1380.5 
           1275         2017.24 
           1285         3007.04 
           1295          4007.6 
           1305         4447.02 
           1315         6302.26 
           1325         8243.25 
           1335         10644.5 
           1345         15176.6 
           1355         18816.3 
           1365         24782.7 
           1375         28771.4 
           1385         30364.6 
           1395         36421.9 
           1405         55861.7 
           1415         91309.9 
           1425          113951 
           1435          121814 
           1442          172519 
           1447          164731 
           1455          226142 
           1465          215131 
           1475          246076 
           1485          291940 
           1495          345626 
           1505          411803 
           1512          409795 
           1517          222784 
           1525          231906 
           1535          502189 
           1545          779034 
           1555          721481 
           1565          536156 
           1575          648859 
           1585          633739 
           1595          616326 
           1605          626424 
           1615          988208 
           1625      1.54137e+6 
           1635      2.40478e+6 
           1645      3.89172e+6 
           1655      2.99882e+6 
           1665      5.28126e+6 
           1672      3.67811e+6 
           1677      6.27519e+6 
           1685      6.97923e+6 
           1695      6.81346e+6 
           1705      7.12138e+6 
           1715      8.19289e+6 
           1725      8.22655e+6 
           1735       9.2029e+6 
           1745      8.88975e+6 
           1755      9.96784e+6 
           1765      8.31696e+6 
           1775      9.60434e+6 
           1785      9.74863e+6 
           1795        1.089e+7 
           1805       9.7935e+6 
           1815      1.02722e+7 
           1825      9.29284e+6 
           1835      9.82183e+6 
           1845      8.90797e+6 
           1855      9.55469e+6 
           1865      9.90275e+6 
           1875      1.00524e+7 
           1885      1.02571e+7 
           1895      1.04815e+7 
           1905      9.78286e+6 
           1915      1.06766e+7 
           1925      1.10113e+7 
           1935      1.01049e+7 
           1945      1.14054e+7 
           1955      1.13491e+7 
           1967      1.18031e+7 
           1976      1.13726e+7 
           1984      1.13165e+7 
           1995      1.11475e+7 
           2005      1.08014e+7 
           2015      1.08113e+7 
           2025       1.0149e+7 
           2035      1.11439e+7 
           2045      1.16892e+7 
           2055      1.11965e+7 
           2065      1.11193e+7 
           2074      1.20713e+7 
           2078      1.23085e+7 
           2085      1.20752e+7 
           2095      1.17241e+7 
           2105      1.14089e+7 
           2115      1.15607e+7 
           2125      1.17467e+7 
           2135      9.98804e+6 
           2145      1.14034e+7 
           2155      1.13619e+7 
           2165      1.08078e+7 
           2175      1.08194e+7 
           2185      1.12264e+7 
           2195      1.19985e+7 
           2205      1.15901e+7 
           2215      1.06295e+7 
           2225      1.08385e+7 
           2235        1.218e+7 
           2245      1.10514e+7 
           2255      1.06839e+7 
           2265      1.05157e+7 
           2275      1.14352e+7 
           2285      1.17646e+7 
           2295      1.09449e+7 
           2305      1.12997e+7 
           2315       1.1319e+7 
           2325      1.12427e+7 
           2335      1.06878e+7 
           2345      9.46923e+6 
           2355      1.13378e+7 
           2365      9.90921e+6 
           2375      1.09326e+7 
           2385      9.05426e+6 
           2395      1.01374e+7 
           2405      9.84025e+6 
           2415      1.01161e+7 
           2425       1.1243e+7 
           2435      1.08999e+7 
           2445      1.14474e+7 
           2455      1.12056e+7 
           2465      1.12159e+7 
           2475      1.06513e+7 
           2485      1.10947e+7 
           2495      1.08467e+7 
           2505      1.20973e+7 
           2513      1.08691e+7 
           2518      1.09484e+7 
           2525      1.02064e+7 
           2535      9.87224e+6 
           2545      1.00356e+7 
           2555      1.09267e+7 
           2565      1.09488e+7 
           2575      1.17633e+7 
           2585       1.1854e+7 
           2595      1.16946e+7 
           2605      1.12069e+7 
           2615      1.09858e+7 
           2625      1.19476e+7 
           2635      1.21007e+7 
           2645      1.35883e+7 
           2655      1.35957e+7 
           2665      1.26382e+7 
           2675      1.30841e+7 
           2685      1.33077e+7 
           2695      1.25654e+7 
           2705      1.28114e+7 
           2715      1.21724e+7 
           2725      1.22984e+7 
           2735      1.31136e+7 
           2745      1.11624e+7 
           2755      1.16607e+7 
           2765      1.21762e+7 
           2775       1.3003e+7 
           2785       1.2477e+7 
           2795      7.45933e+6 
           2805      8.83406e+6 
           2815      1.34143e+7 
           2825       1.3589e+7 
           2835      1.33223e+7 
           2845      1.29807e+7 
           2855      1.22928e+7 
           2865      1.32067e+7 
           2875      1.30225e+7 
           2885      1.33601e+7 
           2895      1.30895e+7 
           2910       1.4169e+7 
           2930      1.38016e+7 
           2950       1.3764e+7 
           2970      1.40234e+7 
           2990      1.41348e+7 
           3010      1.42956e+7 
           3030      1.43361e+7 
           3050      1.43115e+7 
           3070      1.42239e+7 
           3090      1.44811e+7 
           3110      1.42834e+7 
           3130      1.43279e+7 
           3150      1.45616e+7 
           3170      1.46067e+7 
           3190      1.40969e+7 
           3210       1.4404e+7 
           3230      1.40969e+7 
           3250      1.44372e+7 
           3270      1.45743e+7 
           3290      1.48195e+7 
           3310      1.49253e+7 
           3330      1.46579e+7 
           3350      1.44888e+7 
           3370      1.45727e+7 
           3390      1.45888e+7 
           3410      1.48695e+7 
           3430      1.49793e+7 
           3450      1.48745e+7 
           3470      1.47765e+7 
           3490      1.48049e+7 
           3510      1.49996e+7 
           3530      1.50729e+7 
           3550       1.5195e+7 
           3570      1.49032e+7 
           3590      1.48981e+7 
           3610      1.49699e+7 
           3630       1.5037e+7 
           3640      1.49374e+7 
           3650      1.52069e+7 
           3670      1.50265e+7 
           3690      1.50799e+7 
           3710      1.83092e+7 
           3730      2.16446e+7 
           3750      2.94552e+7 
           3770       3.1325e+7 
           3790      3.79061e+7 
           3810      4.37326e+7 
           3830      3.47454e+7 
           3850      4.75788e+7 
           3870      5.22927e+7 
           3890      3.15707e+7 
           3910      5.17039e+7 
           3930      4.83666e+7 
           3950      5.17268e+7 
           3970      2.95797e+7 
           3990      5.01364e+7 
           4010      5.40959e+7 
           4030      5.38132e+7 
           4050      5.31842e+7 
           4070      5.12301e+7 
           4090      4.23683e+7 
           4110       3.2909e+7 
           4130      4.92156e+7 
           4150      5.05645e+7 
           4170      4.99463e+7 
           4190      4.95372e+7 
           4210      4.90591e+7 
           4230       4.8171e+7 
           4250      4.78772e+7 
           4270      4.72025e+7 
           4290      4.63499e+7 
           4310      4.38217e+7 
           4330      3.57502e+7 
           4350      3.07237e+7 
           4370      4.36426e+7 
           4390      4.39242e+7 
           4410      4.35112e+7 
           4430      4.36989e+7 
           4450      4.31529e+7 
           4470      4.28374e+7 
           4490       4.2365e+7 
           4510      4.21309e+7 
           4530      4.14201e+7 
           4550      4.06782e+7 
           4570      4.08515e+7 
           4590      4.03085e+7 
           4610      4.04559e+7 
           4630      3.97134e+7 
           4650      3.96095e+7 
           4670      3.92399e+7 
           4690      3.86987e+7 
           4710      3.77679e+7 
           4730      3.80604e+7 
           4750      3.77356e+7 
           4770      3.72492e+7 
           4790      3.67927e+7 
           4810      3.62333e+7 
           4830      3.51071e+7 
           4850      2.91854e+7 
           4870      2.38632e+7 
           4890      3.35183e+7 
           4910      3.44287e+7 
           4930       3.4012e+7 
           4950      3.40544e+7 
           4970      3.39441e+7 
           4990      3.34925e+7 
           5010      3.28354e+7 
           5030      3.29068e+7 
           5050      3.25477e+7 
           5070      3.23618e+7 
           5090      3.20527e+7 
           5110      3.17763e+7 
           5130      3.13973e+7 
           5150       3.1063e+7 
           5170      3.02862e+7 
           5190      3.00672e+7 
           5210      3.01463e+7 
           5230      2.96972e+7 
           5250       2.9783e+7 
           5270        2.905e+7 
           5290      2.92185e+7 
           5310      2.88452e+7 
           5330      2.84395e+7 
           5350      2.84668e+7 
           5370      2.81271e+7 
           5390      2.78889e+7 
           5410       2.7575e+7 
           5430       2.7371e+7 
           5450      2.71831e+7 
           5470      2.69809e+7 
           5490      2.67509e+7 
           5510      2.65298e+7 
           5530      2.62298e+7 
           5550      2.61011e+7 
           5570      2.58387e+7 
           5590      2.55589e+7 
           5610      2.53841e+7 
           5630      2.52124e+7 
           5650        2.498e+7 
           5670       2.4749e+7 
           5690      2.45648e+7 
           5710      2.43491e+7 
           5730      2.41714e+7 
           5750      2.39489e+7 
           5770      2.37583e+7 
           5790      2.35539e+7 
           5810      2.33619e+7 
           5830      2.31687e+7 
           5850      2.29621e+7 
           5870      2.27764e+7 
           5890      2.24091e+7 
           5910      2.24033e+7 
           5930      2.22182e+7 
           5950      2.20307e+7 
           5970      2.18548e+7 
           5990      2.16661e+7 
           6010      2.14867e+7 
           6030      2.13122e+7 
           6050      2.11428e+7 
           6070      2.09801e+7 
           6090       2.0805e+7 
           6110      2.06296e+7 
           6130      2.04301e+7 
           6150      2.02267e+7 
           6170       2.0071e+7 
           6190      1.99828e+7 
           6210      1.98241e+7 
           6230      1.96514e+7 
           6250      1.94371e+7 
           6270      1.93564e+7 
           6290      1.92049e+7 
           6310       1.9037e+7 
           6330      1.88943e+7 
           6350      1.86998e+7 
           6370      1.85724e+7 
           6390      1.84554e+7 
           6410      1.82881e+7 
           6430      1.81609e+7 
           6450      1.79416e+7 
           6470       1.7838e+7 
           6490      1.76334e+7 
           6510      1.74701e+7 
           6530      1.71133e+7 
           6550      1.54696e+7 
           6570      1.24945e+7 
           6590      1.64058e+7 
           6610      1.67602e+7 
           6630      1.67415e+7 
           6650      1.66503e+7 
           6670       1.6554e+7 
           6690      1.64383e+7 
           6710       1.6312e+7 
           6730      1.61886e+7 
           6750      1.60539e+7 
           6770       1.5951e+7 
           6790      1.58294e+7 
           6810      1.57114e+7 
           6830      1.55896e+7 
           6850      1.54746e+7 
           6870      1.53623e+7 
           6890      1.52487e+7 
           6910      1.51361e+7 
           6930      1.50221e+7 
           6950      1.49124e+7 
           6970      1.48014e+7 
           6990      1.46937e+7 
           7010      1.45708e+7 
           7030      1.44743e+7 
           7050      1.43726e+7 
           7070      1.42673e+7 
           7090      1.41644e+7 
           7110      1.40297e+7 
           7130      1.39526e+7 
           7150      1.38474e+7 
           7170      1.37504e+7 
           7190      1.36493e+7 
           7210      1.35505e+7 
           7230      1.34554e+7 
           7250      1.33569e+7 
           7270      1.32671e+7 
           7290      1.31632e+7 
           7310      1.30737e+7 
           7330      1.29779e+7 
           7350       1.2892e+7 
           7370      1.28034e+7 
           7390       1.2708e+7 
           7410      1.26066e+7 
           7430      1.25204e+7 
           7450      1.24356e+7 
           7470      1.23421e+7 
           7490      1.22581e+7 
           7510      1.21782e+7 
           7530      1.20957e+7 
           7550      1.20145e+7 
           7570      1.19274e+7 
           7590       1.1847e+7 
           7610       1.1764e+7 
           7630       1.1683e+7 
           7650      1.15982e+7 
           7670      1.15134e+7 
           7690      1.14358e+7 
           7710      1.13562e+7 
           7730      1.12837e+7 
           7750      1.12042e+7 
           7770      1.09981e+7 
           7790      1.10547e+7 
           7810      1.09777e+7 
           7830      1.09002e+7 
           7850      1.08233e+7 
           7870      1.07435e+7 
           7890      1.06649e+7 
           7910      1.06056e+7 
           7930      1.05246e+7 
           7950       1.0455e+7 
           7970      1.03967e+7 
           7990      1.03099e+7 
           8010      1.02561e+7 
           8030      1.01858e+7 
           8050      1.01178e+7 
           8070       1.0051e+7 
           8090      9.98348e+6 
           8110      9.91826e+6 
           8130      9.85299e+6 
           8150      9.78768e+6 
           8170      9.72232e+6 
           8190      9.63165e+6 
           8210      9.59651e+6 
           8230      9.53269e+6 
           8250      9.46051e+6 
           8270      9.43629e+6 
           8290      9.37546e+6 
           8310      9.30584e+6 
           8330       9.2042e+6 
           8350      9.17097e+6 
           8370      9.05675e+6 
           8390      8.98579e+6 
           8410      8.89623e+6 
           8430      8.92033e+6 
           8450      8.82381e+6 
           8470       8.5233e+6 
           8490      8.99801e+6 
           8510      8.24153e+6 
           8530      9.04067e+6 
           8550       7.8322e+6 
           8570      9.12728e+6 
           8590      8.52169e+6 
           8610      8.24787e+6 
           8630      9.21174e+6 
           8650      8.94916e+6 
           8670      7.41592e+6 
           8690      9.05654e+6 
           8710      9.26279e+6 
           8730      9.00785e+6 
           8750      7.33309e+6 
           8770      8.67312e+6 
           8790      9.11007e+6 
           8810      9.08234e+6 
           8830      8.96104e+6 
           8850      8.31549e+6 
           8870       7.1274e+6 
           8890      8.63552e+6 
           8910      8.79278e+6 
           8930      8.77895e+6 
           8950      8.77409e+6 
           8970      8.67367e+6 
           8990      8.42256e+6 
           9010      7.00137e+6 
           9030      7.65001e+6 
           9050      8.35219e+6 
           9070      8.35341e+6 
           9090      8.27246e+6 
           9110      8.32424e+6 
           9130      8.31357e+6 
           9150      8.25657e+6 
           9170      8.18251e+6 
           9190      8.06085e+6 
           9210      7.67501e+6 
           9230      6.25724e+6 
           9250      7.45688e+6 
           9270      7.77195e+6 
           9290      7.87689e+6 
           9310      7.85308e+6 
           9330      7.81772e+6 
           9350      7.77957e+6 
           9370      7.73224e+6 
           9390      7.68011e+6 
           9410      7.54624e+6 
