# Kurucz ODFNEW /NOVER (2003)
# teff = 26000 K (value for the effective temperature for the model. Temperatures are given in K)
# logg = 4 log(cm/s2) (value for Log(G) for the model.)
# meta = -1.5  (value for the Metallicity for the model.)
# lh = 1.25  (l/Hp where l is the  mixing length of the convective element and Hp is the pressure scale height)
# vtur = 2 km/s (Microturbulence velocity)
# alpha = 0.4  (Alpha)
#
# column 1: WAVELENGTH (ANGSTROM), Wavelength in Angstrom
# column 2: FLUX (ERG/CM2/S/A), Flux in erg/cm2/s/A
          147.2     4.09662e-13 
            151     1.79137e-12 
          155.2     8.42905e-12 
          158.8     2.98083e-11 
            162     8.74714e-11 
            166     3.17067e-10 
          170.3      1.18266e-9 
          173.4      2.93489e-9 
          176.8      7.65553e-9 
          180.2      1.92495e-8 
          181.7        2.859e-8 
          186.1      8.79625e-8 
            191      2.89066e-7 
          193.9      5.67671e-7 
          198.4      1.55305e-6 
          201.8      3.22183e-6 
            205      6.25994e-6 
          210.5      1.86808e-5 
          216.2      5.46157e-5 
          219.8     0.000104312 
            223     0.000182081 
          226.8     0.000345462 
            230       0.0236513 
            234       0.0552455 
            240         0.12421 
          246.5         0.28661 
          252.4        0.595912 
          256.8        0.921169 
            260         1.42644 
            264          2.1751 
          268.5         3.51985 
          273.5         5.83762 
          278.5         9.52822 
            284         16.1746 
            290         27.6495 
            296         46.1925 
            301         68.9956 
            308         113.423 
            318         258.742 
            328         511.952 
            338         1000.72 
            348         1846.94 
            357          3286.1 
            366         5482.65 
            375         8570.01 
            385         14078.7 
            395         22285.8 
            405         34320.8 
            414         50169.5 
            422         67787.8 
            430         91615.1 
            441          136176 
            451          192735 
            460          256162 
            470          350500 
            480          469391 
            490          622725 
            500          817970 
            506      5.46299e+6 
            512      1.74623e+7 
            520      1.98884e+7 
            530      2.44264e+7 
            540       2.5384e+7 
            550       3.3202e+7 
            560      3.73318e+7 
            570      4.33094e+7 
            580       4.2895e+7 
            590      5.32107e+7 
            600      5.99732e+7 
            610      6.80097e+7 
            620      7.44413e+7 
            630      8.27239e+7 
            640       8.7081e+7 
            650       9.6202e+7 
            658      1.05754e+8 
            665      1.12655e+8 
            675      1.18577e+8 
            685      1.26702e+8 
            695      1.44647e+8 
            705      1.51533e+8 
            716      1.67967e+8 
            726      1.77659e+8 
            735      1.89716e+8 
            745      2.06147e+8 
            755      2.19736e+8 
            765      2.33785e+8 
            775       2.5022e+8 
            785      2.66977e+8 
            795      2.79758e+8 
            805      2.95843e+8 
            815      3.09125e+8 
            825      3.28909e+8 
            835      3.29227e+8 
            845      3.57754e+8 
            855      3.73671e+8 
            865      3.93639e+8 
            875      4.14472e+8 
            885      4.35471e+8 
            895      4.54074e+8 
            905      4.66137e+8 
            915      6.76716e+8 
            925      5.07927e+9 
            935     1.26762e+10 
            945     2.77241e+10 
            955     3.34689e+10 
            965     4.14343e+10 
            975      1.6912e+10 
            985      4.1353e+10 
            995     3.86652e+10 
           1005     4.01524e+10 
           1015     3.83339e+10 
           1025     1.82601e+10 
           1035     3.44345e+10 
           1045     4.08356e+10 
           1055      3.9246e+10 
           1065     3.52441e+10 
           1075     3.68571e+10 
           1085      3.4072e+10 
           1095     3.63337e+10 
           1105     3.42227e+10 
           1115     3.37025e+10 
           1125     3.07575e+10 
           1135      3.2999e+10 
           1145     3.05487e+10 
           1155     3.12194e+10 
           1165     3.09189e+10 
           1175     2.55222e+10 
           1185     2.92455e+10 
           1195     2.74654e+10 
           1205     2.33257e+10 
           1215     1.24894e+10 
           1225     2.48269e+10 
           1235     2.65178e+10 
           1245     2.59477e+10 
           1255     2.55072e+10 
           1265      2.5049e+10 
           1275     2.50145e+10 
           1285     2.44419e+10 
           1295     2.15986e+10 
           1305     2.19371e+10 
           1315     2.29625e+10 
           1325     2.21236e+10 
           1335     2.13073e+10 
           1345     2.11853e+10 
           1355     2.12266e+10 
           1365     2.02718e+10 
           1375     1.99919e+10 
           1385     1.97357e+10 
           1395     1.74846e+10 
           1405     1.77208e+10 
           1415     1.83997e+10 
           1425     1.78993e+10 
           1435     1.78103e+10 
           1442     1.78173e+10 
           1447     1.75681e+10 
           1455     1.72203e+10 
           1465     1.67829e+10 
           1475     1.65026e+10 
           1485     1.61928e+10 
           1495     1.58407e+10 
           1505       1.516e+10 
           1512     1.48617e+10 
           1517     1.48725e+10 
           1525     1.46506e+10 
           1535     1.37431e+10 
           1545     1.36241e+10 
           1555     1.31485e+10 
           1565     1.33583e+10 
           1575     1.33752e+10 
           1585      1.3159e+10 
           1595     1.30098e+10 
           1605     1.25114e+10 
           1615     1.22435e+10 
           1625      1.2178e+10 
           1635     1.21378e+10 
           1645     1.17364e+10 
           1655     1.17708e+10 
           1665     1.15931e+10 
           1672      1.1378e+10 
           1677     1.15728e+10 
           1685     1.13432e+10 
           1695     1.10509e+10 
           1705     1.07745e+10 
           1715     1.04601e+10 
           1725     1.03008e+10 
           1735     1.02588e+10 
           1745     1.00726e+10 
           1755      9.98582e+9 
           1765      9.66051e+9 
           1775      9.49529e+9 
           1785      9.40965e+9 
           1795      9.36391e+9 
           1805       9.2786e+9 
           1815      8.97067e+9 
           1825      8.90193e+9 
           1835       8.7471e+9 
           1845      8.26751e+9 
           1855      8.14052e+9 
           1865      8.16209e+9 
           1875      8.16623e+9 
           1885      7.69527e+9 
           1895      7.36595e+9 
           1905      7.59558e+9 
           1915      7.31316e+9 
           1925      7.12046e+9 
           1935      7.22977e+9 
           1945      7.24803e+9 
           1955      6.82643e+9 
           1967      6.96948e+9 
           1976      7.06283e+9 
           1984      6.76518e+9 
           1995      6.56499e+9 
           2005      6.62187e+9 
           2015      6.61114e+9 
           2025      6.59461e+9 
           2035      6.34647e+9 
           2045      6.26608e+9 
           2055      5.99356e+9 
           2065      5.94952e+9 
           2074      6.05573e+9 
           2078      5.86964e+9 
           2085      5.89078e+9 
           2095      5.75434e+9 
           2105      5.80454e+9 
           2115      5.76031e+9 
           2125      5.73617e+9 
           2135      5.63694e+9 
           2145       5.5041e+9 
           2155      5.48331e+9 
           2165       5.4171e+9 
           2175      5.33141e+9 
           2185      5.26347e+9 
           2195      5.21038e+9 
           2205      5.13665e+9 
           2215      5.06642e+9 
           2225      4.98765e+9 
           2235      4.91114e+9 
           2245      4.86539e+9 
           2255      4.78418e+9 
           2265      4.73579e+9 
           2275       4.6727e+9 
           2285      4.61299e+9 
           2295      4.46995e+9 
           2305      4.48421e+9 
           2315      4.41892e+9 
           2325        4.363e+9 
           2335      4.29089e+9 
           2345      4.25081e+9 
           2355      4.20147e+9 
           2365      4.14682e+9 
           2375      4.08753e+9 
           2385      4.03306e+9 
           2395      3.98178e+9 
           2405      3.93343e+9 
           2415      3.87606e+9 
           2425      3.83762e+9 
           2435      3.77929e+9 
           2445      3.73678e+9 
           2455      3.69396e+9 
           2465      3.64774e+9 
           2475      3.60012e+9 
           2485      3.55449e+9 
           2495       3.3701e+9 
           2505      3.46211e+9 
           2513      3.39047e+9 
           2518      3.39901e+9 
           2525      3.37954e+9 
           2535      3.33985e+9 
           2545      3.26585e+9 
           2555      3.24807e+9 
           2565      3.21191e+9 
           2575      3.18122e+9 
           2585      3.14306e+9 
           2595      3.10563e+9 
           2605      3.08705e+9 
           2615      3.05026e+9 
           2625      3.01416e+9 
           2635      2.97386e+9 
           2645      2.93854e+9 
           2655      2.90052e+9 
           2665      2.85774e+9 
           2675      2.82446e+9 
           2685      2.80916e+9 
           2695      2.75105e+9 
           2705      2.74012e+9 
           2715      2.70955e+9 
           2725      2.65829e+9 
           2735      2.64549e+9 
           2745       2.6131e+9 
           2755      2.58538e+9 
           2765      2.53646e+9 
           2775      2.53049e+9 
           2785      2.50006e+9 
           2795      2.43557e+9 
           2805      2.43087e+9 
           2815      2.41777e+9 
           2825      2.36721e+9 
           2835      2.33939e+9 
           2845       2.3374e+9 
           2855      2.30955e+9 
           2865      2.28496e+9 
           2875      2.25984e+9 
           2885      2.23574e+9 
           2895      2.21056e+9 
           2910       2.1728e+9 
           2930      2.12573e+9 
           2950      2.06588e+9 
           2970      2.03627e+9 
           2990      1.99197e+9 
           3010      1.94779e+9 
           3030       1.9094e+9 
           3050      1.87014e+9 
           3070      1.83166e+9 
           3090      1.78546e+9 
           3110      1.75622e+9 
           3130      1.72066e+9 
           3150      1.68612e+9 
           3170      1.65138e+9 
           3190      1.60523e+9 
           3210      1.58558e+9 
           3230      1.55312e+9 
           3250      1.52275e+9 
           3270      1.49439e+9 
           3290      1.46288e+9 
           3310      1.43679e+9 
           3330      1.40868e+9 
           3350      1.37919e+9 
           3370       1.3549e+9 
           3390      1.32942e+9 
           3410      1.30429e+9 
           3430      1.27337e+9 
           3450      1.24481e+9 
           3470      1.22503e+9 
           3490        1.202e+9 
           3510      1.18378e+9 
           3530      1.16442e+9 
           3550      1.14342e+9 
           3570      1.12842e+9 
           3590      1.10042e+9 
           3610       1.0832e+9 
           3630      1.06147e+9 
           3640      1.05948e+9 
           3650      1.03861e+9 
           3670        1.025e+9 
           3690      1.00255e+9 
           3710      9.68476e+8 
           3730      9.31771e+8 
           3750      9.75599e+8 
           3770      9.73412e+8 
           3790      1.01643e+9 
           3810      1.05409e+9 
           3830         9.28e+8 
           3850      1.07406e+9 
           3870      1.07443e+9 
           3890      8.79702e+8 
           3910      1.05421e+9 
           3930      1.03429e+9 
           3950      1.01829e+9 
           3970      8.16304e+8 
           3990      9.78709e+8 
           4010      9.69229e+8 
           4030      9.18482e+8 
           4050      9.45607e+8 
           4070      9.20303e+8 
           4090      8.58581e+8 
           4110      7.58249e+8 
           4130      8.66525e+8 
           4150      8.58521e+8 
           4170      8.50955e+8 
           4190      8.38023e+8 
           4210       8.2534e+8 
           4230      8.11258e+8 
           4250      7.96341e+8 
           4270       7.7989e+8 
           4290      7.69339e+8 
           4310      7.52725e+8 
           4330      6.91314e+8 
           4350      6.32093e+8 
           4370      7.15646e+8 
           4390       6.9225e+8 
           4410       6.9662e+8 
           4430       6.8497e+8 
           4450      6.76315e+8 
           4470      6.40109e+8 
           4490      6.54153e+8 
           4510      6.45327e+8 
           4530      6.35125e+8 
           4550      6.24349e+8 
           4570       6.1417e+8 
           4590      6.04842e+8 
           4610      5.95847e+8 
           4630      5.86932e+8 
           4650      5.74106e+8 
           4670      5.68232e+8 
           4690      5.60005e+8 
           4710      5.43915e+8 
           4730      5.43451e+8 
           4750       5.3481e+8 
           4770      5.27917e+8 
           4790      5.19955e+8 
           4810      5.11601e+8 
           4830      5.01301e+8 
           4850      4.68123e+8 
           4870      4.20572e+8 
           4890       4.7874e+8 
           4910       4.7416e+8 
           4930      4.57967e+8 
           4950       4.6127e+8 
           4970      4.55231e+8 
           4990      4.48624e+8 
           5010      4.36524e+8 
           5030      4.35829e+8 
           5050      4.26918e+8 
           5070      4.23571e+8 
           5090       4.1753e+8 
           5110      4.11628e+8 
           5130      4.05733e+8 
           5150       4.0006e+8 
           5170       3.9456e+8 
           5190      3.89134e+8 
           5210      3.83612e+8 
           5230      3.78466e+8 
           5250      3.73265e+8 
           5270      3.68131e+8 
           5290      3.63118e+8 
           5310      3.58156e+8 
           5330      3.53299e+8 
           5350      3.48464e+8 
           5370      3.43861e+8 
           5390      3.39201e+8 
           5410      3.34664e+8 
           5430      3.30184e+8 
           5450      3.25786e+8 
           5470      3.21495e+8 
           5490      3.17269e+8 
           5510      3.13096e+8 
           5530      3.08988e+8 
           5550      3.04967e+8 
           5570      3.00972e+8 
           5590      2.97086e+8 
           5610      2.93212e+8 
           5630      2.89456e+8 
           5650      2.85641e+8 
           5670      2.81906e+8 
           5690      2.78206e+8 
           5710      2.74874e+8 
           5730      2.71409e+8 
           5750      2.67815e+8 
           5770      2.64627e+8 
           5790      2.61296e+8 
           5810      2.58027e+8 
           5830      2.54774e+8 
           5850      2.51615e+8 
           5870      2.41463e+8 
           5890       2.4506e+8 
           5910       2.4238e+8 
           5930      2.39366e+8 
           5950      2.36418e+8 
           5970      2.33611e+8 
           5990       2.3072e+8 
           6010      2.27946e+8 
           6030      2.25182e+8 
           6050      2.22482e+8 
           6070      2.19811e+8 
           6090      2.17171e+8 
           6110      2.14571e+8 
           6130      2.12021e+8 
           6150      2.09449e+8 
           6170      2.06994e+8 
           6190      2.04568e+8 
           6210      2.02158e+8 
           6230      1.99785e+8 
           6250      1.97438e+8 
           6270      1.95135e+8 
           6290      1.92868e+8 
           6310      1.90616e+8 
           6330      1.88426e+8 
           6350      1.86185e+8 
           6370       1.8409e+8 
           6390      1.81989e+8 
           6410      1.79901e+8 
           6430      1.77864e+8 
           6450      1.75839e+8 
           6470      1.73808e+8 
           6490      1.71853e+8 
           6510      1.69928e+8 
           6530      1.67404e+8 
           6550      1.60948e+8 
           6570      1.43754e+8 
           6590      1.60943e+8 
           6610      1.60454e+8 
           6630       1.5887e+8 
           6650      1.57192e+8 
           6670       1.5399e+8 
           6690      1.52329e+8 
           6710      1.52084e+8 
           6730      1.50383e+8 
           6750      1.48782e+8 
           6770      1.47164e+8 
           6790      1.45514e+8 
           6810      1.43986e+8 
           6830      1.42434e+8 
           6850      1.40913e+8 
           6870      1.39399e+8 
           6890      1.37893e+8 
           6910      1.36417e+8 
           6930       1.3498e+8 
           6950      1.33557e+8 
           6970      1.32148e+8 
           6990      1.30737e+8 
           7010      1.29371e+8 
           7030      1.28011e+8 
           7050      1.26679e+8 
           7070      1.23371e+8 
           7090      1.24047e+8 
           7110      1.22754e+8 
           7130      1.21489e+8 
           7150      1.20228e+8 
           7170      1.18972e+8 
           7190      1.17771e+8 
           7210      1.16561e+8 
           7230      1.15074e+8 
           7250      1.14175e+8 
           7270      1.13034e+8 
           7290      1.10976e+8 
           7310      1.10736e+8 
           7330      1.09635e+8 
           7350       1.0853e+8 
           7370      1.07442e+8 
           7390      1.06365e+8 
           7410      1.05304e+8 
           7430      1.04253e+8 
           7450      1.03233e+8 
           7470      1.02168e+8 
           7490      1.01193e+8 
           7510       1.0016e+8 
           7530      9.92105e+7 
           7550      9.82361e+7 
           7570      9.72707e+7 
           7590      9.63206e+7 
           7610      9.53726e+7 
           7630      9.44527e+7 
           7650       9.3541e+7 
           7670      9.26376e+7 
           7690      9.17423e+7 
           7710       9.0855e+7 
           7730      8.99819e+7 
           7750      8.91167e+7 
           7770      8.82217e+7 
           7790      8.74279e+7 
           7810       8.6536e+7 
           7830      8.57749e+7 
           7850      8.50388e+7 
           7870       8.4224e+7 
           7890      8.33679e+7 
           7910      8.26698e+7 
           7930      8.18879e+7 
           7950      8.09996e+7 
           7970      8.01428e+7 
           7990      7.94117e+7 
           8010      7.86633e+7 
           8030      7.79272e+7 
           8050      7.72382e+7 
           8070      7.65897e+7 
           8090      7.57222e+7 
           8110      7.51144e+7 
           8130      7.45344e+7 
           8150      7.37323e+7 
           8170      7.32024e+7 
           8190      7.24185e+7 
           8210      7.15463e+7 
           8230      7.11044e+7 
           8250      7.04944e+7 
           8270      6.94763e+7 
           8290       6.9158e+7 
           8310      6.85636e+7 
           8330      6.79253e+7 
           8350      6.69789e+7 
           8370      6.65947e+7 
           8390       6.6101e+7 
           8410      6.54993e+7 
           8430      6.48496e+7 
           8450      6.38413e+7 
           8470      6.35979e+7 
           8490      6.30164e+7 
           8510      6.22836e+7 
           8530      6.19867e+7 
           8550       6.0522e+7 
           8570      6.16351e+7 
