# Kurucz ODFNEW /NOVER (2003)
# teff = 7750 K (value for the effective temperature for the model. Temperatures are given in K)
# logg = 2 log(cm/s2) (value for Log(G) for the model.)
# meta = 0.5  (value for the Metallicity for the model.)
# lh = 1.25  (l/Hp where l is the  mixing length of the convective element and Hp is the pressure scale height)
# vtur = 2 km/s (Microturbulence velocity)
# alpha = 0.4  (Alpha)
#
# column 1: WAVELENGTH (ANGSTROM), Wavelength in Angstrom
# column 2: FLUX (ERG/CM2/S/A), Flux in erg/cm2/s/A
            357     2.17922e-26 
            366     1.63577e-25 
            375     1.10781e-24 
            385     8.31257e-24 
            395     5.59692e-23 
            405     3.41279e-22 
            414     1.60569e-21 
            422     5.99479e-21 
            430     2.12448e-20 
            441     1.11811e-19 
            451     4.69298e-19 
            460     1.61258e-18 
            470     5.99169e-18 
            480     2.09997e-17 
            490     6.97004e-17 
            500     2.19558e-16 
            506     5.63499e-16 
            512     1.21485e-15 
            520     2.80541e-15 
            530     7.73643e-15 
            540     2.01026e-14 
            550     5.12103e-14 
            560     1.24996e-13 
            570     2.94531e-13 
            580     6.63711e-13 
            590      1.4856e-12 
            600     3.19058e-12 
            610     6.69497e-12 
            620     1.36305e-11 
            630     2.70896e-11 
            640     5.25048e-11 
            650       9.984e-11 
            658     1.64182e-10 
            665     2.49137e-10 
            675     4.50231e-10 
            685     7.98966e-10 
            695      1.38907e-9 
            705      2.33697e-9 
            716      4.18436e-9 
            726      6.90252e-9 
            735      1.06835e-8 
            745      1.70634e-8 
            755      2.69568e-8 
            765      4.20828e-8 
            775      6.48116e-8 
            785      9.90571e-8 
            795      1.46424e-7 
            805      2.17564e-7 
            815      3.23974e-7 
            825      4.72035e-7 
            835      6.79299e-7 
            845      9.69279e-7 
            855      1.36922e-6 
            865      1.91631e-6 
            875      2.62595e-6 
            885      3.65318e-6 
            895      4.98481e-6 
            905      6.66869e-6 
            915      0.00307085 
            925      0.00893055 
            935       0.0119484 
            945       0.0163175 
            955       0.0230935 
            965       0.0310984 
            975       0.0405055 
            985       0.0526056 
            995       0.0667213 
           1005       0.0915057 
           1015        0.118808 
           1025        0.147518 
           1035        0.192275 
           1045        0.245683 
           1055        0.311413 
           1065        0.385291 
           1075        0.488636 
           1085        0.612156 
           1095        0.745337 
           1105         2.59429 
           1115         9.21623 
           1125         13.7449 
           1135         19.3502 
           1145         24.8226 
           1155         27.6741 
           1165         38.7076 
           1175         46.6824 
           1185         48.3741 
           1195         21.0384 
           1205         33.7053 
           1215         8.02342 
           1225         41.9376 
           1235         89.5743 
           1245         222.665 
           1255         520.405 
           1265         379.148 
           1275          811.87 
           1285         1179.73 
           1295         1402.64 
           1305         763.137 
           1315         1717.57 
           1325         2122.69 
           1335         2260.51 
           1345         2912.79 
           1355         2981.58 
           1365         3194.84 
           1375         3484.29 
           1385          3933.2 
           1395            4572 
           1405         5114.98 
           1415         5224.89 
           1425         5946.04 
           1435         5964.26 
           1442         6939.92 
           1447         7497.49 
           1455         8433.16 
           1465         8562.06 
           1475         9379.17 
           1485         10490.1 
           1495         12001.1 
           1505         13207.2 
           1512         13383.4 
           1517           14556 
           1525         16433.9 
           1535           31995 
           1545         65088.1 
           1555         63951.4 
           1565         59966.6 
           1575         92310.4 
           1585          109081 
           1595          146834 
           1605          133115 
           1615          123256 
           1625          111530 
           1635          130162 
           1645          161368 
           1655           97598 
           1665          155816 
           1672           77776 
           1677          220774 
           1685          560273 
           1695       1.0763e+6 
           1705      1.53088e+6 
           1715      3.12453e+6 
           1725      3.62876e+6 
           1735      5.13415e+6 
           1745        3.974e+6 
           1755       5.9683e+6 
           1765      3.94709e+6 
           1775      6.02432e+6 
           1785      4.52564e+6 
           1795      7.95159e+6 
           1805       5.2537e+6 
           1815      6.44994e+6 
           1825      5.00866e+6 
           1835      4.39458e+6 
           1845      4.28145e+6 
           1855      5.70137e+6 
           1865      6.83831e+6 
           1875      5.97238e+6 
           1885      6.38268e+6 
           1895      7.46561e+6 
           1905      6.17462e+6 
           1915      6.67809e+6 
           1925      6.21239e+6 
           1935      3.50033e+6 
           1945      7.60146e+6 
           1955      7.90476e+6 
           1967      9.24636e+6 
           1976      8.64922e+6 
           1984      8.18692e+6 
           1995      8.28383e+6 
           2005      7.67952e+6 
           2015      6.54851e+6 
           2025      6.37237e+6 
           2035      8.09283e+6 
           2045       9.3335e+6 
           2055      7.28601e+6 
           2065      7.19794e+6 
           2074      9.83014e+6 
           2078       1.1231e+7 
           2085      1.05326e+7 
           2095      9.53363e+6 
           2105      8.78605e+6 
           2115       8.9314e+6 
           2125      8.89592e+6 
           2135      6.49739e+6 
           2145      8.63501e+6 
           2155      9.16752e+6 
           2165      7.44493e+6 
           2175      7.92883e+6 
           2185      8.41486e+6 
           2195      9.61523e+6 
           2205      8.68286e+6 
           2215      6.47797e+6 
           2225      6.19387e+6 
           2235      8.86538e+6 
           2245      7.93146e+6 
           2255      5.93748e+6 
           2265      5.97769e+6 
           2275      7.48564e+6 
           2285      7.96213e+6 
           2295      7.07071e+6 
           2305       7.6239e+6 
           2315      6.81128e+6 
           2325      6.29501e+6 
           2335      3.65997e+6 
           2345       2.5851e+6 
           2355      5.02965e+6 
           2365      2.54419e+6 
           2375       3.7431e+6 
           2385      1.90351e+6 
           2395      2.68254e+6 
           2405      2.53581e+6 
           2415      3.72148e+6 
           2425      6.76888e+6 
           2435      6.37093e+6 
           2445      7.13628e+6 
           2455      7.18077e+6 
           2465      6.59996e+6 
           2475      6.16174e+6 
           2485      6.35628e+6 
           2495      6.05246e+6 
           2505      8.46452e+6 
           2513      5.69881e+6 
           2518      6.18244e+6 
           2525      4.52492e+6 
           2535      4.48454e+6 
           2545      4.91026e+6 
           2555      6.82415e+6 
           2565      5.23853e+6 
           2575      6.39584e+6 
           2585      5.67838e+6 
           2595        4.831e+6 
           2605      4.02071e+6 
           2615      3.74679e+6 
           2625      5.22218e+6 
           2635      7.26034e+6 
           2645      1.13724e+7 
           2655      1.20591e+7 
           2665      8.69336e+6 
           2675      1.01005e+7 
           2685      9.71711e+6 
           2695       9.1088e+6 
           2705      1.00008e+7 
           2715      8.12261e+6 
           2725      8.13413e+6 
           2735      8.71186e+6 
           2745       4.3019e+6 
           2755      5.21463e+6 
           2765      6.12999e+6 
           2775      6.97284e+6 
           2785      4.22205e+6 
           2795      1.41934e+6 
           2805      1.83873e+6 
           2815      5.64888e+6 
           2825      9.06629e+6 
           2835      9.57101e+6 
           2845      9.61276e+6 
           2855       8.0231e+6 
           2865      1.08366e+7 
           2875      1.05759e+7 
           2885      1.09847e+7 
           2895      1.03444e+7 
           2910      1.30666e+7 
           2930      1.18848e+7 
           2950      1.19289e+7 
           2970      1.34293e+7 
           2990        1.349e+7 
           3010      1.44524e+7 
           3030      1.42388e+7 
           3050      1.40778e+7 
           3070       1.3907e+7 
           3090      1.49802e+7 
           3110      1.42877e+7 
           3130      1.41841e+7 
           3150      1.49454e+7 
           3170      1.45265e+7 
           3190      1.32469e+7 
           3210       1.4438e+7 
           3230      1.30237e+7 
           3250      1.44693e+7 
           3270      1.52289e+7 
           3290      1.53071e+7 
           3310      1.59098e+7 
           3330      1.52467e+7 
           3350       1.4904e+7 
           3370      1.45243e+7 
           3390       1.5172e+7 
           3410      1.58168e+7 
           3430      1.61267e+7 
           3450      1.60051e+7 
           3470      1.56854e+7 
           3490      1.54551e+7 
           3510      1.62078e+7 
           3530      1.62732e+7 
           3550      1.72098e+7 
           3570      1.59111e+7 
           3590      1.60118e+7 
           3610      1.61809e+7 
           3630      1.64305e+7 
           3640      1.59906e+7 
           3650      1.70698e+7 
           3670      1.67372e+7 
           3690       1.6977e+7 
           3710       2.0914e+7 
           3730       2.4892e+7 
           3750      3.59972e+7 
           3770      3.96585e+7 
           3790      5.12269e+7 
           3810      5.90394e+7 
           3830      4.54421e+7 
           3850      6.12679e+7 
           3870      6.79486e+7 
           3890      4.19698e+7 
           3910      6.11565e+7 
           3930      3.01068e+7 
           3950      5.14757e+7 
           3970      2.64341e+7 
           3990      6.19754e+7 
           4010      6.70682e+7 
           4030      6.54786e+7 
           4050      6.50012e+7 
           4070      6.36953e+7 
           4090      5.85022e+7 
           4110      4.54249e+7 
           4130      6.20656e+7 
           4150        6.475e+7 
           4170      6.22932e+7 
           4190      6.21613e+7 
           4210      6.15402e+7 
           4230      5.98206e+7 
           4250      6.02809e+7 
           4270      5.73848e+7 
           4290      5.83985e+7 
           4310      5.39234e+7 
           4330      4.79891e+7 
           4350      4.08554e+7 
           4370      5.65995e+7 
           4390      5.52092e+7 
           4410      5.37584e+7 
           4430      5.28652e+7 
           4450      5.38065e+7 
           4470      5.40746e+7 
           4490      5.33959e+7 
           4510      5.51404e+7 
           4530       5.1686e+7 
           4550      5.11271e+7 
           4570      5.34549e+7 
           4590      5.04098e+7 
           4610      5.26359e+7 
           4630      5.04282e+7 
           4650      5.12185e+7 
           4670      5.09673e+7 
           4690      4.88139e+7 
           4710      4.69976e+7 
           4730      4.90847e+7 
           4750      4.92132e+7 
           4770      4.79205e+7 
           4790      4.77149e+7 
           4810      4.66953e+7 
           4830      4.62674e+7 
           4850      3.83096e+7 
           4870      3.03154e+7 
           4890      4.38045e+7 
           4910      4.42344e+7 
           4930       4.2971e+7 
           4950      4.40344e+7 
           4970      4.43259e+7 
           4990      4.15808e+7 
           5010      3.90836e+7 
           5030      4.04918e+7 
           5050      4.01392e+7 
           5070       4.1063e+7 
           5090      4.04487e+7 
           5110      4.03808e+7 
           5130        3.896e+7 
           5150      3.78853e+7 
           5170      3.73207e+7 
           5190      3.67609e+7 
           5210      3.68109e+7 
           5230      3.65299e+7 
           5250       3.7023e+7 
           5270      3.38085e+7 
           5290      3.62068e+7 
           5310      3.51796e+7 
           5330      3.37677e+7 
           5350      3.53387e+7 
           5370      3.51791e+7 
           5390      3.43311e+7 
           5410      3.34329e+7 
           5430       3.3509e+7 
           5450      3.41666e+7 
           5470      3.35559e+7 
           5490      3.30681e+7 
           5510      3.26436e+7 
           5530      3.26764e+7 
           5550      3.26273e+7 
           5570      3.20764e+7 
           5590      3.16701e+7 
           5610      3.17487e+7 
           5630      3.16995e+7 
           5650      3.10093e+7 
           5670      3.02753e+7 
           5690      3.05423e+7 
           5710      3.02501e+7 
           5730      3.07071e+7 
           5750       2.9858e+7 
           5770      2.98608e+7 
           5790       2.9348e+7 
           5810        2.923e+7 
           5830      2.90531e+7 
           5850      2.87359e+7 
           5870      2.85218e+7 
           5890       2.7691e+7 
           5910      2.79472e+7 
           5930      2.76765e+7 
           5950      2.72929e+7 
           5970      2.72361e+7 
           5990      2.66954e+7 
           6010      2.62333e+7 
           6030      2.63373e+7 
           6050      2.59236e+7 
           6070       2.6068e+7 
           6090       2.5636e+7 
           6110       2.5206e+7 
           6130      2.46809e+7 
           6150      2.39021e+7 
           6170      2.40304e+7 
           6190         2.46e+7 
           6210      2.43539e+7 
           6230      2.38571e+7 
           6250      2.28299e+7 
           6270      2.38431e+7 
           6290      2.36546e+7 
           6310      2.29475e+7 
           6330      2.29513e+7 
           6350      2.23809e+7 
           6370      2.23511e+7 
           6390      2.24421e+7 
           6410      2.19263e+7 
           6430      2.20179e+7 
           6450      2.11898e+7 
           6470      2.16241e+7 
           6490      2.09902e+7 
           6510      2.10659e+7 
           6530       2.0823e+7 
           6550      1.87414e+7 
           6570      1.47568e+7 
           6590      1.99468e+7 
           6610      2.02557e+7 
           6630      2.03145e+7 
           6650      2.01678e+7 
           6670      1.99014e+7 
           6690      1.98171e+7 
           6710      1.96589e+7 
           6730      1.94192e+7 
           6750       1.9057e+7 
           6770      1.92717e+7 
           6790      1.89982e+7 
           6810      1.89128e+7 
           6830      1.86447e+7 
           6850      1.85063e+7 
           6870      1.84753e+7 
           6890      1.83246e+7 
           6910      1.81524e+7 
           6930      1.79552e+7 
           6950      1.78606e+7 
           6970      1.76582e+7 
           6990      1.75796e+7 
           7010      1.69942e+7 
           7030      1.72292e+7 
           7050      1.71187e+7 
           7070      1.70084e+7 
           7090      1.68976e+7 
           7110      1.62795e+7 
           7130      1.64292e+7 
           7150      1.62976e+7 
           7170      1.61519e+7 
           7190      1.59914e+7 
           7210      1.59384e+7 
           7230      1.57588e+7 
           7250      1.55164e+7 
           7270       1.5645e+7 
           7290      1.53558e+7 
           7310      1.52966e+7 
           7330      1.52174e+7 
           7350      1.51466e+7 
           7370      1.51193e+7 
           7390      1.48741e+7 
           7410      1.46189e+7 
           7430      1.43793e+7 
           7450      1.43768e+7 
           7470      1.42237e+7 
           7490      1.42264e+7 
           7510      1.41761e+7 
           7530      1.41241e+7 
           7550      1.41267e+7 
           7570      1.38786e+7 
           7590      1.38828e+7 
           7610      1.37682e+7 
           7630      1.36942e+7 
           7650      1.34785e+7 
           7670      1.32764e+7 
           7690      1.32119e+7 
           7710      1.31757e+7 
           7730       1.3131e+7 
           7750      1.30025e+7 
           7770      1.25568e+7 
           7790      1.29202e+7 
           7810      1.27534e+7 
           7830      1.25851e+7 
           7850      1.23817e+7 
           7870      1.23815e+7 
           7890      1.22086e+7 
           7910      1.21175e+7 
           7930      1.19828e+7 
           7950      1.18254e+7 
           7970      1.20537e+7 
           7990      1.16807e+7 
           8010      1.18368e+7 
           8030      1.16762e+7 
           8050      1.16508e+7 
           8070       1.1548e+7 
           8090       1.1476e+7 
           8110      1.14367e+7 
           8130      1.14004e+7 
           8150      1.13105e+7 
           8170      1.12315e+7 
           8190      1.08903e+7 
           8210       1.0754e+7 
           8230      1.06924e+7 
           8250      1.07264e+7 
           8270      1.08778e+7 
           8290      1.07629e+7 
           8310      1.06146e+7 
           8330      1.04301e+7 
           8350      1.04845e+7 
           8370      1.03527e+7 
           8390      1.02328e+7 
           8410      1.01437e+7 
           8430      1.01762e+7 
           8450       9.8801e+6 
           8470       9.6518e+6 
           8490      1.02059e+7 
           8510      9.00466e+6 
           8530      1.02496e+7 
           8550      7.77294e+6 
           8570      1.07528e+7 
           8590      9.92572e+6 
           8610      9.58338e+6 
           8630      1.09685e+7 
           8650      1.04707e+7 
           8670      7.65949e+6 
           8690      1.04264e+7 
           8710      1.11389e+7 
           8730      1.07429e+7 
           8750      8.41906e+6 
           8770      1.04477e+7 
           8790      1.10107e+7 
           8810      1.09433e+7 
           8830      1.05048e+7 
           8850      9.77435e+6 
           8870      8.16311e+6 
           8890      1.02858e+7 
           8910      1.05249e+7 
           8930       1.0405e+7 
           8950      1.05279e+7 
           8970      1.03358e+7 
           8990      1.00559e+7 
           9010      8.08496e+6 
           9030      8.96536e+6 
           9050      9.99981e+6 
           9070      9.74373e+6 
           9090       9.5933e+6 
           9110      9.77365e+6 
           9130      9.84342e+6 
           9150      9.87693e+6 
           9170      9.73443e+6 
           9190      9.52127e+6 
           9210      9.01717e+6 
           9230      7.04348e+6 
           9250      8.59945e+6 
           9270      8.92275e+6 
           9290       9.3606e+6 
           9310      9.33217e+6 
           9330      9.19309e+6 
           9350      9.22189e+6 
           9370      9.20102e+6 
           9390       8.9931e+6 
           9410      8.56562e+6 
           9430      8.77758e+6 
