# Kurucz ODFNEW /NOVER (2003)
# teff = 28000 K (value for the effective temperature for the model. Temperatures are given in K)
# logg = 5 log(cm/s2) (value for Log(G) for the model.)
# meta = -2.5  (value for the Metallicity for the model.)
# lh = 1.25  (l/Hp where l is the  mixing length of the convective element and Hp is the pressure scale height)
# vtur = 2 km/s (Microturbulence velocity)
# alpha = 0.4  (Alpha)
#
# column 1: WAVELENGTH (ANGSTROM), Wavelength in Angstrom
# column 2: FLUX (ERG/CM2/S/A), Flux in erg/cm2/s/A
          147.2     8.97321e-11 
            151     3.56489e-10 
          155.2      1.51355e-9 
          158.8      4.91979e-9 
            162      1.34255e-8 
            166      4.45456e-8 
          170.3      1.51759e-7 
          173.4      3.53292e-7 
          176.8      8.61898e-7 
          180.2      2.03145e-6 
          181.7      2.93522e-6 
          186.1      8.34221e-6 
            191      2.51673e-5 
          193.9      4.70836e-5 
          198.4     0.000119788 
          201.8     0.000235705 
            205     0.000436325 
          210.5       0.0012027 
          216.2      0.00324644 
          219.8      0.00591006 
            223      0.00989531 
          226.8       0.0178931 
            230        0.232248 
            234        0.525616 
            240         1.12397 
          246.5         2.45559 
          252.4         4.86806 
          256.8         7.46018 
            260          10.997 
            264         16.5349 
          268.5          25.797 
          273.5         41.4853 
          278.5         65.6392 
            284         106.597 
            290         176.727 
            296         286.339 
            301         419.554 
            308         677.417 
            318         1430.11 
            328         2745.95 
            338         5073.34 
            348         9007.92 
            357         14656.4 
            366         23291.5 
            375         35924.9 
            385         56881.1 
            395         87522.4 
            405          131606 
            414          186703 
            422          250492 
            430          331599 
            441          481370 
            451          663015 
            460          870608 
            470      1.16379e+6 
            480      1.53264e+6 
            490      1.99348e+6 
            500      2.56101e+6 
            506      1.27971e+7 
            512       4.6923e+7 
            520      5.27951e+7 
            530      6.58411e+7 
            540      6.62623e+7 
            550       8.2538e+7 
            560      9.01976e+7 
            570      1.00555e+8 
            580      9.94559e+7 
            590      1.18333e+8 
            600      1.31112e+8 
            610      1.43959e+8 
            620      1.55386e+8 
            630      1.69637e+8 
            640      1.81044e+8 
            650       1.9803e+8 
            658      2.10394e+8 
            665      2.21075e+8 
            675      2.34095e+8 
            685      2.48016e+8 
            695      2.72261e+8 
            705       2.8677e+8 
            716      3.08574e+8 
            726      3.27371e+8 
            735      3.48134e+8 
            745      3.69219e+8 
            755      3.90288e+8 
            765      4.11063e+8 
            775      4.34413e+8 
            785      4.57278e+8 
            795      4.78839e+8 
            805      5.02938e+8 
            815      5.26034e+8 
            825      5.50671e+8 
            835      5.64101e+8 
            845      5.98472e+8 
            855      6.21866e+8 
            865      6.48303e+8 
            875      6.74066e+8 
            885      6.99755e+8 
            895      7.25123e+8 
            905      7.45432e+8 
            915      9.01478e+8 
            925      3.97254e+9 
            935      9.71832e+9 
            945     2.77975e+10 
            955     4.01867e+10 
            965     5.51891e+10 
            975     2.34417e+10 
            985     6.52484e+10 
            995     6.18506e+10 
           1005      6.5098e+10 
           1015     5.66397e+10 
           1025     1.72432e+10 
           1035     5.07898e+10 
           1045     6.00442e+10 
           1055     5.91178e+10 
           1065      5.5711e+10 
           1075     5.53607e+10 
           1085     5.06647e+10 
           1095     5.33631e+10 
           1105     5.10719e+10 
           1115     4.97902e+10 
           1125     4.72569e+10 
           1135     4.77614e+10 
           1145     4.56722e+10 
           1155     4.51615e+10 
           1165      4.4148e+10 
           1175     3.93722e+10 
           1185     4.15597e+10 
           1195     3.91364e+10 
           1205     3.35963e+10 
           1215     1.17672e+10 
           1225     3.16371e+10 
           1235     3.60816e+10 
           1245     3.55068e+10 
           1255      3.5125e+10 
           1265     3.42211e+10 
           1275     3.36609e+10 
           1285     3.28561e+10 
           1295     3.09241e+10 
           1305     3.06622e+10 
           1315     3.05767e+10 
           1325     2.96384e+10 
           1335     2.86401e+10 
           1345     2.84115e+10 
           1355      2.7885e+10 
           1365     2.71241e+10 
           1375     2.65915e+10 
           1385     2.60243e+10 
           1395     2.47426e+10 
           1405     2.43726e+10 
           1415     2.42589e+10 
           1425     2.37675e+10 
           1435       2.328e+10 
           1442      2.2973e+10 
           1447     2.27174e+10 
           1455     2.23206e+10 
           1465     2.18396e+10 
           1475     2.13782e+10 
           1485     2.09324e+10 
           1495     2.04915e+10 
           1505      1.9949e+10 
           1512     1.97317e+10 
           1517     1.95413e+10 
           1525     1.92056e+10 
           1535      1.8678e+10 
           1545     1.82223e+10 
           1555      1.7836e+10 
           1565     1.76704e+10 
           1575     1.73586e+10 
           1585     1.70233e+10 
           1595     1.67024e+10 
           1605     1.62843e+10 
           1615     1.59605e+10 
           1625      1.5709e+10 
           1635     1.53765e+10 
           1645     1.47655e+10 
           1655     1.48696e+10 
           1665     1.45964e+10 
           1672     1.43949e+10 
           1677     1.42985e+10 
           1685     1.40795e+10 
           1695     1.38076e+10 
           1705     1.35399e+10 
           1715     1.32646e+10 
           1725     1.30188e+10 
           1735     1.28241e+10 
           1745     1.25872e+10 
           1755     1.23733e+10 
           1765      1.2098e+10 
           1775     1.19084e+10 
           1785     1.17123e+10 
           1795      1.1529e+10 
           1805      1.1336e+10 
           1815     1.11267e+10 
           1825     1.09402e+10 
           1835     1.07521e+10 
           1845     1.05153e+10 
           1855     1.02421e+10 
           1865     1.01101e+10 
           1875     1.00291e+10 
           1885      9.79763e+9 
           1895      9.55885e+9 
           1905      9.51046e+9 
           1915      9.26747e+9 
           1925      9.11623e+9 
           1935       9.0148e+9 
           1945      8.91458e+9 
           1955      8.68788e+9 
           1967      8.60177e+9 
           1976      8.50604e+9 
           1984      8.35776e+9 
           1995      8.15889e+9 
           2005       8.1105e+9 
           2015      7.99828e+9 
           2025      7.88273e+9 
           2035       7.7445e+9 
           2045      7.62463e+9 
           2055        7.377e+9 
           2065      7.24176e+9 
           2074      7.20313e+9 
           2078       7.0922e+9 
           2085      7.08183e+9 
           2095      6.98383e+9 
           2105      6.95402e+9 
           2115       6.8693e+9 
           2125       6.7731e+9 
           2135      6.67046e+9 
           2145      6.56837e+9 
           2155      6.47591e+9 
           2165      6.38215e+9 
           2175      6.28848e+9 
           2185      6.19696e+9 
           2195      6.11029e+9 
           2205      6.02245e+9 
           2215      5.93379e+9 
           2225      5.85105e+9 
           2235      5.76728e+9 
           2245      5.68724e+9 
           2255      5.60239e+9 
           2265      5.52857e+9 
           2275       5.4514e+9 
           2285      5.37558e+9 
           2295      5.26167e+9 
           2305      5.22384e+9 
           2315       5.1554e+9 
           2325      5.08522e+9 
           2335      5.01468e+9 
           2345      4.94768e+9 
           2355      4.88116e+9 
           2365      4.81525e+9 
           2375      4.75034e+9 
           2385      4.68277e+9 
           2395      4.62398e+9 
           2405      4.56294e+9 
           2415      4.50185e+9 
           2425       4.4434e+9 
           2435      4.38442e+9 
           2445      4.32733e+9 
           2455      4.27115e+9 
           2465      4.21585e+9 
           2475      4.16107e+9 
           2485      4.10745e+9 
           2495      3.99931e+9 
           2505       4.0022e+9 
           2513      3.94914e+9 
           2518       3.9352e+9 
           2525      3.90129e+9 
           2535      3.85211e+9 
           2545      3.79822e+9 
           2555      3.75453e+9 
           2565      3.70824e+9 
           2575      3.66268e+9 
           2585      3.61726e+9 
           2595      3.57248e+9 
           2605      3.55027e+9 
           2615      3.50648e+9 
           2625      3.46335e+9 
           2635      3.41921e+9 
           2645      3.37617e+9 
           2655      3.33112e+9 
           2665      3.28389e+9 
           2675      3.23759e+9 
           2685      3.21853e+9 
           2695      3.15465e+9 
           2705      3.14167e+9 
           2715      3.10426e+9 
           2725      3.03981e+9 
           2735       3.0289e+9 
           2745      2.99458e+9 
           2755      2.95952e+9 
           2765      2.89681e+9 
           2775      2.89085e+9 
           2785      2.85701e+9 
           2795      2.81331e+9 
           2805      2.78835e+9 
           2815      2.75893e+9 
           2825      2.69359e+9 
           2835      2.67537e+9 
           2845      2.66498e+9 
           2855      2.63446e+9 
           2865      2.60449e+9 
           2875      2.57501e+9 
           2885      2.54597e+9 
           2895      2.51726e+9 
           2910      2.47487e+9 
           2930      2.41987e+9 
           2950      2.34522e+9 
           2970      2.31473e+9 
           2990      2.26414e+9 
           3010      2.21507e+9 
           3030       2.1675e+9 
           3050      2.12111e+9 
           3070      2.07597e+9 
           3090      2.03111e+9 
           3110      1.98918e+9 
           3130      1.94923e+9 
           3150       1.9088e+9 
           3170      1.86912e+9 
           3190      1.81173e+9 
           3210      1.79197e+9 
           3230      1.75529e+9 
           3250      1.71938e+9 
           3270      1.68679e+9 
           3290       1.6504e+9 
           3310      1.62013e+9 
           3330      1.58806e+9 
           3350      1.55371e+9 
           3370      1.52624e+9 
           3390      1.49651e+9 
           3410      1.46751e+9 
           3430       1.4329e+9 
           3450      1.40003e+9 
           3470      1.37753e+9 
           3490      1.35142e+9 
           3510       1.3275e+9 
           3530      1.30395e+9 
           3550      1.28042e+9 
           3570      1.26555e+9 
           3590      1.23132e+9 
           3610       1.2145e+9 
           3630      1.18683e+9 
           3640      1.18669e+9 
           3650      1.17304e+9 
           3670      1.15694e+9 
           3690      1.13671e+9 
           3710      1.09939e+9 
           3730      1.06153e+9 
           3750      1.04914e+9 
           3770      1.01914e+9 
           3790       1.0595e+9 
           3810      1.10451e+9 
           3830      9.59101e+8 
           3850      1.13922e+9 
           3870      1.16639e+9 
           3890      8.97975e+8 
           3910      1.14686e+9 
           3930      1.14761e+9 
           3950      1.11154e+9 
           3970      8.33801e+8 
           3990      1.06063e+9 
           4010      1.06983e+9 
           4030      9.93824e+8 
           4050       1.0491e+9 
           4070      1.02287e+9 
           4090      9.11235e+8 
           4110      7.88156e+8 
           4130      9.54032e+8 
           4150      9.50962e+8 
           4170      9.45913e+8 
           4190      9.33213e+8 
           4210      9.17524e+8 
           4230      9.01835e+8 
           4250      8.86318e+8 
           4270      8.69997e+8 
           4290      8.53163e+8 
           4310      8.30358e+8 
           4330      7.27824e+8 
           4350       6.6128e+8 
           4370      7.85717e+8 
           4390      7.55351e+8 
           4410      7.72807e+8 
           4430       7.5855e+8 
           4450      7.49007e+8 
           4470      6.92186e+8 
           4490      7.23967e+8 
           4510      7.14338e+8 
           4530       7.0294e+8 
           4550      6.91606e+8 
           4570      6.80605e+8 
           4590      6.69877e+8 
           4610      6.59415e+8 
           4630      6.49109e+8 
           4650       6.3838e+8 
           4670      6.28933e+8 
           4690      6.18511e+8 
           4710      6.00448e+8 
           4730      6.00348e+8 
           4750      5.91096e+8 
           4770      5.82209e+8 
           4790      5.72579e+8 
           4810      5.62112e+8 
           4830      5.48019e+8 
           4850      4.91554e+8 
           4870      4.36758e+8 
           4890      5.19954e+8 
           4910      5.19399e+8 
           4930      4.97679e+8 
           4950      5.07995e+8 
           4970      5.00895e+8 
           4990      4.93574e+8 
           5010      4.79135e+8 
           5030      4.79233e+8 
           5050      4.69122e+8 
           5070       4.6559e+8 
           5090      4.58899e+8 
           5110      4.52342e+8 
           5130      4.45901e+8 
           5150      4.39561e+8 
           5170      4.33348e+8 
           5190      4.27246e+8 
           5210      4.21238e+8 
           5230       4.1535e+8 
           5250      4.09567e+8 
           5270      4.03874e+8 
           5290      3.98281e+8 
           5310      3.92788e+8 
           5330      3.87393e+8 
           5350       3.8208e+8 
           5370      3.76874e+8 
           5390      3.71749e+8 
           5410      3.66701e+8 
           5430      3.61756e+8 
           5450      3.56886e+8 
           5470       3.5209e+8 
           5490      3.47392e+8 
           5510      3.42766e+8 
           5530      3.38209e+8 
           5550      3.33733e+8 
           5570      3.29325e+8 
           5590      3.24996e+8 
           5610      3.20731e+8 
           5630      3.16555e+8 
           5650       3.1243e+8 
           5670      3.08366e+8 
           5690      3.04364e+8 
           5710      3.00456e+8 
           5730      2.96595e+8 
           5750      2.92781e+8 
           5770      2.89069e+8 
           5790      2.85389e+8 
           5810      2.81765e+8 
           5830      2.78206e+8 
           5850        2.747e+8 
           5870      2.60914e+8 
           5890      2.67007e+8 
           5910      2.64512e+8 
           5930      2.61221e+8 
           5950      2.57978e+8 
           5970      2.54793e+8 
           5990      2.51656e+8 
           6010      2.48566e+8 
           6030      2.45521e+8 
           6050      2.42521e+8 
           6070      2.39576e+8 
           6090      2.36664e+8 
           6110      2.33805e+8 
           6130      2.30989e+8 
           6150      2.28214e+8 
           6170       2.2548e+8 
           6190      2.22787e+8 
           6210      2.20133e+8 
           6230      2.17518e+8 
           6250      2.14942e+8 
           6270      2.12404e+8 
           6290      2.09913e+8 
           6310      2.07449e+8 
           6330      2.05021e+8 
           6350       2.0262e+8 
           6370      2.00272e+8 
           6390       1.9795e+8 
           6410      1.95663e+8 
           6430      1.93409e+8 
           6450      1.91179e+8 
           6470      1.88991e+8 
           6490      1.86763e+8 
           6510      1.84106e+8 
           6530       1.8086e+8 
           6550      1.69931e+8 
           6570      1.49863e+8 
           6590      1.73088e+8 
           6610      1.73646e+8 
           6630      1.72308e+8 
           6650      1.70711e+8 
           6670      1.66488e+8 
           6690      1.64686e+8 
           6710      1.65103e+8 
           6730      1.63275e+8 
           6750      1.61482e+8 
           6770      1.59707e+8 
           6790      1.57951e+8 
           6810      1.56228e+8 
           6830      1.54523e+8 
           6850      1.52852e+8 
           6870      1.51197e+8 
           6890      1.49558e+8 
           6910      1.47944e+8 
           6930      1.46354e+8 
           6950      1.44788e+8 
           6970      1.43244e+8 
           6990      1.41717e+8 
           7010      1.40211e+8 
           7030      1.38721e+8 
           7050      1.37253e+8 
           7070       1.3332e+8 
           7090      1.34382e+8 
           7110      1.32971e+8 
           7130      1.31582e+8 
           7150      1.30206e+8 
           7170      1.28843e+8 
           7190      1.27515e+8 
           7210      1.26199e+8 
           7230      1.24861e+8 
           7250      1.23607e+8 
           7270      1.22336e+8 
           7290      1.19964e+8 
           7310      1.19837e+8 
           7330       1.1863e+8 
           7350      1.17421e+8 
           7370       1.1623e+8 
           7390      1.15056e+8 
           7410      1.13894e+8 
           7430      1.12749e+8 
           7450      1.11636e+8 
           7470      1.10512e+8 
           7490      1.09413e+8 
           7510      1.08283e+8 
           7530      1.07243e+8 
           7550      1.06187e+8 
           7570      1.05133e+8 
           7590      1.04096e+8 
           7610      1.03075e+8 
           7630      1.02063e+8 
           7650       1.0106e+8 
           7670      1.00072e+8 
           7690      9.91003e+7 
           7710      9.81368e+7 
           7730      9.71883e+7 
           7750       9.6242e+7 
           7770      9.53166e+7 
           7790      9.43995e+7 
           7810       9.3441e+7 
           7830      9.25956e+7 
           7850      9.18065e+7 
           7870      9.09269e+7 
           7890      9.00126e+7 
           7910      8.92148e+7 
           7930        8.837e+7 
           7950      8.75325e+7 
           7970      8.65777e+7 
           7990      8.57908e+7 
           8010       8.4899e+7 
           8030       8.4091e+7 
           8050      8.33017e+7 
           8070      8.25364e+7 
           8090      8.16914e+7 
           8110      8.09968e+7 
           8130      8.03081e+7 
           8150      7.95118e+7 
           8170      7.88577e+7 
           8190      7.80518e+7 
           8210      7.72695e+7 
           8230      7.67498e+7 
           8250      7.60682e+7 
           8270      7.50507e+7 
           8290      7.46671e+7 
           8310      7.40299e+7 
           8330      7.33165e+7 
           8350      7.23228e+7 
           8370       7.1913e+7 
           8390      7.13779e+7 
           8410      7.07405e+7 
           8430       7.0066e+7 
           8450      6.89644e+7 
           8470      6.88386e+7 
           8490      6.80652e+7 
           8510      6.75844e+7 
           8530      6.68277e+7 
           8550      6.61547e+7 
           8570      6.59694e+7 
