# Kurucz ODFNEW /NOVER (2003)
# teff = 34000 K (value for the effective temperature for the model. Temperatures are given in K)
# logg = 4.5 log(cm/s2) (value for Log(G) for the model.)
# meta = -0.5  (value for the Metallicity for the model.)
# lh = 1.25  (l/Hp where l is the  mixing length of the convective element and Hp is the pressure scale height)
# vtur = 2 km/s (Microturbulence velocity)
# alpha = 0.4  (Alpha)
#
# column 1: WAVELENGTH (ANGSTROM), Wavelength in Angstrom
# column 2: FLUX (ERG/CM2/S/A), Flux in erg/cm2/s/A
          147.2      2.60885e-5 
            151      6.72614e-5 
          155.2     0.000181913 
          158.8     0.000410336 
            162     0.000821214 
            166      0.00188789 
          170.3        0.004423 
          173.4      0.00798701 
          176.8       0.0149423 
          180.2       0.0272616 
          181.7       0.0354091 
          186.1       0.0739172 
            191         0.16152 
          193.9        0.251846 
          198.4        0.490243 
          201.8        0.794436 
            205         1.23359 
          210.5         2.55088 
          216.2         5.19423 
          219.8         8.03099 
            223         11.6604 
          226.8          17.904 
            230         14593.5 
            234         39193.5 
            240         60415.4 
          246.5         97898.9 
          252.4          157526 
          256.8          193134 
            260          310022 
            264          439966 
          268.5          642860 
          273.5          855976 
          278.5      1.03272e+6 
            284       1.9688e+6 
            290       2.7163e+6 
            296      3.41497e+6 
            301      4.44503e+6 
            308      8.55052e+6 
            318      1.83186e+7 
            328      2.50132e+7 
            338      4.07648e+7 
            348       5.8486e+7 
            357      9.98895e+7 
            366      1.71882e+8 
            375      1.97201e+8 
            385      2.63387e+8 
            395      3.77925e+8 
            405      4.48148e+8 
            414      5.48974e+8 
            422      5.91842e+8 
            430      6.55578e+8 
            441      7.83344e+8 
            451      8.93996e+8 
            460      9.51598e+8 
            470       1.0868e+9 
            480      1.23124e+9 
            490      1.31534e+9 
            500      1.55725e+9 
            506      2.96603e+9 
            512      1.5893e+10 
            520     1.47237e+10 
            530     1.34068e+10 
            540     1.24642e+10 
            550      1.3688e+10 
            560     1.65071e+10 
            570     1.71331e+10 
            580     1.58251e+10 
            590      1.6672e+10 
            600     1.39369e+10 
            610     1.60107e+10 
            620     1.82367e+10 
            630     1.78227e+10 
            640     1.77401e+10 
            650      1.7581e+10 
            658     1.52558e+10 
            665     1.71316e+10 
            675      1.8384e+10 
            685     1.59323e+10 
            695     1.85719e+10 
            705     1.56414e+10 
            716     1.92834e+10 
            726     1.88924e+10 
            735     1.90685e+10 
            745     1.82458e+10 
            755     1.81384e+10 
            765     1.84874e+10 
            775     1.87378e+10 
            785     1.89678e+10 
            795     1.89377e+10 
            805     1.83928e+10 
            815     1.84081e+10 
            825     1.90018e+10 
            835     1.63914e+10 
            845      1.8495e+10 
            855     1.83447e+10 
            865     1.86969e+10 
            875     1.86597e+10 
            885     1.87171e+10 
            895     1.87592e+10 
            905     1.83032e+10 
            915      1.8516e+10 
            925     4.79924e+10 
            935     7.32968e+10 
            945       1.016e+11 
            955     1.12499e+11 
            965     1.30294e+11 
            975     7.05249e+10 
            985      1.1573e+11 
            995     1.04241e+11 
           1005     1.06556e+11 
           1015     1.08515e+11 
           1025     8.00881e+10 
           1035     1.04259e+11 
           1045     1.13444e+11 
           1055     1.09608e+11 
           1065     9.79435e+10 
           1075     9.97581e+10 
           1085     9.20491e+10 
           1095     9.78533e+10 
           1105     9.32425e+10 
           1115     9.12381e+10 
           1125     7.80948e+10 
           1135     8.75889e+10 
           1145     8.30858e+10 
           1155     7.98318e+10 
           1165     7.85172e+10 
           1175     6.03449e+10 
           1185     7.21681e+10 
           1195     6.98335e+10 
           1205     6.64662e+10 
           1215     4.96717e+10 
           1225      6.4419e+10 
           1235     6.72307e+10 
           1245     6.51051e+10 
           1255     6.46362e+10 
           1265     6.47107e+10 
           1275     6.46103e+10 
           1285     6.38505e+10 
           1295     5.96288e+10 
           1305     5.93755e+10 
           1315     6.06174e+10 
           1325     5.84506e+10 
           1335     5.68637e+10 
           1345      5.6088e+10 
           1355     5.50764e+10 
           1365     5.29703e+10 
           1375     5.18838e+10 
           1385     5.05402e+10 
           1395     4.22934e+10 
           1405     4.27126e+10 
           1415     4.74829e+10 
           1425     4.37873e+10 
           1435     4.52282e+10 
           1442     4.49967e+10 
           1447     4.44902e+10 
           1455     4.28527e+10 
           1465     4.21363e+10 
           1475     4.15149e+10 
           1485     4.13096e+10 
           1495     4.00273e+10 
           1505     3.90863e+10 
           1512     3.87351e+10 
           1517     3.84212e+10 
           1525     3.74101e+10 
           1535     3.40047e+10 
           1545     3.07867e+10 
           1555      3.0512e+10 
           1565     3.18999e+10 
           1575     3.26427e+10 
           1585      3.2424e+10 
           1595     3.21609e+10 
           1605     3.03457e+10 
           1615     2.92243e+10 
           1625      2.9348e+10 
           1635     2.91634e+10 
           1645      2.8363e+10 
           1655     2.90873e+10 
           1665     2.83272e+10 
           1672     2.69356e+10 
           1677     2.93016e+10 
           1685     2.83659e+10 
           1695      2.7627e+10 
           1705     2.70071e+10 
           1715     2.61884e+10 
           1725     2.53096e+10 
           1735      2.5876e+10 
           1745     2.54788e+10 
           1755     2.49116e+10 
           1765     2.45153e+10 
           1775     2.40007e+10 
           1785      2.3891e+10 
           1795     2.33694e+10 
           1805     2.31991e+10 
           1815     2.26617e+10 
           1825     2.22613e+10 
           1835     2.21346e+10 
           1845     2.12578e+10 
           1855     2.10347e+10 
           1865     2.08628e+10 
           1875     2.04255e+10 
           1885     1.97736e+10 
           1895     1.94448e+10 
           1905     1.95807e+10 
           1915     1.90264e+10 
           1925     1.81867e+10 
           1935      1.8615e+10 
           1945     1.85734e+10 
           1955     1.75412e+10 
           1967      1.7764e+10 
           1976     1.78023e+10 
           1984     1.73288e+10 
           1995     1.68495e+10 
           2005     1.69555e+10 
           2015     1.67849e+10 
           2025     1.65625e+10 
           2035     1.61536e+10 
           2045     1.58915e+10 
           2055     1.30449e+10 
           2065     1.25558e+10 
           2074     1.27895e+10 
           2078     1.27726e+10 
           2085     1.32927e+10 
           2095     1.40786e+10 
           2105     1.44501e+10 
           2115     1.44427e+10 
           2125     1.41085e+10 
           2135      1.3994e+10 
           2145     1.37746e+10 
           2155     1.37054e+10 
           2165     1.31765e+10 
           2175     1.33494e+10 
           2185     1.29064e+10 
           2195      1.3022e+10 
           2205     1.28306e+10 
           2215     1.23387e+10 
           2225     1.24343e+10 
           2235     1.22554e+10 
           2245     1.20643e+10 
           2255     1.16345e+10 
           2265     1.17258e+10 
           2275     1.15684e+10 
           2285     1.13028e+10 
           2295     1.06981e+10 
           2305      1.0797e+10 
           2315     1.08276e+10 
           2325     1.07207e+10 
           2335      1.0569e+10 
           2345     1.04277e+10 
           2355     1.02639e+10 
           2365     1.01126e+10 
           2375      9.93948e+9 
           2385      9.54237e+9 
           2395      9.58633e+9 
           2405      9.54325e+9 
           2415      9.38557e+9 
           2425      9.28591e+9 
           2435      9.12783e+9 
           2445      9.02055e+9 
           2455      8.88158e+9 
           2465      8.78176e+9 
           2475      8.65621e+9 
           2485      8.48602e+9 
           2495      7.04436e+9 
           2505      8.17395e+9 
           2513      7.80761e+9 
           2518      7.95013e+9 
           2525      8.08042e+9 
           2535      7.99335e+9 
           2545      7.83294e+9 
           2555      7.74635e+9 
           2565      7.65401e+9 
           2575      7.56797e+9 
           2585      7.47288e+9 
           2595      7.34715e+9 
           2605      7.29362e+9 
           2615      7.17845e+9 
           2625       7.1009e+9 
           2635      7.00966e+9 
           2645      6.91099e+9 
           2655      6.82269e+9 
           2665      6.70634e+9 
           2675      6.58679e+9 
           2685       6.5582e+9 
           2695      6.44063e+9 
           2705      6.38744e+9 
           2715      6.30214e+9 
           2725      6.19864e+9 
           2735      6.04411e+9 
           2745      6.08115e+9 
           2755      6.00134e+9 
           2765       5.8979e+9 
           2775      5.86525e+9 
           2785      5.77706e+9 
           2795      5.62151e+9 
           2805       5.6198e+9 
           2815      5.57614e+9 
           2825      5.48245e+9 
           2835      5.40962e+9 
           2845      5.38143e+9 
           2855      5.30452e+9 
           2865      5.23542e+9 
           2875      5.17217e+9 
           2885      5.11511e+9 
           2895      5.04971e+9 
           2910      4.94307e+9 
           2930      4.84685e+9 
           2950       4.7082e+9 
           2970      4.61468e+9 
           2990      4.49289e+9 
           3010      4.37808e+9 
           3030      4.26631e+9 
           3050      4.18989e+9 
           3070      4.11069e+9 
           3090      3.99018e+9 
           3110        3.925e+9 
           3130      3.82824e+9 
           3150      3.74774e+9 
           3170      3.66461e+9 
           3190      3.57652e+9 
           3210      3.48504e+9 
           3230      3.43147e+9 
           3250      3.36583e+9 
           3270      3.27599e+9 
           3290      3.21634e+9 
           3310       3.1487e+9 
           3330        3.076e+9 
           3350      3.00608e+9 
           3370      2.94885e+9 
           3390      2.89773e+9 
           3410      2.83662e+9 
           3430       2.7778e+9 
           3450      2.70891e+9 
           3470      2.66134e+9 
           3490       2.6077e+9 
           3510      2.55776e+9 
           3530       2.5119e+9 
           3550      2.45905e+9 
           3570      2.41744e+9 
           3590      2.35834e+9 
           3610      2.31774e+9 
           3630      2.26697e+9 
           3640      2.24401e+9 
           3650      2.14704e+9 
           3670      2.11279e+9 
           3690      2.07296e+9 
           3710      2.01134e+9 
           3730      1.96931e+9 
           3750      1.95918e+9 
           3770      1.91783e+9 
           3790      1.96533e+9 
           3810      2.00369e+9 
           3830      1.82084e+9 
           3850      1.99623e+9 
           3870      1.96813e+9 
           3890       1.7126e+9 
           3910      1.93915e+9 
           3930      1.89554e+9 
           3950      1.85128e+9 
           3970       1.5804e+9 
           3990      1.79783e+9 
           4010      1.77132e+9 
           4030        1.698e+9 
           4050        1.723e+9 
           4070      1.66249e+9 
           4090      1.56661e+9 
           4110      1.43409e+9 
           4130      1.57866e+9 
           4150      1.56012e+9 
           4170      1.54692e+9 
           4190      1.51478e+9 
           4210      1.48585e+9 
           4230      1.46998e+9 
           4250      1.43594e+9 
           4270      1.40628e+9 
           4290      1.38264e+9 
           4310      1.35063e+9 
           4330      1.26649e+9 
           4350      1.17929e+9 
           4370       1.2877e+9 
           4390       1.2548e+9 
           4410      1.24833e+9 
           4430      1.23397e+9 
           4450      1.21295e+9 
           4470      1.16372e+9 
           4490      1.17361e+9 
           4510      1.15476e+9 
           4530      1.13836e+9 
           4550      1.11078e+9 
           4570      1.10171e+9 
           4590      1.08126e+9 
           4610       1.0628e+9 
           4630       1.0421e+9 
           4650      1.00339e+9 
           4670      1.01055e+9 
           4690      9.82479e+8 
           4710      9.70298e+8 
           4730      9.71674e+8 
           4750      9.55478e+8 
           4770      9.42482e+8 
           4790      9.27748e+8 
           4810      9.12168e+8 
           4830      8.93358e+8 
           4850      8.46302e+8 
           4870      7.76034e+8 
           4890      8.52474e+8 
           4910      8.42903e+8 
           4930      8.18113e+8 
           4950      8.16451e+8 
           4970      8.08109e+8 
           4990       7.9597e+8 
           5010      7.74919e+8 
           5030      7.70764e+8 
           5050      7.57743e+8 
           5070      7.49871e+8 
           5090      7.38522e+8 
           5110      7.27761e+8 
           5130      7.16987e+8 
           5150      7.06571e+8 
           5170      6.95942e+8 
           5190      6.86435e+8 
           5210       6.7672e+8 
           5230       6.6716e+8 
           5250      6.57139e+8 
           5270      6.47549e+8 
           5290      6.39081e+8 
           5310      6.29987e+8 
           5330       6.2117e+8 
           5350      6.12481e+8 
           5370      6.03955e+8 
           5390      5.95306e+8 
           5410       5.8243e+8 
           5430       5.7917e+8 
           5450      5.71097e+8 
           5470      5.63226e+8 
           5490      5.55568e+8 
           5510      5.47894e+8 
           5530      5.40538e+8 
           5550      5.33298e+8 
           5570      5.26051e+8 
           5590      5.18254e+8 
           5610      5.12064e+8 
           5630      5.05235e+8 
           5650      4.98455e+8 
           5670      4.91581e+8 
           5690      4.81743e+8 
           5710      4.70725e+8 
           5730      4.64841e+8 
           5750      4.58388e+8 
           5770      4.53066e+8 
           5790       4.4721e+8 
           5810      4.41324e+8 
           5830      4.35608e+8 
           5850      4.30829e+8 
           5870      4.16867e+8 
           5890      4.20154e+8 
           5910      4.15978e+8 
           5930      4.11388e+8 
           5950       4.0686e+8 
           5970      4.02659e+8 
           5990      3.98179e+8 
           6010       3.9423e+8 
           6030       3.8936e+8 
           6050       3.8467e+8 
           6070      3.80002e+8 
           6090      3.75286e+8 
           6110      3.70603e+8 
           6130      3.66063e+8 
           6150      3.61345e+8 
           6170      3.56919e+8 
           6190      3.52758e+8 
           6210      3.48477e+8 
           6230      3.44224e+8 
           6250       3.3999e+8 
           6270      3.35946e+8 
           6290      3.31908e+8 
           6310      3.27773e+8 
           6330      3.24004e+8 
           6350      3.20051e+8 
           6370      3.16336e+8 
           6390      3.12569e+8 
           6410      3.08751e+8 
           6430      3.05239e+8 
           6450      3.01619e+8 
           6470      2.97885e+8 
           6490       2.9446e+8 
           6510      2.90902e+8 
           6530      2.86349e+8 
           6550      2.77517e+8 
           6570       2.5257e+8 
           6590      2.75962e+8 
           6610      2.74536e+8 
           6630       2.7158e+8 
           6650      2.68432e+8 
           6670      2.63074e+8 
           6690      2.59887e+8 
           6710       2.5911e+8 
           6730      2.56216e+8 
           6750      2.53576e+8 
           6770      2.50838e+8 
           6790      2.47851e+8 
           6810      2.45252e+8 
           6830      2.42461e+8 
           6850      2.39819e+8 
           6870      2.37132e+8 
           6890      2.33924e+8 
           6910      2.31641e+8 
           6930      2.29443e+8 
           6950      2.26931e+8 
           6970      2.24452e+8 
           6990      2.21997e+8 
           7010      2.19505e+8 
           7030      2.17046e+8 
           7050       2.1474e+8 
           7070       2.0997e+8 
           7090      2.10255e+8 
           7110      2.07949e+8 
           7130      2.05754e+8 
           7150      2.03588e+8 
           7170       2.0112e+8 
           7190       1.9915e+8 
           7210      1.97184e+8 
           7230      1.94603e+8 
           7250      1.92907e+8 
           7270       1.9102e+8 
           7290      1.87896e+8 
           7310      1.87011e+8 
           7330      1.85094e+8 
           7350      1.83168e+8 
           7370      1.81273e+8 
           7390      1.79404e+8 
           7410      1.77551e+8 
           7430       1.7573e+8 
           7450      1.73912e+8 
           7470      1.71969e+8 
           7490      1.70253e+8 
           7510      1.68626e+8 
           7530      1.66934e+8 
           7550      1.65265e+8 
           7570       1.6359e+8 
           7590      1.61513e+8 
           7610      1.60197e+8 
           7630      1.58692e+8 
           7650      1.57084e+8 
           7670      1.55561e+8 
           7690      1.53881e+8 
           7710      1.52443e+8 
           7730      1.50766e+8 
           7750      1.49469e+8 
           7770      1.48008e+8 
           7790      1.46553e+8 
           7810      1.45075e+8 
           7830      1.43702e+8 
           7850      1.42365e+8 
           7870      1.40858e+8 
           7890      1.39473e+8 
           7910      1.38257e+8 
           7930      1.36907e+8 
           7950      1.35611e+8 
           7970      1.34232e+8 
           7990      1.32994e+8 
           8010      1.31726e+8 
           8030      1.30434e+8 
           8050      1.29223e+8 
           8070      1.27993e+8 
           8090       1.2667e+8 
           8110      1.25215e+8 
           8130      1.24372e+8 
           8150      1.23105e+8 
           8170       1.2204e+8 
           8190      1.20585e+8 
           8210      1.18696e+8 
           8230      1.17447e+8 
           8250      1.16651e+8 
           8270      1.15201e+8 
           8290      1.14531e+8 
           8310      1.13543e+8 
           8330      1.12407e+8 
           8350      1.11086e+8 
           8370      1.10297e+8 
           8390      1.09424e+8 
           8410      1.08414e+8 
           8430      1.07424e+8 
           8450      1.06056e+8 
           8470      1.05503e+8 
           8490      1.04437e+8 
           8510      1.03416e+8 
           8530      1.02559e+8 
           8550      1.01425e+8 
           8570      1.01183e+8 
