# Kurucz ODFNEW /NOVER (2003)
# teff = 6500 K (value for the effective temperature for the model. Temperatures are given in K)
# logg = 1.5 log(cm/s2) (value for Log(G) for the model.)
# meta = -4  (value for the Metallicity for the model.)
# lh = 1.25  (l/Hp where l is the  mixing length of the convective element and Hp is the pressure scale height)
# vtur = 2 km/s (Microturbulence velocity)
# alpha = 0.4  (Alpha)
#
# column 1: WAVELENGTH (ANGSTROM), Wavelength in Angstrom
# column 2: FLUX (ERG/CM2/S/A), Flux in erg/cm2/s/A
          147.2     1.73866e-35 
            151     1.65225e-35 
          155.2     1.56403e-35 
          158.8     1.49392e-35 
            162     1.43549e-35 
            166     1.36714e-35 
          170.3     1.29897e-35 
          173.4     1.25294e-35 
          176.8     1.20522e-35 
          180.2     1.16017e-35 
          181.7     1.14109e-35 
          186.1     1.08777e-35 
            191     1.03267e-35 
          193.9     1.00201e-35 
          198.4     9.57076e-36 
          201.8     9.25097e-36 
            205     8.96441e-36 
          210.5     8.50208e-36 
          216.2     8.05969e-36 
          219.8     7.79784e-36 
            223     7.57565e-36 
          226.8     7.32392e-36 
            230     7.12154e-36 
            234     6.88015e-36 
            240     6.54044e-36 
          246.5     6.20006e-36 
          252.4     5.91358e-36 
          256.8     5.71267e-36 
            260     5.57292e-36 
            264     5.40532e-36 
          268.5     5.22566e-36 
          273.5     5.03634e-36 
          278.5     4.85712e-36 
            284     4.67082e-36 
            290     4.47954e-36 
            296     4.29978e-36 
            301     4.15812e-36 
            308     3.97126e-36 
            318     3.72542e-36 
            328     3.50172e-36 
            338     3.29759e-36 
            348     4.15073e-24 
            357     9.23874e-23 
            366     6.77014e-22 
            375     4.37957e-21 
            385     3.12694e-20 
            395     2.01383e-19 
            405     1.17926e-18 
            414     5.36577e-18 
            422     1.95039e-17 
            430     6.74527e-17 
            441     3.44223e-16 
            451     1.40995e-15 
            460     4.74989e-15 
            470     1.73033e-14 
            480     5.95949e-14 
            490     1.94735e-13 
            500      6.0566e-13 
            506     1.15036e-12 
            512     2.22349e-12 
            520     5.11023e-12 
            530     1.39359e-11 
            540     3.65554e-11 
            550     9.24289e-11 
            560     2.25713e-10 
            570      5.3337e-10 
            580      1.22168e-9 
            590      2.71687e-9 
            600      5.87468e-9 
            610       1.2369e-8 
            620        2.539e-8 
            630      5.08779e-8 
            640      9.96365e-8 
            650      1.90906e-7 
            658      3.16357e-7 
            665      4.87003e-7 
            675        8.872e-7 
            685      1.58656e-6 
            695      2.78711e-6 
            705      4.81363e-6 
            716      8.61768e-6 
            726      1.43944e-5 
            735      2.25525e-5 
            745      3.66409e-5 
            755      5.87163e-5 
            765      9.28587e-5 
            775     0.000145009 
            785     0.000223705 
            795     0.000341088 
            805     0.000514239 
            815     0.000766929 
            825      0.00113192 
            835      0.00165394 
            845      0.00239341 
            855      0.00343126 
            865      0.00487506 
            875      0.00686662 
            885      0.00959061 
            895       0.0132876 
            905        0.018266 
            915       0.0400076 
            925        0.154716 
            935        0.231383 
            945        0.383481 
            955        0.623404 
            965        0.554803 
            975        0.375955 
            985         1.50979 
            995         1.76857 
           1005         1.65578 
           1015           1.108 
           1025         1.96328 
           1035         2.14297 
           1045         4.77318 
           1055         7.51411 
           1065         10.5516 
           1075         13.1722 
           1085         15.8801 
           1095         17.7678 
           1105         20.0332 
           1115          17.061 
           1125         14.1301 
           1135          12.074 
           1145          10.883 
           1155         10.0693 
           1165         9.62791 
           1175         9.39596 
           1185         64.4737 
           1195         26.2453 
           1205         24.9989 
           1215         23.3343 
           1225         33.3995 
           1235         47.6511 
           1245         19.5704 
           1255         27.1289 
           1265         33.6961 
           1275         41.5564 
           1285         52.4999 
           1295         66.7185 
           1305         82.9611 
           1315         108.817 
           1325         137.896 
           1335         178.011 
           1345         237.447 
           1355         308.787 
           1365         406.588 
           1375         538.704 
           1385         726.779 
           1395         999.366 
           1405         1103.42 
           1415         1245.87 
           1425         1470.78 
           1435         1691.29 
           1442          1849.8 
           1447         2021.28 
           1455         2203.41 
           1465         2558.02 
           1475         2886.91 
           1485         3271.15 
           1495         3717.02 
           1505         4173.75 
           1512         4544.36 
           1517         4838.43 
           1525         5261.29 
           1535         5869.77 
           1545         6563.42 
           1555         7245.81 
           1565         7831.07 
           1575         8813.85 
           1585         9703.06 
           1595         10680.6 
           1605           11681 
           1615         12890.3 
           1625           14582 
           1635           18181 
           1645         32103.8 
           1655         54154.2 
           1665          127395 
           1672          170591 
           1677          224940 
           1685          301174 
           1695          391032 
           1705          479765 
           1715          579640 
           1725          641825 
           1735          720150 
           1745          759119 
           1755          832957 
           1765          844055 
           1775          910655 
           1785          956513 
           1795      1.03744e+6 
           1805      1.05571e+6 
           1815      1.11024e+6 
           1825      1.13518e+6 
           1835      1.20944e+6 
           1845      1.20367e+6 
           1855      1.29703e+6 
           1865      1.36764e+6 
           1875      1.41524e+6 
           1885      1.47417e+6 
           1895        1.526e+6 
           1905      1.53286e+6 
           1915      1.62537e+6 
           1925       1.7043e+6 
           1935      1.71752e+6 
           1945      1.81691e+6 
           1955       1.8651e+6 
           1967      1.93959e+6 
           1976       1.9455e+6 
           1984      1.98344e+6 
           1995      2.06954e+6 
           2005      2.09196e+6 
           2015      2.12618e+6 
           2025      2.15374e+6 
           2035       2.2709e+6 
           2045      2.32126e+6 
           2055      2.32245e+6 
           2065      2.38642e+6 
           2074      2.49738e+6 
           2078      2.51482e+6 
           2085      2.53497e+6 
           2095      2.57855e+6 
           2105      2.62884e+6 
           2115      2.68708e+6 
           2125      2.71767e+6 
           2135      2.73095e+6 
           2145      2.82992e+6 
           2155      2.86934e+6 
           2165      2.86677e+6 
           2175       2.9389e+6 
           2185       3.0047e+6 
           2195      3.10554e+6 
           2205      3.10169e+6 
           2215      3.04595e+6 
           2225      3.15005e+6 
           2235       3.2938e+6 
           2245      3.29465e+6 
           2255      3.26097e+6 
           2265      3.25398e+6 
           2275      3.41745e+6 
           2285      3.47455e+6 
           2295      3.47288e+6 
           2305      3.55385e+6 
           2315       3.5779e+6 
           2325      3.62608e+6 
           2335      3.62646e+6 
           2345      3.53332e+6 
           2355      3.74853e+6 
           2365      3.64914e+6 
           2375      3.78965e+6 
           2385      3.60051e+6 
           2395      3.83768e+6 
           2405       3.8711e+6 
           2415      3.92166e+6 
           2425      4.10771e+6 
           2435      4.07728e+6 
           2445      4.16461e+6 
           2455       4.2047e+6 
           2465      4.18033e+6 
           2475      4.19212e+6 
           2485      4.23422e+6 
           2495      4.24459e+6 
           2505      4.40144e+6 
           2513      4.29263e+6 
           2518      4.30115e+6 
           2525      4.25931e+6 
           2535      4.30468e+6 
           2545      4.40592e+6 
           2555      4.58324e+6 
           2565      4.58038e+6 
           2575      4.68339e+6 
           2585      4.73867e+6 
           2595      4.73439e+6 
           2605      4.71304e+6 
           2615      4.73183e+6 
           2625      4.78665e+6 
           2635      4.87003e+6 
           2645      5.09843e+6 
           2655      5.11926e+6 
           2665      5.05694e+6 
           2675      5.13034e+6 
           2685      5.22566e+6 
           2695      5.22066e+6 
           2705      5.28048e+6 
           2715      5.20536e+6 
           2725      5.25043e+6 
           2735      5.32039e+6 
           2745       5.1307e+6 
           2755      5.20669e+6 
           2765      5.35635e+6 
           2775      5.51057e+6 
           2785      5.52109e+6 
           2795      5.00038e+6 
           2805      5.28415e+6 
           2815      5.70165e+6 
           2825      5.72697e+6 
           2835      5.68805e+6 
           2845      5.72958e+6 
           2855        5.653e+6 
           2865      5.72055e+6 
           2875      5.80069e+6 
           2885      5.83206e+6 
           2895      5.93344e+6 
           2910        6.005e+6 
           2930      5.99966e+6 
           2950      6.03373e+6 
           2970      6.12358e+6 
           2990       6.1772e+6 
           3010      6.26711e+6 
           3030       6.3254e+6 
           3050      6.38688e+6 
           3070      6.38068e+6 
           3090      6.48735e+6 
           3110      6.53583e+6 
           3130      6.58101e+6 
           3150      6.61996e+6 
           3170      6.67128e+6 
           3190      6.67081e+6 
           3210      6.75101e+6 
           3230      6.72652e+6 
           3250      6.82018e+6 
           3270      6.91705e+6 
           3290       6.9766e+6 
           3310      7.01977e+6 
           3330      7.00739e+6 
           3350       7.0052e+6 
           3370      7.06892e+6 
           3390      7.10148e+6 
           3410      7.20082e+6 
           3430      7.23525e+6 
           3450      7.25321e+6 
           3470      7.28592e+6 
           3490      7.32853e+6 
           3510      7.36879e+6 
           3530      7.40465e+6 
           3550      7.43773e+6 
           3570      7.44361e+6 
           3590      7.47461e+6 
           3610      7.50331e+6 
           3630      7.53264e+6 
           3640      7.54221e+6 
           3650       7.5869e+6 
           3670      7.54891e+6 
           3690      8.14599e+6 
           3710      1.04459e+7 
           3730      1.30317e+7 
           3750      1.68783e+7 
           3770      1.73944e+7 
           3790      1.93134e+7 
           3810      2.13023e+7 
           3830        1.822e+7 
           3850      2.24335e+7 
           3870      2.34438e+7 
           3890      1.72485e+7 
           3910       2.3246e+7 
           3930      2.31403e+7 
           3950       2.3135e+7 
           3970       1.6797e+7 
           3990      2.26822e+7 
           4010      2.31947e+7 
           4030      2.31082e+7 
           4050      2.29584e+7 
           4070      2.26385e+7 
           4090      2.07229e+7 
           4110      1.73867e+7 
           4130      2.21882e+7 
           4150      2.22636e+7 
           4170      2.21827e+7 
           4190      2.20552e+7 
           4210      2.19056e+7 
           4230      2.17495e+7 
           4250      2.16287e+7 
           4270      2.14865e+7 
           4290      2.12907e+7 
           4310      2.09861e+7 
           4330      1.87763e+7 
           4350      1.66997e+7 
           4370      2.05755e+7 
           4390      2.05976e+7 
           4410      2.05313e+7 
           4430      2.04251e+7 
           4450      2.02856e+7 
           4470      2.01573e+7 
           4490      2.00323e+7 
           4510      1.98995e+7 
           4530      1.97682e+7 
           4550      1.96276e+7 
           4570      1.95139e+7 
           4590      1.93943e+7 
           4610       1.9276e+7 
           4630      1.91485e+7 
           4650      1.90277e+7 
           4670      1.89048e+7 
           4690      1.87833e+7 
           4710      1.86581e+7 
           4730       1.8541e+7 
           4750       1.8422e+7 
           4770      1.83009e+7 
           4790      1.81763e+7 
           4810      1.80108e+7 
           4830      1.77796e+7 
           4850        1.628e+7 
           4870      1.40704e+7 
           4890      1.73507e+7 
           4910      1.74269e+7 
           4930      1.73602e+7 
           4950      1.72663e+7 
           4970      1.71566e+7 
           4990       1.7045e+7 
           5010      1.69317e+7 
           5030      1.68271e+7 
           5050      1.67192e+7 
           5070      1.66125e+7 
           5090      1.65055e+7 
           5110      1.63996e+7 
           5130      1.62935e+7 
           5150      1.61885e+7 
           5170      1.60508e+7 
           5190      1.59651e+7 
           5210      1.58774e+7 
           5230      1.57728e+7 
           5250      1.56774e+7 
           5270      1.55709e+7 
           5290      1.54776e+7 
           5310      1.53786e+7 
           5330       1.5278e+7 
           5350       1.5185e+7 
           5370      1.50865e+7 
           5390      1.49916e+7 
           5410      1.48951e+7 
           5430      1.48009e+7 
           5450      1.47077e+7 
           5470      1.46155e+7 
           5490      1.45242e+7 
           5510      1.44313e+7 
           5530      1.43394e+7 
           5550      1.42497e+7 
           5570      1.41597e+7 
           5590      1.40694e+7 
           5610      1.39813e+7 
           5630       1.3894e+7 
           5650      1.38064e+7 
           5670      1.37197e+7 
           5690      1.36339e+7 
           5710       1.3549e+7 
           5730      1.34638e+7 
           5750      1.33794e+7 
           5770      1.32958e+7 
           5790      1.32131e+7 
           5810      1.31301e+7 
           5830       1.3048e+7 
           5850      1.29666e+7 
           5870       1.2886e+7 
           5890      1.28019e+7 
           5910      1.27273e+7 
           5930       1.2648e+7 
           5950      1.25706e+7 
           5970      1.24918e+7 
           5990      1.24148e+7 
           6010      1.23386e+7 
           6030      1.22621e+7 
           6050      1.21873e+7 
           6070      1.21122e+7 
           6090      1.20379e+7 
           6110      1.19632e+7 
           6130      1.18903e+7 
           6150      1.18171e+7 
           6170      1.17446e+7 
           6190      1.16727e+7 
           6210      1.16016e+7 
           6230      1.15311e+7 
           6250      1.14603e+7 
           6270      1.13911e+7 
           6290      1.13217e+7 
           6310      1.12528e+7 
           6330      1.11847e+7 
           6350      1.11162e+7 
           6370      1.10493e+7 
           6390       1.0983e+7 
           6410      1.09164e+7 
           6430      1.08504e+7 
           6450      1.07841e+7 
           6470      1.07194e+7 
           6490      1.06525e+7 
           6510      1.05605e+7 
           6530       1.0442e+7 
           6550      9.89538e+6 
           6570      8.35256e+6 
           6590      1.01721e+7 
           6610       1.0233e+7 
           6630      1.02048e+7 
           6650      1.01546e+7 
           6670      1.00938e+7 
           6690      1.00335e+7 
           6710       9.9738e+6 
           6730      9.91461e+6 
           6750      9.85594e+6 
           6770      9.79698e+6 
           6790      9.73935e+6 
           6810      9.68141e+6 
           6830      9.62399e+6 
           6850      9.56707e+6 
           6870      9.51065e+6 
           6890      9.45472e+6 
           6910      9.39928e+6 
           6930      9.34354e+6 
           6950      9.28906e+6 
           6970      9.23428e+6 
           6990      9.17997e+6 
           7010      9.12613e+6 
           7030      9.07275e+6 
           7050      9.01983e+6 
           7070      8.96661e+6 
           7090      8.91459e+6 
           7110      8.86228e+6 
           7130      8.81114e+6 
           7150      8.75971e+6 
           7170      8.70871e+6 
           7190      8.65814e+6 
           7210      8.60728e+6 
           7230      8.55756e+6 
           7250      8.50826e+6 
           7270      8.45866e+6 
           7290      8.40948e+6 
           7310      8.36141e+6 
           7330      8.31304e+6 
           7350      8.26507e+6 
           7370       8.2175e+6 
           7390      8.16963e+6 
           7410      8.12284e+6 
           7430      8.07644e+6 
           7450      8.02974e+6 
           7470      7.98343e+6 
           7490      7.93816e+6 
           7510       7.8926e+6 
           7530      7.84741e+6 
           7550      7.80258e+6 
           7570      7.75812e+6 
           7590      7.71402e+6 
           7610      7.67027e+6 
           7630      7.62623e+6 
           7650      7.58319e+6 
           7670      7.53985e+6 
           7690       7.4975e+6 
           7710      7.45485e+6 
           7730      7.41254e+6 
           7750      7.37057e+6 
           7770      7.32831e+6 
           7790      7.28762e+6 
           7810      7.24664e+6 
           7830      7.20598e+6 
           7850      7.16564e+6 
           7870      7.12501e+6 
           7890       7.0853e+6 
           7910       7.0453e+6 
           7930      7.00561e+6 
           7950      6.96683e+6 
           7970      6.92776e+6 
           7990      6.88899e+6 
           8010      6.85052e+6 
           8030      6.81235e+6 
           8050      6.77447e+6 
           8070      6.73689e+6 
           8090      6.69901e+6 
           8110        6.662e+6 
           8130      6.62528e+6 
           8150      6.58826e+6 
           8170       6.5521e+6 
           8190      6.51564e+6 
           8210      6.48505e+6 
           8230      6.45135e+6 
           8250      6.41734e+6 
           8270      6.38248e+6 
           8290      6.34624e+6 
           8310      6.30318e+6 
           8330      6.25992e+6 
           8350      6.23267e+6 
           8370      6.14807e+6 
           8390      6.13324e+6 
           8410      6.08333e+6 
           8430      6.12819e+6 
           8450      6.08919e+6 
           8470      5.92131e+6 
           8490      6.17254e+6 
           8510      5.81792e+6 
           8530      6.17329e+6 
           8550      5.69764e+6 
           8570      6.17992e+6 
