# Kurucz ODFNEW /NOVER (2003)
# teff = 6000 K (value for the effective temperature for the model. Temperatures are given in K)
# logg = 2 log(cm/s2) (value for Log(G) for the model.)
# meta = -4  (value for the Metallicity for the model.)
# lh = 1.25  (l/Hp where l is the  mixing length of the convective element and Hp is the pressure scale height)
# vtur = 2 km/s (Microturbulence velocity)
# alpha = 0.4  (Alpha)
#
# column 1: WAVELENGTH (ANGSTROM), Wavelength in Angstrom
# column 2: FLUX (ERG/CM2/S/A), Flux in erg/cm2/s/A
          147.2     1.73866e-35 
            151     1.65225e-35 
          155.2     1.56403e-35 
          158.8     1.49392e-35 
            162     1.43549e-35 
            166     1.36714e-35 
          170.3     1.29897e-35 
          173.4     1.25294e-35 
          176.8     1.20522e-35 
          180.2     1.16017e-35 
          181.7     1.14109e-35 
          186.1     1.08777e-35 
            191     1.03267e-35 
          193.9     1.00201e-35 
          198.4     9.57076e-36 
          201.8     9.25097e-36 
            205     8.96441e-36 
          210.5     8.50208e-36 
          216.2     8.05969e-36 
          219.8     7.79784e-36 
            223     7.57565e-36 
          226.8     7.32392e-36 
            230     7.12154e-36 
            234     6.88015e-36 
            240     6.54044e-36 
          246.5     6.20006e-36 
          252.4     5.91358e-36 
          256.8     5.71267e-36 
            260     5.57292e-36 
            264     5.40532e-36 
          268.5     5.22566e-36 
          273.5     5.03634e-36 
          278.5     4.85712e-36 
            284     4.67082e-36 
            290     4.47954e-36 
            296     4.29978e-36 
            301     4.15812e-36 
            308     3.97126e-36 
            318     3.72542e-36 
            328     3.50172e-36 
            338     3.18003e-30 
            348     3.82472e-29 
            357     3.16284e-28 
            366     2.34915e-27 
            375     1.57531e-26 
            385     1.16957e-25 
            395     7.79705e-25 
            405     4.70932e-24 
            414     2.19765e-23 
            422     8.14811e-23 
            430     2.86897e-22 
            441     1.49653e-21 
            451     6.23323e-21 
            460     2.12774e-20 
            470     7.85282e-20 
            480     2.73325e-19 
            490     9.01405e-19 
            500       2.822e-18 
            506     7.26088e-18 
            512     1.55783e-17 
            520      3.5799e-17 
            530     9.81991e-17 
            540     2.54602e-16 
            550     6.43715e-16 
            560     1.56086e-15 
            570     3.65899e-15 
            580     8.21391e-15 
            590     1.82943e-14 
            600     3.91474e-14 
            610     8.15086e-14 
            620     1.65363e-13 
            630     3.27277e-13 
            640     6.33054e-13 
            650     1.19751e-12 
            658     1.96351e-12 
            665     2.99399e-12 
            675     5.37885e-12 
            685     9.48116e-12 
            695      1.6413e-11 
            705     2.79221e-11 
            716     4.91444e-11 
            726       8.081e-11 
            735     1.24834e-10 
            745     1.99644e-10 
            755     3.14846e-10 
            765     4.89908e-10 
            775     7.52549e-10 
            785      1.14182e-9 
            795      1.71191e-9 
            805      2.53759e-9 
            815       3.7203e-9 
            825      5.39767e-9 
            835      7.75369e-9 
            845      1.10287e-8 
            855      1.55402e-8 
            865      2.16987e-8 
            875      3.00331e-8 
            885      4.12225e-8 
            895       5.6122e-8 
            905      7.58036e-8 
            915      0.00357059 
            925       0.0176273 
            935       0.0243376 
            945       0.0386881 
            955       0.0593787 
            965        0.060068 
            975       0.0450748 
            985        0.147962 
            995        0.183562 
           1005        0.192869 
           1015        0.142669 
           1025        0.245528 
           1035         0.28987 
           1045         0.58647 
           1055        0.833389 
           1065         1.16361 
           1075         1.45949 
           1085         1.82988 
           1095         2.12457 
           1105          1.9808 
           1115         1.76876 
           1125         1.61687 
           1135         1.47668 
           1145         1.40853 
           1155          1.3699 
           1165         1.36444 
           1175         1.37763 
           1185         8.94052 
           1195         4.71959 
           1205         4.53884 
           1215         4.38609 
           1225         6.24181 
           1235         9.04091 
           1245         3.36402 
           1255          4.4384 
           1265         5.55127 
           1275         6.92568 
           1285         8.83448 
           1295         11.2999 
           1305         14.0611 
           1315         18.4271 
           1325         23.0571 
           1335         29.5511 
           1345         38.2847 
           1355         48.3176 
           1365         61.0479 
           1375         76.4787 
           1385          95.548 
           1395         119.319 
           1405         148.682 
           1415         184.998 
           1425         231.645 
           1435         290.557 
           1442         347.567 
           1447         398.517 
           1455         499.512 
           1465         566.755 
           1475         638.853 
           1485         722.751 
           1495         818.648 
           1505         916.864 
           1512         996.045 
           1517         1070.13 
           1525         1163.34 
           1535         1299.54 
           1545          1469.7 
           1555         1635.44 
           1565         1787.19 
           1575         2024.41 
           1585         2239.18 
           1595         2479.07 
           1605         2722.19 
           1615         2969.95 
           1625         3226.69 
           1635         3524.58 
           1645         3873.07 
           1655         4182.36 
           1665         5030.26 
           1672         5905.53 
           1677         7651.32 
           1685         12794.3 
           1695           27151 
           1705           53168 
           1715           93422 
           1725          140443 
           1735          194808 
           1745          230601 
           1755          276233 
           1765          290780 
           1775          333632 
           1785          366475 
           1795          412119 
           1805          422690 
           1815          456596 
           1825          467645 
           1835          515034 
           1845          511624 
           1855          562911 
           1865          607959 
           1875          634668 
           1885          671899 
           1895          709927 
           1905          716539 
           1915          779146 
           1925          831664 
           1935          841644 
           1945          904224 
           1955          937214 
           1967          996572 
           1976       1.0015e+6 
           1984      1.02732e+6 
           1995      1.08617e+6 
           2005      1.10329e+6 
           2015      1.14256e+6 
           2025      1.14701e+6 
           2035       1.2452e+6 
           2045      1.29188e+6 
           2055      1.30476e+6 
           2065      1.34614e+6 
           2074      1.43309e+6 
           2078      1.44442e+6 
           2085      1.45632e+6 
           2095      1.48948e+6 
           2105      1.52366e+6 
           2115      1.58432e+6 
           2125       1.6165e+6 
           2135      1.62586e+6 
           2145      1.70358e+6 
           2155      1.73478e+6 
           2165      1.73953e+6 
           2175      1.80177e+6 
           2185       1.8643e+6 
           2195       1.9408e+6 
           2205      1.94911e+6 
           2215      1.92303e+6 
           2225      2.01696e+6 
           2235      2.12958e+6 
           2245      2.13479e+6 
           2255      2.10656e+6 
           2265      2.10041e+6 
           2275      2.22931e+6 
           2285      2.28156e+6 
           2295       2.2761e+6 
           2305      2.35971e+6 
           2315      2.39068e+6 
           2325      2.42835e+6 
           2335      2.45299e+6 
           2345      2.38663e+6 
           2355      2.57243e+6 
           2365      2.49697e+6 
           2375      2.61684e+6 
           2385      2.46739e+6 
           2395      2.66763e+6 
           2405      2.70216e+6 
           2415      2.74707e+6 
           2425      2.90807e+6 
           2435      2.88512e+6 
           2445      2.95906e+6 
           2455      2.99251e+6 
           2465      2.97913e+6 
           2475      2.99477e+6 
           2485      3.02074e+6 
           2495      3.04069e+6 
           2505      3.19441e+6 
           2513      3.08158e+6 
           2518      3.08902e+6 
           2525      3.05283e+6 
           2535      3.10008e+6 
           2545      3.19471e+6 
           2555      3.36447e+6 
           2565      3.38197e+6 
           2575      3.47502e+6 
           2585      3.52767e+6 
           2595      3.53282e+6 
           2605      3.51596e+6 
           2615      3.54052e+6 
           2625      3.59971e+6 
           2635      3.66793e+6 
           2645      3.87977e+6 
           2655       3.9049e+6 
           2665      3.84213e+6 
           2675      3.91527e+6 
           2685      4.01085e+6 
           2695      3.99893e+6 
           2705      4.06179e+6 
           2715      3.98153e+6 
           2725      4.02232e+6 
           2735        4.082e+6 
           2745      3.92287e+6 
           2755      4.00166e+6 
           2765      4.14819e+6 
           2775      4.27871e+6 
           2785      4.27364e+6 
           2795      3.71959e+6 
           2805      4.00578e+6 
           2815      4.48882e+6 
           2825      4.51568e+6 
           2835      4.47718e+6 
           2845      4.51325e+6 
           2855      4.40852e+6 
           2865      4.50897e+6 
           2875      4.58422e+6 
           2885      4.62718e+6 
           2895      4.72562e+6 
           2910      4.79759e+6 
           2930      4.79595e+6 
           2950      4.81253e+6 
           2970      4.89485e+6 
           2990      4.95684e+6 
           3010      5.02176e+6 
           3030      5.08248e+6 
           3050      5.15009e+6 
           3070      5.16754e+6 
           3090      5.26421e+6 
           3110       5.3128e+6 
           3130      5.37471e+6 
           3150      5.41944e+6 
           3170      5.47011e+6 
           3190      5.46504e+6 
           3210      5.54157e+6 
           3230      5.51035e+6 
           3250      5.61108e+6 
           3270      5.71987e+6 
           3290      5.78732e+6 
           3310      5.83004e+6 
           3330      5.80778e+6 
           3350      5.80712e+6 
           3370       5.8691e+6 
           3390      5.89839e+6 
           3410      6.00598e+6 
           3430      6.04309e+6 
           3450      6.03495e+6 
           3470      6.07415e+6 
           3490      6.13031e+6 
           3510      6.18051e+6 
           3530      6.22163e+6 
           3550      6.26532e+6 
           3570      6.23907e+6 
           3590      6.27585e+6 
           3610      6.30971e+6 
           3630      6.35216e+6 
           3640      6.37218e+6 
           3650       6.4097e+6 
           3670      6.38059e+6 
           3690      6.49616e+6 
           3710      7.66345e+6 
           3730      8.53787e+6 
           3750      1.01257e+7 
           3770      1.03419e+7 
           3790      1.10503e+7 
           3810      1.18891e+7 
           3830      1.05803e+7 
           3850      1.22943e+7 
           3870      1.25841e+7 
           3890       1.0429e+7 
           3910      1.25775e+7 
           3930      1.23728e+7 
           3950      1.26269e+7 
           3970      1.02624e+7 
           3990      1.25264e+7 
           4010      1.26728e+7 
           4030      1.26671e+7 
           4050        1.263e+7 
           4070      1.24878e+7 
           4090      1.19831e+7 
           4110      1.06209e+7 
           4130      1.24354e+7 
           4150      1.24661e+7 
           4170      1.24456e+7 
           4190      1.24065e+7 
           4210      1.23571e+7 
           4230      1.23037e+7 
           4250      1.22852e+7 
           4270      1.22423e+7 
           4290      1.22029e+7 
           4310      1.20899e+7 
           4330      1.14054e+7 
           4350      1.04724e+7 
           4370      1.20005e+7 
           4390      1.19952e+7 
           4410      1.19699e+7 
           4430      1.19523e+7 
           4450      1.19039e+7 
           4470      1.18657e+7 
           4490      1.18299e+7 
           4510      1.17858e+7 
           4530      1.17394e+7 
           4550      1.16907e+7 
           4570      1.16578e+7 
           4590      1.16185e+7 
           4610      1.15794e+7 
           4630      1.15355e+7 
           4650      1.14934e+7 
           4670      1.14508e+7 
           4690      1.14082e+7 
           4710      1.13633e+7 
           4730       1.1321e+7 
           4750      1.12781e+7 
           4770      1.12342e+7 
           4790      1.11902e+7 
           4810       1.1138e+7 
           4830      1.10508e+7 
           4850      1.05524e+7 
           4870      9.50445e+6 
           4890       1.0893e+7 
           4910      1.09126e+7 
           4930      1.08735e+7 
           4950      1.08379e+7 
           4970      1.07966e+7 
           4990      1.07511e+7 
           5010      1.07028e+7 
           5030      1.06634e+7 
           5050      1.06181e+7 
           5070      1.05751e+7 
           5090      1.05307e+7 
           5110      1.04864e+7 
           5130      1.04417e+7 
           5150      1.03967e+7 
           5170      1.03163e+7 
           5190      1.02902e+7 
           5210      1.02616e+7 
           5230      1.02159e+7 
           5250      1.01788e+7 
           5270      1.01272e+7 
           5290      1.00908e+7 
           5310      1.00467e+7 
           5330      9.99903e+6 
           5350      9.96008e+6 
           5370      9.91542e+6 
           5390      9.87219e+6 
           5410      9.82829e+6 
           5430      9.78465e+6 
           5450      9.74125e+6 
           5470      9.70011e+6 
           5490      9.65769e+6 
           5510      9.61451e+6 
           5530      9.57133e+6 
           5550       9.5295e+6 
           5570      9.48633e+6 
           5590      9.44304e+6 
           5610      9.40121e+6 
           5630      9.35961e+6 
           5650      9.31742e+6 
           5670      9.27536e+6 
           5690      9.23354e+6 
           5710       9.1915e+6 
           5730      9.14983e+6 
           5750      9.10805e+6 
           5770       9.0664e+6 
           5790        9.025e+6 
           5810      8.98362e+6 
           5830      8.94238e+6 
           5850      8.90104e+6 
           5870      8.86017e+6 
           5890      8.81281e+6 
           5910      8.77872e+6 
           5930      8.73813e+6 
           5950      8.69768e+6 
           5970      8.65737e+6 
           5990      8.61719e+6 
           6010      8.57725e+6 
           6030      8.53733e+6 
           6050      8.49776e+6 
           6070      8.45821e+6 
           6090      8.41879e+6 
           6110      8.37951e+6 
           6130      8.33966e+6 
           6150      8.30095e+6 
           6170      8.26167e+6 
           6190       8.2239e+6 
           6210      8.18547e+6 
           6230      8.14707e+6 
           6250      8.10871e+6 
           6270      8.07077e+6 
           6290      8.03286e+6 
           6310      7.99498e+6 
           6330      7.95723e+6 
           6350       7.9197e+6 
           6370       7.8824e+6 
           6390      7.84513e+6 
           6410      7.80798e+6 
           6430      7.77106e+6 
           6450      7.73363e+6 
           6470      7.69723e+6 
           6490      7.66006e+6 
           6510      7.62186e+6 
           6530      7.55802e+6 
           6550      7.33921e+6 
           6570      6.48737e+6 
           6590      7.42128e+6 
           6610      7.43403e+6 
           6630      7.40991e+6 
           6650       7.3746e+6 
           6670       7.3395e+6 
           6690      7.30452e+6 
           6710      7.26966e+6 
           6730      7.23509e+6 
           6750      7.20054e+6 
           6770       7.1662e+6 
           6790      7.13197e+6 
           6810      7.09794e+6 
           6830      7.06402e+6 
           6850       7.0303e+6 
           6870      6.99669e+6 
           6890      6.96327e+6 
           6910      6.93005e+6 
           6930      6.89693e+6 
           6950      6.86392e+6 
           6970      6.83118e+6 
           6990      6.79846e+6 
           7010      6.76601e+6 
           7030      6.73367e+6 
           7050      6.70143e+6 
           7070      6.66937e+6 
           7090      6.63742e+6 
           7110      6.60572e+6 
           7130      6.57412e+6 
           7150      6.54255e+6 
           7170      6.51138e+6 
           7190      6.48016e+6 
           7210      6.44919e+6 
           7230      6.41831e+6 
           7250      6.38761e+6 
           7270      6.35693e+6 
           7290      6.32643e+6 
           7310      6.29616e+6 
           7330      6.26591e+6 
           7350       6.2359e+6 
           7370      6.20606e+6 
           7390       6.1763e+6 
           7410      6.14664e+6 
           7430      6.11715e+6 
           7450      6.08788e+6 
           7470       6.0587e+6 
           7490      6.02967e+6 
           7510      6.00081e+6 
           7530       5.9721e+6 
           7550      5.94354e+6 
           7570      5.91507e+6 
           7590      5.88681e+6 
           7610      5.85864e+6 
           7630      5.83062e+6 
           7650      5.80275e+6 
           7670      5.77496e+6 
           7690      5.74738e+6 
           7710      5.71988e+6 
           7730      5.69259e+6 
           7750      5.66545e+6 
           7770      5.63806e+6 
           7790      5.61151e+6 
           7810      5.58478e+6 
           7830      5.55813e+6 
           7850      5.53162e+6 
           7870      5.50531e+6 
           7890      5.47906e+6 
           7910      5.45302e+6 
           7930      5.42699e+6 
           7950      5.40114e+6 
           7970      5.37555e+6 
           7990      5.34997e+6 
           8010      5.32452e+6 
           8030      5.29926e+6 
           8050      5.27407e+6 
           8070        5.249e+6 
           8090      5.22406e+6 
           8110       5.1993e+6 
           8130      5.17466e+6 
           8150      5.15009e+6 
           8170      5.12569e+6 
           8190      5.10131e+6 
           8210      5.07855e+6 
           8230      5.05496e+6 
           8250       5.0318e+6 
           8270      5.00871e+6 
           8290      4.98473e+6 
           8310      4.95946e+6 
           8330      4.93377e+6 
           8350      4.91206e+6 
           8370      4.87705e+6 
           8390      4.85645e+6 
           8410      4.82789e+6 
           8430      4.82261e+6 
           8450      4.79664e+6 
           8470      4.73153e+6 
           8490      4.78955e+6 
           8510      4.64258e+6 
           8530      4.76089e+6 
           8550      4.55781e+6 
           8570      4.73348e+6 
           8590       4.6505e+6 
