# Kurucz ODFNEW /NOVER (2003)
# teff = 8000 K (value for the effective temperature for the model. Temperatures are given in K)
# logg = 5 log(cm/s2) (value for Log(G) for the model.)
# meta = -1.5  (value for the Metallicity for the model.)
# lh = 1.25  (l/Hp where l is the  mixing length of the convective element and Hp is the pressure scale height)
# vtur = 2 km/s (Microturbulence velocity)
# alpha = 0  (Alpha)
#
# column 1: WAVELENGTH (ANGSTROM), Wavelength in Angstrom
# column 2: FLUX (ERG/CM2/S/A), Flux in erg/cm2/s/A
            308     3.05481e-23 
            318     4.59233e-22 
            328     5.09851e-21 
            338     4.85767e-20 
            348     4.04683e-19 
            357     2.45522e-18 
            366     1.35903e-17 
            375     6.90905e-17 
            385      3.8363e-16 
            395     1.94668e-15 
            405     9.08836e-15 
            414     3.40405e-14 
            422     5.99077e-15 
            430     1.65056e-14 
            441     6.23456e-14 
            451      1.9631e-13 
            460     5.26406e-13 
            470      1.5019e-12 
            480       4.085e-12 
            490     1.06338e-11 
            500     2.65278e-11 
            506     5.95973e-11 
            512     1.12753e-10 
            520     2.19225e-10 
            530     4.91787e-10 
            540       1.0494e-9 
            550      2.20072e-9 
            560      4.45456e-9 
            570       8.7718e-9 
            580      1.66348e-8 
            590      3.15031e-8 
            600      5.76051e-8 
            610      1.03036e-7 
            620      1.80426e-7 
            630      3.09689e-7 
            640       5.2182e-7 
            650      8.63517e-7 
            658      1.27594e-6 
            665      1.77995e-6 
            675      2.82498e-6 
            685      4.41485e-6 
            695      6.79981e-6 
            705      1.03251e-5 
            716         1.61e-5 
            726       2.3787e-5 
            735      3.34543e-5 
            745      4.83332e-5 
            755      6.90442e-5 
            765      9.75644e-5 
            775     0.000136454 
            785     0.000188944 
            795     0.000258973 
            805     0.000352077 
            815     0.000474269 
            825     0.000633487 
            835     0.000839344 
            845       0.0011034 
            855      0.00143951 
            865      0.00186435 
            875      0.00239729 
            885       0.0030627 
            895      0.00388687 
            905      0.00490055 
            915         2.14813 
            925         16.7956 
            935          30.437 
            945          54.175 
            955         76.9011 
            965         103.509 
            975         88.6397 
            985         160.512 
            995         190.308 
           1005          237.27 
           1015         260.837 
           1025         193.531 
           1035          367.19 
           1045         478.732 
           1055         558.718 
           1065         657.884 
           1075         786.596 
           1085         933.739 
           1095          1065.5 
           1105         1567.02 
           1115         2367.75 
           1125         2720.46 
           1135         3393.48 
           1145         3841.65 
           1155          4021.1 
           1165         4604.39 
           1175         4878.62 
           1185         5250.83 
           1195         3817.35 
           1205         2726.31 
           1215         783.483 
           1225            3054 
           1235         6370.85 
           1245         8689.43 
           1255         11645.4 
           1265         13875.8 
           1275         16903.2 
           1285         22698.8 
           1295         27188.4 
           1305         32551.3 
           1315         38513.3 
           1325         45498.3 
           1335         52743.9 
           1345         63672.4 
           1355         72993.4 
           1365         85620.3 
           1375           92324 
           1385         94414.8 
           1395          106180 
           1405          122705 
           1415          159204 
           1425          170764 
           1435          179877 
           1442          223552 
           1447          201319 
           1455          224416 
           1465          218800 
           1475          235929 
           1485          259908 
           1495          285401 
           1505          312208 
           1512          323842 
           1517          306781 
           1525          313857 
           1535          333204 
           1545          322024 
           1555          313284 
           1565          285728 
           1575          314232 
           1585          328094 
           1595          345584 
           1605          359396 
           1615          422022 
           1625          577986 
           1635      1.14863e+6 
           1645      3.13952e+6 
           1655      3.93754e+6 
           1665      9.40443e+6 
           1672      9.35765e+6 
           1677      1.26794e+7 
           1685      1.58747e+7 
           1695      1.56119e+7 
           1705      1.80639e+7 
           1715      2.10445e+7 
           1725      2.15748e+7 
           1735      2.40363e+7 
           1745      2.35636e+7 
           1755      2.57642e+7 
           1765       2.2122e+7 
           1775      2.55133e+7 
           1785      2.61221e+7 
           1795      2.82171e+7 
           1805      2.67293e+7 
           1815       2.7068e+7 
           1825      2.58243e+7 
           1835      2.70741e+7 
           1845      2.47318e+7 
           1855      2.63063e+7 
           1865      2.77471e+7 
           1875      2.78516e+7 
           1885      2.81029e+7 
           1895       2.8874e+7 
           1905         2.79e+7 
           1915      2.94831e+7 
           1925      3.02634e+7 
           1935      2.81997e+7 
           1945      3.10165e+7 
           1955      3.10046e+7 
           1967      3.21766e+7 
           1976      3.11248e+7 
           1984      3.09633e+7 
           1995      3.09219e+7 
           2005      2.97933e+7 
           2015      3.03751e+7 
           2025      2.85618e+7 
           2035      3.12757e+7 
           2045      3.23911e+7 
           2055      3.16199e+7 
           2065      3.14081e+7 
           2074      3.32801e+7 
           2078      3.33231e+7 
           2085      3.30486e+7 
           2095      3.22823e+7 
           2105      3.17663e+7 
           2115      3.23931e+7 
           2125      3.27446e+7 
           2135      3.01526e+7 
           2145      3.26093e+7 
           2155      3.21354e+7 
           2165       3.0792e+7 
           2175      3.07699e+7 
           2185      3.18532e+7 
           2195      3.34152e+7 
           2205      3.24007e+7 
           2215      3.05693e+7 
           2225      3.15089e+7 
           2235      3.40678e+7 
           2245      3.20734e+7 
           2255      3.08502e+7 
           2265      3.00151e+7 
           2275      3.19093e+7 
           2285      3.25758e+7 
           2295      3.09229e+7 
           2305       3.1718e+7 
           2315      3.18544e+7 
           2325      3.17043e+7 
           2335      3.15377e+7 
           2345      2.87023e+7 
           2355      3.22895e+7 
           2365      2.96818e+7 
           2375      3.11836e+7 
           2385       2.7843e+7 
           2395      3.02722e+7 
           2405       2.9709e+7 
           2415      2.98071e+7 
           2425       3.1517e+7 
           2435      3.04098e+7 
           2445      3.14434e+7 
           2455      3.10633e+7 
           2465      3.08912e+7 
           2475      2.96882e+7 
           2485       3.0144e+7 
           2495      2.94507e+7 
           2505      3.21122e+7 
           2513      2.99866e+7 
           2518      2.95094e+7 
           2525      2.81707e+7 
           2535      2.79958e+7 
           2545      2.75779e+7 
           2555      2.97048e+7 
           2565       2.9863e+7 
           2575      3.15894e+7 
           2585      3.19527e+7 
           2595      3.18899e+7 
           2605      3.08772e+7 
           2615      3.02894e+7 
           2625      3.16353e+7 
           2635      3.17879e+7 
           2645       3.4381e+7 
           2655      3.43358e+7 
           2665      3.26225e+7 
           2675      3.34099e+7 
           2685      3.41403e+7 
           2695      3.25398e+7 
           2705      3.27059e+7 
           2715      3.13553e+7 
           2725      3.14351e+7 
           2735       3.2566e+7 
           2745      2.94988e+7 
           2755      3.02415e+7 
           2765      3.16153e+7 
           2775      3.25708e+7 
           2785      3.19098e+7 
           2795      2.52025e+7 
           2805       2.7953e+7 
           2815      3.36727e+7 
           2825      3.33257e+7 
           2835      3.26373e+7 
           2845       3.1879e+7 
           2855        3.019e+7 
           2865      3.21115e+7 
           2875      3.17637e+7 
           2885      3.24129e+7 
           2895      3.23377e+7 
           2910      3.35885e+7 
           2930      3.26273e+7 
           2950      3.22821e+7 
           2970      3.24001e+7 
           2990      3.23647e+7 
           3010      3.23572e+7 
           3030      3.23635e+7 
           3050      3.23244e+7 
           3070        3.228e+7 
           3090      3.21929e+7 
           3110      3.19827e+7 
           3130      3.19529e+7 
           3150      3.21237e+7 
           3170      3.19543e+7 
           3190      3.10081e+7 
           3210      3.12148e+7 
           3230      3.06572e+7 
           3250      3.10668e+7 
           3270      3.13932e+7 
           3290      3.14189e+7 
           3310      3.13856e+7 
           3330      3.09275e+7 
           3350      3.05194e+7 
           3370      3.04342e+7 
           3390      3.01873e+7 
           3410      3.03364e+7 
           3430      3.02484e+7 
           3450       2.9981e+7 
           3470      2.98351e+7 
           3490      2.98189e+7 
           3510      2.98816e+7 
           3530      2.96996e+7 
           3550      2.97396e+7 
           3570      2.91942e+7 
           3590      2.90449e+7 
           3610      2.89512e+7 
           3630      2.89847e+7 
           3640      2.89394e+7 
           3650       2.9126e+7 
           3670      2.92038e+7 
           3690      2.83486e+7 
           3710      2.79534e+7 
           3730      2.65454e+7 
           3750      3.02455e+7 
           3770      3.10679e+7 
           3790      3.60177e+7 
           3810      4.09764e+7 
           3830      3.34665e+7 
           3850      4.47195e+7 
           3870      4.92516e+7 
           3890      3.08586e+7 
           3910      4.95304e+7 
           3930      5.09082e+7 
           3950      4.97034e+7 
           3970      2.99598e+7 
           3990      4.81345e+7 
           4010      5.38054e+7 
           4030      5.44418e+7 
           4050      5.36941e+7 
           4070      5.09071e+7 
           4090      4.09653e+7 
           4110      3.25254e+7 
           4130      4.90014e+7 
           4150      5.15445e+7 
           4170      5.21128e+7 
           4190      5.16702e+7 
           4210      5.12718e+7 
           4230      5.05165e+7 
           4250      5.03238e+7 
           4270      4.95146e+7 
           4290      4.87142e+7 
           4310      4.57849e+7 
           4330      3.57763e+7 
           4350      3.11139e+7 
           4370      4.46546e+7 
           4390       4.6524e+7 
           4410      4.68256e+7 
           4430       4.6947e+7 
           4450      4.66876e+7 
           4470      4.63782e+7 
           4490      4.59847e+7 
           4510      4.58241e+7 
           4530      4.53212e+7 
           4550      4.48618e+7 
           4570      4.47442e+7 
           4590      4.42925e+7 
           4610      4.40491e+7 
           4630      4.36025e+7 
           4650       4.3298e+7 
           4670      4.29538e+7 
           4690      4.24375e+7 
           4710      4.17094e+7 
           4730      4.17548e+7 
           4750      4.13522e+7 
           4770      4.08819e+7 
           4790      4.02818e+7 
           4810      3.93581e+7 
           4830       3.7313e+7 
           4850      3.00967e+7 
           4870       2.5045e+7 
           4890      3.54466e+7 
           4910      3.74868e+7 
           4930       3.7656e+7 
           4950      3.77783e+7 
           4970      3.77234e+7 
           4990      3.73959e+7 
           5010      3.69704e+7 
           5030      3.69167e+7 
           5050      3.65983e+7 
           5070      3.63628e+7 
           5090      3.60515e+7 
           5110      3.57799e+7 
           5130      3.54528e+7 
           5150      3.51169e+7 
           5170      3.43933e+7 
           5190      3.42504e+7 
           5210      3.42072e+7 
           5230       3.3869e+7 
           5250      3.37905e+7 
           5270      3.32619e+7 
           5290      3.32222e+7 
           5310      3.29377e+7 
           5330      3.25437e+7 
           5350      3.24246e+7 
           5370      3.20921e+7 
           5390      3.18582e+7 
           5410      3.15253e+7 
           5430      3.13369e+7 
           5450      3.10896e+7 
           5470      3.08665e+7 
           5490      3.06482e+7 
           5510      3.04112e+7 
           5530      3.01412e+7 
           5550      2.99366e+7 
           5570        2.966e+7 
           5590      2.93999e+7 
           5610      2.91919e+7 
           5630       2.8992e+7 
           5650      2.87623e+7 
           5670      2.85187e+7 
           5690      2.83035e+7 
           5710      2.80755e+7 
           5730      2.78741e+7 
           5750      2.76452e+7 
           5770      2.74324e+7 
           5790      2.72151e+7 
           5810      2.70047e+7 
           5830      2.67931e+7 
           5850      2.65761e+7 
           5870       2.6368e+7 
           5890      2.59796e+7 
           5910      2.59594e+7 
           5930      2.57578e+7 
           5950      2.55594e+7 
           5970      2.53609e+7 
           5990      2.51614e+7 
           6010      2.49629e+7 
           6030      2.47676e+7 
           6050      2.45845e+7 
           6070      2.43972e+7 
           6090      2.42078e+7 
           6110      2.40173e+7 
           6130      2.38077e+7 
           6150      2.36302e+7 
           6170      2.34347e+7 
           6190      2.32933e+7 
           6210      2.31172e+7 
           6230      2.29301e+7 
           6250      2.27364e+7 
           6270      2.25935e+7 
           6290      2.24224e+7 
           6310      2.22436e+7 
           6330      2.20788e+7 
           6350      2.19035e+7 
           6370      2.17374e+7 
           6390       2.1561e+7 
           6410      2.13579e+7 
           6430       2.1186e+7 
           6450      2.09706e+7 
           6470      2.07746e+7 
           6490      2.04991e+7 
           6510      2.01245e+7 
           6530      1.93352e+7 
           6550      1.68904e+7 
           6570      1.38875e+7 
           6590      1.82648e+7 
           6610       1.9202e+7 
           6630      1.94086e+7 
           6650      1.94087e+7 
           6670      1.93323e+7 
           6690      1.92304e+7 
           6710      1.91092e+7 
           6730      1.89941e+7 
           6750      1.88735e+7 
           6770      1.87449e+7 
           6790      1.86085e+7 
           6810      1.84725e+7 
           6830      1.83362e+7 
           6850       1.8202e+7 
           6870       1.8073e+7 
           6890      1.79429e+7 
           6910      1.78123e+7 
           6930      1.76838e+7 
           6950      1.75564e+7 
           6970      1.74302e+7 
           6990      1.73059e+7 
           7010      1.71774e+7 
           7030      1.70554e+7 
           7050      1.69361e+7 
           7070      1.68147e+7 
           7090      1.66953e+7 
           7110      1.65575e+7 
           7130      1.64536e+7 
           7150      1.63374e+7 
           7170      1.62215e+7 
           7190      1.61051e+7 
           7210      1.59927e+7 
           7230       1.5882e+7 
           7250      1.57694e+7 
           7270      1.56607e+7 
           7290      1.55451e+7 
           7310      1.54397e+7 
           7330      1.53303e+7 
           7350      1.52261e+7 
           7370      1.51207e+7 
           7390      1.50113e+7 
           7410      1.49002e+7 
           7430       1.4801e+7 
           7450      1.47006e+7 
           7470      1.45957e+7 
           7490      1.44923e+7 
           7510      1.43972e+7 
           7530      1.42995e+7 
           7550      1.42027e+7 
           7570      1.41048e+7 
           7590      1.40077e+7 
           7610      1.39114e+7 
           7630      1.38159e+7 
           7650      1.37206e+7 
           7670      1.36222e+7 
           7690      1.35323e+7 
           7710      1.34394e+7 
           7730       1.3351e+7 
           7750      1.32577e+7 
           7770      1.31153e+7 
           7790      1.30816e+7 
           7810      1.29931e+7 
           7830      1.29022e+7 
           7850      1.28139e+7 
           7870      1.27276e+7 
           7890      1.26419e+7 
           7910      1.25594e+7 
           7930      1.24704e+7 
           7950      1.23869e+7 
           7970      1.23111e+7 
           7990      1.22254e+7 
           8010      1.21456e+7 
           8030      1.20648e+7 
           8050      1.19851e+7 
           8070      1.19061e+7 
           8090      1.18266e+7 
           8110      1.17494e+7 
           8130      1.16723e+7 
           8150      1.15958e+7 
           8170      1.15188e+7 
           8190       1.1425e+7 
           8210      1.13699e+7 
           8230      1.12936e+7 
           8250      1.12245e+7 
           8270      1.11642e+7 
           8290      1.10945e+7 
           8310      1.10237e+7 
           8330      1.09323e+7 
           8350       1.0887e+7 
           8370      1.08179e+7 
           8390      1.07428e+7 
           8410      1.06753e+7 
           8430      1.06045e+7 
           8450      1.05185e+7 
           8470      1.04342e+7 
           8490      1.04066e+7 
           8510      1.01881e+7 
           8530      1.02849e+7 
           8550      9.88172e+6 
           8570      1.01983e+7 
           8590      9.92623e+6 
           8610      9.80851e+6 
           8630      1.00651e+7 
           8650      9.85043e+6 
           8670      9.09486e+6 
           8690       9.8253e+6 
           8710      9.91133e+6 
           8730      9.67665e+6 
           8750      8.57701e+6 
           8770      9.37698e+6 
           8790      9.71516e+6 
           8810      9.70459e+6 
           8830      9.55197e+6 
           8850      8.89653e+6 
           8870      7.98499e+6 
           8890      9.18703e+6 
           8910      9.43293e+6 
           8930      9.46301e+6 
           8950      9.42217e+6 
           8970      9.27345e+6 
           8990      8.91387e+6 
           9010      7.59398e+6 
           9030      8.10833e+6 
           9050      8.87058e+6 
           9070      9.00461e+6 
           9090      8.99466e+6 
           9110      9.03692e+6 
           9130      9.01003e+6 
           9150      8.93423e+6 
           9170      8.81511e+6 
           9190      8.60416e+6 
           9210      8.10182e+6 
           9230      6.72686e+6 
           9250       7.8756e+6 
           9270      8.35063e+6 
           9290      8.49369e+6 
           9310      8.51939e+6 
           9330      8.50454e+6 
