# Kurucz ODFNEW /NOVER (2003)
# teff = 7250 K (value for the effective temperature for the model. Temperatures are given in K)
# logg = 0.5 log(cm/s2) (value for Log(G) for the model.)
# meta = -1.5  (value for the Metallicity for the model.)
# lh = 1.25  (l/Hp where l is the  mixing length of the convective element and Hp is the pressure scale height)
# vtur = 2 km/s (Microturbulence velocity)
# alpha = 0  (Alpha)
#
# column 1: WAVELENGTH (ANGSTROM), Wavelength in Angstrom
# column 2: FLUX (ERG/CM2/S/A), Flux in erg/cm2/s/A
            385     7.68912e-24 
            395      9.7113e-23 
            405     7.02792e-22 
            414     3.76584e-21 
            422     1.57121e-20 
            430     6.20452e-20 
            441     3.76941e-19 
            451     1.79592e-18 
            460     6.89276e-18 
            470     2.88559e-17 
            480     1.13549e-16 
            490      4.2162e-16 
            500     1.48252e-15 
            506     2.92307e-15 
            512     6.16376e-15 
            520     1.57644e-14 
            530     4.79448e-14 
            540     1.39684e-13 
            550     3.90815e-13 
            560     1.05224e-12 
            570     2.73207e-12 
            580     6.85347e-12 
            590     1.66406e-11 
            600     3.91704e-11 
            610     8.95312e-11 
            620     1.98988e-10 
            630     4.30652e-10 
            640     9.08648e-10 
            650      1.87143e-9 
            658      3.28069e-9 
            665      5.29913e-9 
            675      1.03223e-8 
            685      1.96994e-8 
            695      3.68614e-8 
            705      6.76927e-8 
            716      1.29386e-7 
            726      2.28993e-7 
            735      3.77437e-7 
            745       6.4783e-7 
            755      1.09511e-6 
            765      1.82454e-6 
            775      2.99734e-6 
            785      4.85816e-6 
            795      7.77272e-6 
            805      1.22822e-5 
            815      1.91772e-5 
            825      2.95981e-5 
            835      4.51767e-5 
            845      6.42106e-7 
            855      9.18652e-7 
            865      1.30199e-6 
            875      1.82828e-6 
            885      2.54573e-6 
            895      3.51439e-6 
            905       4.8104e-6 
            915       0.0315634 
            925        0.123666 
            935        0.154411 
            945        0.222977 
            955        0.325631 
            965        0.395078 
            975        0.381907 
            985        0.706534 
            995        0.854203 
           1005         1.10125 
           1015         1.10778 
           1025         1.30235 
           1035         2.09503 
           1045          2.8668 
           1055         3.61997 
           1065         4.35179 
           1075         5.42751 
           1085         6.62559 
           1095          7.8125 
           1105         21.0921 
           1115         54.0326 
           1125         66.0156 
           1135         76.0083 
           1145         78.1778 
           1155         69.4282 
           1165         68.9797 
           1175         57.7963 
           1185         190.647 
           1195         23.9016 
           1205          14.976 
           1215          4.0283 
           1225         17.9025 
           1235         44.9637 
           1245         72.9312 
           1255         133.276 
           1265         200.079 
           1275         294.269 
           1285         453.018 
           1295         634.477 
           1305         776.896 
           1315         1105.86 
           1325         1450.59 
           1335         1819.72 
           1345         2401.54 
           1355         2893.96 
           1365         3869.76 
           1375          5398.4 
           1385         6884.62 
           1395         8954.86 
           1405         12704.4 
           1415         16396.6 
           1425         25912.1 
           1435           29310 
           1442         40371.3 
           1447         47588.5 
           1455         68212.7 
           1465         73789.8 
           1475         89159.7 
           1485          110154 
           1495          143376 
           1505          173111 
           1512          173341 
           1517          193760 
           1525          233396 
           1535          429968 
           1545          666364 
           1555          657556 
           1565          586253 
           1575          795914 
           1585          871034 
           1595       1.0856e+6 
           1605      1.01378e+6 
           1615      1.08052e+6 
           1625       1.1024e+6 
           1635      1.34312e+6 
           1645      1.65712e+6 
           1655      1.11122e+6 
           1665      1.81881e+6 
           1672          894960 
           1677      1.89816e+6 
           1685      2.28952e+6 
           1695      2.26114e+6 
           1705      2.15059e+6 
           1715      2.46898e+6 
           1725      2.52982e+6 
           1735      2.85342e+6 
           1745      2.72158e+6 
           1755      3.17967e+6 
           1765      2.76329e+6 
           1775      3.13484e+6 
           1785      3.12382e+6 
           1795      3.70413e+6 
           1805      3.41829e+6 
           1815      3.60133e+6 
           1825      3.35102e+6 
           1835      3.42491e+6 
           1845      3.19841e+6 
           1855      3.42196e+6 
           1865      3.52368e+6 
           1875      3.67865e+6 
           1885      3.78476e+6 
           1895      3.88802e+6 
           1905      3.65173e+6 
           1915      4.00622e+6 
           1925      4.16457e+6 
           1935      3.80118e+6 
           1945      4.40421e+6 
           1955      4.44492e+6 
           1967      4.63486e+6 
           1976      4.54585e+6 
           1984      4.51261e+6 
           1995      4.43563e+6 
           2005      4.36975e+6 
           2015      4.31062e+6 
           2025      4.15304e+6 
           2035      4.53488e+6 
           2045      4.82016e+6 
           2055      4.58085e+6 
           2065      4.47784e+6 
           2074      5.07158e+6 
           2078      5.21155e+6 
           2085      5.10721e+6 
           2095      4.96947e+6 
           2105      4.83488e+6 
           2115      4.90119e+6 
           2125      5.03329e+6 
           2135      4.15679e+6 
           2145      4.82106e+6 
           2155      4.94451e+6 
           2165      4.73192e+6 
           2175      4.73876e+6 
           2185      4.87666e+6 
           2195      5.31821e+6 
           2205      5.12681e+6 
           2215      4.66682e+6 
           2225      4.69543e+6 
           2235      5.40596e+6 
           2245      4.86367e+6 
           2255      4.71298e+6 
           2265      4.71545e+6 
           2275      5.20217e+6 
           2285      5.38712e+6 
           2295      5.06748e+6 
           2305      5.21328e+6 
           2315       5.1521e+6 
           2325      5.09191e+6 
           2335      4.57799e+6 
           2345      3.95574e+6 
           2355      5.15538e+6 
           2365      4.13746e+6 
           2375      4.88285e+6 
           2385      3.63343e+6 
           2395      4.34078e+6 
           2405      4.17423e+6 
           2415       4.5211e+6 
           2425      5.38653e+6 
           2435      5.29409e+6 
           2445      5.61014e+6 
           2455      5.46915e+6 
           2465      5.45183e+6 
           2475      5.21888e+6 
           2485      5.50304e+6 
           2495      5.40745e+6 
           2505      6.09309e+6 
           2513      5.39422e+6 
           2518      5.58363e+6 
           2525      5.15256e+6 
           2535      5.03185e+6 
           2545      5.16042e+6 
           2555      5.55928e+6 
           2565      5.49237e+6 
           2575      5.93676e+6 
           2585      5.82665e+6 
           2595      5.62183e+6 
           2605      5.31233e+6 
           2615      5.18947e+6 
           2625      5.85217e+6 
           2635       6.1182e+6 
           2645      7.20931e+6 
           2655      7.18664e+6 
           2665      6.61351e+6 
           2675      6.89742e+6 
           2685       6.9496e+6 
           2695      6.62737e+6 
           2705      6.79418e+6 
           2715      6.40589e+6 
           2725      6.52334e+6 
           2735       7.0544e+6 
           2745      5.59418e+6 
           2755      6.04602e+6 
           2765      6.43057e+6 
           2775      7.07264e+6 
           2785      6.86214e+6 
           2795      4.12279e+6 
           2805      4.86615e+6 
           2815      7.38937e+6 
           2825      7.57554e+6 
           2835      7.35485e+6 
           2845      7.20922e+6 
           2855      6.90923e+6 
           2865      7.39623e+6 
           2875      7.25098e+6 
           2885      7.47916e+6 
           2895      7.24149e+6 
           2910      8.03855e+6 
           2930      7.87301e+6 
           2950      7.87571e+6 
           2970      8.10099e+6 
           2990      8.24792e+6 
           3010      8.43266e+6 
           3030      8.47722e+6 
           3050      8.48588e+6 
           3070      8.45762e+6 
           3090       8.7245e+6 
           3110      8.57214e+6 
           3130      8.56408e+6 
           3150      8.81712e+6 
           3170      8.87717e+6 
           3190       8.5811e+6 
           3210      8.85474e+6 
           3230      8.72231e+6 
           3250       8.9395e+6 
           3270      9.03201e+6 
           3290      9.22185e+6 
           3310      9.34181e+6 
           3330      9.21465e+6 
           3350      9.10932e+6 
           3370      9.20121e+6 
           3390      9.24834e+6 
           3410      9.50109e+6 
           3430      9.59075e+6 
           3450      9.58939e+6 
           3470      9.51327e+6 
           3490      9.52425e+6 
           3510      9.73801e+6 
           3530      9.86047e+6 
           3550       9.9398e+6 
           3570      9.78558e+6 
           3590      9.80927e+6 
           3610      9.88271e+6 
           3630      9.96538e+6 
           3640      9.88653e+6 
           3650      1.00912e+7 
           3670      1.02016e+7 
           3690       1.1654e+7 
           3710      1.64526e+7 
           3730       2.7492e+7 
           3750      3.99541e+7 
           3770      4.02151e+7 
           3790      4.51238e+7 
           3810      4.92994e+7 
           3830      4.06035e+7 
           3850      5.06771e+7 
           3870      5.16236e+7 
           3890      3.92187e+7 
           3910      5.03387e+7 
           3930      4.45224e+7 
           3950      5.01887e+7 
           3970      3.59235e+7 
           3990      4.95661e+7 
           4010      4.93213e+7 
           4030       4.8717e+7 
           4050      4.83266e+7 
           4070      4.74616e+7 
           4090       4.5528e+7 
           4110      3.69278e+7 
           4130      4.63289e+7 
           4150      4.63144e+7 
           4170      4.52234e+7 
           4190      4.50223e+7 
           4210      4.45063e+7 
           4230      4.39243e+7 
           4250      4.35014e+7 
           4270       4.3068e+7 
           4290      4.25794e+7 
           4310      4.10575e+7 
           4330      3.83623e+7 
           4350       3.3491e+7 
           4370      4.11787e+7 
           4390      4.03313e+7 
           4410      3.96602e+7 
           4430      4.01668e+7 
           4450      3.95307e+7 
           4470      3.91381e+7 
           4490      3.87024e+7 
           4510       3.8447e+7 
           4530      3.78126e+7 
           4550       3.6915e+7 
           4570       3.7316e+7 
           4590      3.66839e+7 
           4610      3.70452e+7 
           4630      3.61741e+7 
           4650      3.62695e+7 
           4670      3.58386e+7 
           4690      3.55096e+7 
           4710      3.47281e+7 
           4730      3.48829e+7 
           4750      3.46265e+7 
           4770      3.42209e+7 
           4790       3.3875e+7 
           4810      3.35255e+7 
           4830       3.3032e+7 
           4850      3.03273e+7 
           4870      2.50831e+7 
           4890      3.19617e+7 
           4910      3.19112e+7 
           4930        3.127e+7 
           4950      3.13176e+7 
           4970      3.11149e+7 
           4990      3.07041e+7 
           5010      3.00467e+7 
           5030      3.01298e+7 
           5050      2.98267e+7 
           5070      2.96226e+7 
           5090      2.93306e+7 
           5110      2.90553e+7 
           5130      2.86832e+7 
           5150      2.84012e+7 
           5170       2.7759e+7 
           5190      2.75036e+7 
           5210       2.7562e+7 
           5230      2.70666e+7 
           5250      2.71505e+7 
           5270      2.65284e+7 
           5290      2.66472e+7 
           5310       2.6181e+7 
           5330      2.59782e+7 
           5350      2.59778e+7 
           5370      2.56449e+7 
           5390      2.54381e+7 
           5410      2.51731e+7 
           5430      2.49216e+7 
           5450      2.47809e+7 
           5470      2.45736e+7 
           5490      2.43723e+7 
           5510      2.41386e+7 
           5530      2.38461e+7 
           5550       2.3743e+7 
           5570      2.35121e+7 
           5590      2.32996e+7 
           5610      2.31026e+7 
           5630      2.29091e+7 
           5650      2.26634e+7 
           5670      2.24733e+7 
           5690      2.23051e+7 
           5710       2.2111e+7 
           5730      2.19271e+7 
           5750      2.17315e+7 
           5770      2.15449e+7 
           5790      2.13536e+7 
           5810        2.117e+7 
           5830      2.09851e+7 
           5850      2.08045e+7 
           5870      2.06214e+7 
           5890      2.03057e+7 
           5910      2.02731e+7 
           5930      2.00991e+7 
           5950      1.99248e+7 
           5970      1.97609e+7 
           5990      1.95808e+7 
           6010      1.94184e+7 
           6030      1.92587e+7 
           6050      1.90976e+7 
           6070      1.89413e+7 
           6090      1.87775e+7 
           6110      1.86154e+7 
           6130       1.8452e+7 
           6150      1.82306e+7 
           6170      1.81463e+7 
           6190      1.80105e+7 
           6210      1.78644e+7 
           6230      1.77062e+7 
           6250      1.74716e+7 
           6270      1.74283e+7 
           6290      1.72843e+7 
           6310      1.71257e+7 
           6330      1.69998e+7 
           6350      1.68294e+7 
           6370       1.6696e+7 
           6390      1.65889e+7 
           6410      1.64379e+7 
           6430      1.63157e+7 
           6450      1.61386e+7 
           6470      1.60642e+7 
           6490      1.58848e+7 
           6510      1.57421e+7 
           6530      1.55389e+7 
           6550      1.44273e+7 
           6570      1.14629e+7 
           6590      1.50221e+7 
           6610      1.51124e+7 
           6630      1.50488e+7 
           6650      1.49567e+7 
           6670      1.48384e+7 
           6690      1.47245e+7 
           6710       1.4611e+7 
           6730      1.44968e+7 
           6750      1.43829e+7 
           6770       1.4275e+7 
           6790      1.41633e+7 
           6810      1.40558e+7 
           6830       1.3943e+7 
           6850      1.38384e+7 
           6870       1.3734e+7 
           6890       1.3629e+7 
           6910      1.35249e+7 
           6930      1.34219e+7 
           6950      1.33198e+7 
           6970      1.32186e+7 
           6990      1.31192e+7 
           7010      1.30138e+7 
           7030      1.29208e+7 
           7050      1.28248e+7 
           7070       1.2729e+7 
           7090      1.26348e+7 
           7110      1.25146e+7 
           7130      1.24416e+7 
           7150      1.23507e+7 
           7170      1.22606e+7 
           7190      1.21663e+7 
           7210      1.20757e+7 
           7230      1.19823e+7 
           7250      1.19012e+7 
           7270      1.18152e+7 
           7290      1.17242e+7 
           7310      1.16312e+7 
           7330      1.15524e+7 
           7350      1.14708e+7 
           7370      1.13913e+7 
           7390      1.13056e+7 
           7410      1.12199e+7 
           7430      1.11378e+7 
           7450      1.10584e+7 
           7470      1.09695e+7 
           7490      1.08969e+7 
           7510      1.08203e+7 
           7530      1.07476e+7 
           7550      1.06742e+7 
           7570      1.05955e+7 
           7590      1.05221e+7 
           7610      1.04473e+7 
           7630      1.03732e+7 
           7650      1.02972e+7 
           7670      1.02237e+7 
           7690       1.0154e+7 
           7710      1.00735e+7 
           7730      1.00126e+7 
           7750      9.94158e+6 
           7770      9.77066e+6 
           7790      9.80436e+6 
           7810      9.73568e+6 
           7830      9.66573e+6 
           7850      9.59576e+6 
           7870      9.52576e+6 
           7890      9.45514e+6 
           7910      9.40016e+6 
           7930      9.33483e+6 
           7950      9.26885e+6 
           7970      9.21052e+6 
           7990      9.13733e+6 
           8010      9.08353e+6 
           8030      9.02081e+6 
           8050      8.95977e+6 
           8070      8.89864e+6 
           8090        8.838e+6 
           8110        8.779e+6 
           8130       8.7199e+6 
           8150      8.66071e+6 
           8170      8.60255e+6 
           8190      8.52914e+6 
           8210      8.50831e+6 
           8230      8.45422e+6 
           8250      8.38892e+6 
           8270      8.34785e+6 
           8290      8.27801e+6 
           8310       8.1793e+6 
           8330      8.07275e+6 
           8350      8.11787e+6 
           8370      7.88177e+6 
           8390      7.98981e+6 
           8410      7.96517e+6 
           8430      8.20997e+6 
           8450      8.12789e+6 
           8470      7.85745e+6 
           8490      8.56055e+6 
           8510      7.76607e+6 
           8530      8.71293e+6 
           8550      7.57659e+6 
           8570      8.89595e+6 
           8590      8.45889e+6 
           8610      8.21941e+6 
           8630      9.14548e+6 
           8650      9.02066e+6 
           8670      7.46654e+6 
           8690      9.00815e+6 
           8710      9.03834e+6 
           8730      8.91491e+6 
           8750      7.43052e+6 
           8770      8.68096e+6 
           8790      8.80045e+6 
           8810      8.74695e+6 
           8830      8.65905e+6 
           8850      8.35108e+6 
           8870      7.20593e+6 
           8890      8.45819e+6 
           8910      8.42643e+6 
           8930      8.36605e+6 
           8950      8.35175e+6 
           8970      8.29067e+6 
           8990      8.18763e+6 
           9010       7.0422e+6 
           9030      7.69251e+6 
           9050      8.04493e+6 
           9070      7.93988e+6 
           9090       7.8261e+6 
           9110      7.87076e+6 
           9130      7.85711e+6 
           9150       7.8084e+6 
           9170      7.75377e+6 
           9190      7.68883e+6 
           9210      7.53156e+6 
           9230      6.29659e+6 
           9250      7.36221e+6 
           9270      7.42342e+6 
           9290      7.45129e+6 
           9310      7.40367e+6 
           9330      7.35421e+6 
           9350      7.30684e+6 
           9370      7.25938e+6 
           9390      7.20712e+6 
           9410      7.09994e+6 
           9430      7.11222e+6 
           9450      7.06949e+6 
           9470      7.02496e+6 
