# Kurucz ODFNEW /NOVER (2003)
# teff = 32000 K (value for the effective temperature for the model. Temperatures are given in K)
# logg = 4.5 log(cm/s2) (value for Log(G) for the model.)
# meta = -1  (value for the Metallicity for the model.)
# lh = 1.25  (l/Hp where l is the  mixing length of the convective element and Hp is the pressure scale height)
# vtur = 2 km/s (Microturbulence velocity)
# alpha = 0.4  (Alpha)
#
# column 1: WAVELENGTH (ANGSTROM), Wavelength in Angstrom
# column 2: FLUX (ERG/CM2/S/A), Flux in erg/cm2/s/A
          147.2      5.33889e-7 
            151      1.55753e-6 
          155.2      4.79173e-6 
          158.8      1.19908e-5 
            162      2.62206e-5 
            166      6.68737e-5 
          170.3     0.000174179 
          173.4     0.000337468 
          176.8     0.000678633 
          180.2      0.00132885 
          181.7       0.0017736 
          186.1      0.00402681 
            191      0.00959797 
          193.9       0.0157146 
          198.4       0.0328239 
          201.8       0.0560017 
            205       0.0910784 
          210.5        0.203064 
          216.2        0.445983 
          219.8        0.718243 
            223         1.08233 
          226.8         1.73489 
            230         962.191 
            234         2733.62 
            240         4701.99 
          246.5         8354.58 
          252.4         13879.2 
          256.8         16955.2 
            260         26824.1 
            264         35205.4 
          268.5         51014.4 
          273.5         72155.6 
          278.5         96083.6 
            284          170480 
            290          244216 
            296          332528 
            301          404959 
            308          661572 
            318      1.36704e+6 
            328       2.0448e+6 
            338      3.30781e+6 
            348      4.94398e+6 
            357      8.18022e+6 
            366      1.24767e+7 
            375      1.58924e+7 
            385      2.22622e+7 
            395      3.07178e+7 
            405      3.91348e+7 
            414      5.00266e+7 
            422      5.79847e+7 
            430      6.90501e+7 
            441      8.69933e+7 
            451      1.06551e+8 
            460      1.22854e+8 
            470      1.48086e+8 
            480      1.74744e+8 
            490      2.02863e+8 
            500      2.42448e+8 
            506      8.37884e+8 
            512      3.98841e+9 
            520      3.80853e+9 
            530      3.72921e+9 
            540      3.42144e+9 
            550      3.94339e+9 
            560      4.39245e+9 
            570      4.56922e+9 
            580      4.24045e+9 
            590      4.61967e+9 
            600      4.37372e+9 
            610      4.72162e+9 
            620       5.1177e+9 
            630      5.16031e+9 
            640      5.06782e+9 
            650      5.26583e+9 
            658      5.09245e+9 
            665      5.33201e+9 
            675      5.45384e+9 
            685      5.17462e+9 
            695      5.79197e+9 
            705      5.42023e+9 
            716      6.06324e+9 
            726      6.02323e+9 
            735      6.15208e+9 
            745      6.23741e+9 
            755      6.26374e+9 
            765      6.39299e+9 
            775      6.51816e+9 
            785      6.71752e+9 
            795      6.73794e+9 
            805      6.72913e+9 
            815      6.78224e+9 
            825      6.99077e+9 
            835       6.4488e+9 
            845      7.02096e+9 
            855      7.07052e+9 
            865      7.21562e+9 
            875      7.29176e+9 
            885      7.39871e+9 
            895       7.4892e+9 
            905       7.4258e+9 
            915      8.09008e+9 
            925     2.83138e+10 
            935     4.83029e+10 
            945     7.80479e+10 
            955     8.78763e+10 
            965     1.05685e+11 
            975     5.41222e+10 
            985      9.8886e+10 
            995     9.01274e+10 
           1005     9.30461e+10 
           1015     9.21323e+10 
           1025     5.86918e+10 
           1035     8.66718e+10 
           1045     9.49254e+10 
           1055     9.20377e+10 
           1065     8.28707e+10 
           1075     8.43874e+10 
           1085     7.77604e+10 
           1095     8.28976e+10 
           1105     7.91609e+10 
           1115      7.7311e+10 
           1125     6.82094e+10 
           1135     7.44408e+10 
           1145     6.98129e+10 
           1155     6.89933e+10 
           1165     6.79749e+10 
           1175     5.44073e+10 
           1185     6.30009e+10 
           1195     6.09906e+10 
           1205     5.67394e+10 
           1215     3.77846e+10 
           1225     5.59913e+10 
           1235     5.81239e+10 
           1245     5.62582e+10 
           1255     5.58579e+10 
           1265     5.53761e+10 
           1275      5.4694e+10 
           1285     5.37707e+10 
           1295     4.96503e+10 
           1305     4.98634e+10 
           1315     5.05305e+10 
           1325     4.86935e+10 
           1335     4.72839e+10 
           1345      4.6648e+10 
           1355     4.61569e+10 
           1365     4.43286e+10 
           1375     4.36403e+10 
           1385     4.26884e+10 
           1395     3.67123e+10 
           1405     3.70579e+10 
           1415     3.97554e+10 
           1425     3.76391e+10 
           1435     3.80914e+10 
           1442     3.80378e+10 
           1447     3.75108e+10 
           1455      3.6482e+10 
           1465      3.5761e+10 
           1475     3.50682e+10 
           1485     3.46812e+10 
           1495     3.37064e+10 
           1505     3.26312e+10 
           1512     3.23512e+10 
           1517     3.20483e+10 
           1525     3.13581e+10 
           1535     2.90147e+10 
           1545     2.75892e+10 
           1555     2.69831e+10 
           1565     2.74546e+10 
           1575     2.77343e+10 
           1585     2.75069e+10 
           1595     2.71675e+10 
           1605      2.5799e+10 
           1615     2.49923e+10 
           1625     2.49139e+10 
           1635     2.47115e+10 
           1645     2.38092e+10 
           1655     2.44054e+10 
           1665     2.38413e+10 
           1672     2.30828e+10 
           1677     2.41939e+10 
           1685     2.35732e+10 
           1695     2.30101e+10 
           1705     2.24377e+10 
           1715     2.18079e+10 
           1725     2.12216e+10 
           1735     2.14882e+10 
           1745     2.10967e+10 
           1755     2.06771e+10 
           1765     2.02682e+10 
           1775     1.99137e+10 
           1785     1.96947e+10 
           1795     1.93952e+10 
           1805      1.9211e+10 
           1815       1.873e+10 
           1825     1.84348e+10 
           1835     1.82322e+10 
           1845     1.74419e+10 
           1855     1.71711e+10 
           1865      1.7059e+10 
           1875     1.68464e+10 
           1885      1.6209e+10 
           1895     1.57814e+10 
           1905     1.59525e+10 
           1915     1.54483e+10 
           1925     1.49335e+10 
           1935     1.51236e+10 
           1945       1.509e+10 
           1955     1.43269e+10 
           1967     1.44622e+10 
           1976     1.45025e+10 
           1984     1.40566e+10 
           1995     1.36464e+10 
           2005     1.37271e+10 
           2015     1.36116e+10 
           2025     1.34582e+10 
           2035     1.30979e+10 
           2045     1.28963e+10 
           2055     1.12572e+10 
           2065     1.09232e+10 
           2074     1.10659e+10 
           2078     1.09501e+10 
           2085     1.11895e+10 
           2095      1.1507e+10 
           2105     1.17558e+10 
           2115     1.17081e+10 
           2125     1.15039e+10 
           2135     1.13608e+10 
           2145     1.11667e+10 
           2155     1.10812e+10 
           2165     1.07886e+10 
           2175     1.07748e+10 
           2185     1.05075e+10 
           2195     1.04886e+10 
           2205      1.0334e+10 
           2215     1.00482e+10 
           2225     1.00213e+10 
           2235      9.86768e+9 
           2245      9.73213e+9 
           2255      9.46301e+9 
           2265      9.45234e+9 
           2275      9.31847e+9 
           2285      9.14473e+9 
           2295      8.76265e+9 
           2305      8.79315e+9 
           2315      8.76585e+9 
           2325      8.65297e+9 
           2335      8.52305e+9 
           2345      8.41763e+9 
           2355      8.29535e+9 
           2365      8.17954e+9 
           2375      8.05537e+9 
           2385      7.82835e+9 
           2395      7.79924e+9 
           2405      7.72605e+9 
           2415      7.60858e+9 
           2425      7.51201e+9 
           2435      7.39007e+9 
           2445      7.30202e+9 
           2455      7.19952e+9 
           2465      7.11085e+9 
           2475      7.00983e+9 
           2485      6.90595e+9 
           2495      6.14384e+9 
           2505      6.68805e+9 
           2513      6.44688e+9 
           2518      6.51994e+9 
           2525      6.55297e+9 
           2535      6.47089e+9 
           2545      6.33871e+9 
           2555      6.27591e+9 
           2565      6.20703e+9 
           2575      6.13221e+9 
           2585      6.05498e+9 
           2595      5.97148e+9 
           2605      5.91906e+9 
           2615      5.83807e+9 
           2625      5.76579e+9 
           2635      5.68847e+9 
           2645      5.61269e+9 
           2655      5.53575e+9 
           2665      5.44867e+9 
           2675      5.37273e+9 
           2685      5.33487e+9 
           2695      5.23104e+9 
           2705      5.19295e+9 
           2715      5.12921e+9 
           2725      5.03598e+9 
           2735      4.95415e+9 
           2745      4.94266e+9 
           2755      4.88158e+9 
           2765      4.78957e+9 
           2775      4.76803e+9 
           2785      4.70398e+9 
           2795      4.58994e+9 
           2805       4.5748e+9 
           2815       4.5385e+9 
           2825      4.45035e+9 
           2835      4.39679e+9 
           2845      4.37776e+9 
           2855      4.31844e+9 
           2865      4.26632e+9 
           2875      4.21577e+9 
           2885      4.16894e+9 
           2895      4.11781e+9 
           2910      4.03903e+9 
           2930      3.95125e+9 
           2950      3.83413e+9 
           2970      3.76828e+9 
           2990      3.67787e+9 
           3010      3.58783e+9 
           3030      3.50644e+9 
           3050      3.43384e+9 
           3070       3.3633e+9 
           3090       3.2668e+9 
           3110      3.21253e+9 
           3130      3.13819e+9 
           3150      3.06915e+9 
           3170      3.00374e+9 
           3190      2.92247e+9 
           3210      2.86683e+9 
           3230      2.81306e+9 
           3250      2.75675e+9 
           3270      2.69576e+9 
           3290      2.63893e+9 
           3310      2.58671e+9 
           3330      2.52943e+9 
           3350      2.47475e+9 
           3370      2.42662e+9 
           3390      2.38086e+9 
           3410      2.33228e+9 
           3430      2.27906e+9 
           3450      2.22559e+9 
           3470      2.18543e+9 
           3490      2.14143e+9 
           3510      2.10211e+9 
           3530      2.06467e+9 
           3550      2.02317e+9 
           3570      1.99241e+9 
           3590      1.94081e+9 
           3610      1.91023e+9 
           3630      1.86728e+9 
           3640      1.85897e+9 
           3650      1.80997e+9 
           3670      1.78294e+9 
           3690      1.74911e+9 
           3710      1.69319e+9 
           3730      1.64048e+9 
           3750        1.635e+9 
           3770      1.59864e+9 
           3790      1.64331e+9 
           3810      1.68543e+9 
           3830       1.5107e+9 
           3850      1.69495e+9 
           3870      1.68977e+9 
           3890      1.42261e+9 
           3910      1.65634e+9 
           3930      1.62674e+9 
           3950      1.59179e+9 
           3970      1.31625e+9 
           3990      1.53507e+9 
           4010      1.51888e+9 
           4030      1.44666e+9 
           4050      1.47908e+9 
           4070      1.43179e+9 
           4090      1.33825e+9 
           4110      1.20534e+9 
           4130      1.35391e+9 
           4150      1.34021e+9 
           4170      1.32847e+9 
           4190      1.30333e+9 
           4210       1.2822e+9 
           4230       1.2628e+9 
           4250      1.23603e+9 
           4270      1.21047e+9 
           4290      1.19155e+9 
           4310      1.16411e+9 
           4330      1.07733e+9 
           4350      9.95095e+8 
           4370      1.10696e+9 
           4390      1.07512e+9 
           4410      1.07592e+9 
           4430      1.06122e+9 
           4450      1.04476e+9 
           4470      9.93593e+8 
           4490      1.01034e+9 
           4510      9.95846e+8 
           4530      9.80353e+8 
           4550      9.60216e+8 
           4570      9.47285e+8 
           4590       9.3075e+8 
           4610      9.16169e+8 
           4630      9.01118e+8 
           4650      8.74026e+8 
           4670      8.72084e+8 
           4690      8.52895e+8 
           4710      8.34935e+8 
           4730      8.35332e+8 
           4750      8.21667e+8 
           4770      8.10304e+8 
           4790       7.9769e+8 
           4810      7.84215e+8 
           4830      7.67544e+8 
           4850      7.20146e+8 
           4870      6.55201e+8 
           4890      7.32281e+8 
           4910      7.24703e+8 
           4930      7.01397e+8 
           4950      7.03567e+8 
           4970      6.95307e+8 
           4990      6.84903e+8 
           5010      6.67004e+8 
           5030      6.64301e+8 
           5050      6.51973e+8 
           5070      6.45448e+8 
           5090      6.35805e+8 
           5110      6.26581e+8 
           5130      6.17411e+8 
           5150       6.0852e+8 
           5170      5.99578e+8 
           5190      5.91288e+8 
           5210      5.82871e+8 
           5230      5.74634e+8 
           5250       5.6641e+8 
           5270      5.58361e+8 
           5290      5.50607e+8 
           5310      5.42873e+8 
           5330      5.35305e+8 
           5350      5.27823e+8 
           5370      5.20528e+8 
           5390      5.13184e+8 
           5410       5.0466e+8 
           5430      4.99288e+8 
           5450      4.92383e+8 
           5470      4.85679e+8 
           5490      4.79097e+8 
           5510      4.72623e+8 
           5530      4.66229e+8 
           5550      4.59976e+8 
           5570      4.53789e+8 
           5590      4.47606e+8 
           5610      4.41763e+8 
           5630      4.35896e+8 
           5650      4.30089e+8 
           5670       4.2426e+8 
           5690      4.17664e+8 
           5710      4.11404e+8 
           5730      4.06162e+8 
           5750       4.0055e+8 
           5770      3.95786e+8 
           5790      3.90674e+8 
           5810      3.85657e+8 
           5830      3.80632e+8 
           5850       3.7592e+8 
           5870       3.6196e+8 
           5890      3.65923e+8 
           5910      3.62027e+8 
           5930      3.57618e+8 
           5950      3.53675e+8 
           5970      3.49533e+8 
           5990      3.45019e+8 
           6010      3.40829e+8 
           6030      3.36561e+8 
           6050      3.32415e+8 
           6070      3.28327e+8 
           6090      3.24274e+8 
           6110      3.20288e+8 
           6130      3.16357e+8 
           6150        3.124e+8 
           6170      3.08616e+8 
           6190      3.04924e+8 
           6210      3.01244e+8 
           6230      2.97605e+8 
           6250      2.93996e+8 
           6270      2.90485e+8 
           6290      2.87012e+8 
           6310      2.83568e+8 
           6330      2.80218e+8 
           6350      2.76858e+8 
           6370      2.73619e+8 
           6390      2.70386e+8 
           6410      2.67198e+8 
           6430      2.64089e+8 
           6450      2.60996e+8 
           6470      2.57855e+8 
           6490      2.54873e+8 
           6510      2.51949e+8 
           6530      2.48041e+8 
           6550      2.38959e+8 
           6570      2.15844e+8 
           6590      2.38539e+8 
           6610      2.37564e+8 
           6630      2.35138e+8 
           6650      2.32491e+8 
           6670      2.27864e+8 
           6690        2.253e+8 
           6710      2.24695e+8 
           6730      2.22097e+8 
           6750      2.19758e+8 
           6770      2.17319e+8 
           6790      2.14774e+8 
           6810      2.12499e+8 
           6830      2.10101e+8 
           6850      2.07824e+8 
           6870      2.05531e+8 
           6890      2.03173e+8 
           6910      2.00917e+8 
           6930      1.98865e+8 
           6950        1.967e+8 
           6970      1.94565e+8 
           6990      1.92459e+8 
           7010      1.90365e+8 
           7030        1.883e+8 
           7050      1.86286e+8 
           7070      1.81865e+8 
           7090      1.82331e+8 
           7110      1.80368e+8 
           7130      1.78461e+8 
           7150      1.76587e+8 
           7170      1.74665e+8 
           7190      1.72871e+8 
           7210      1.71058e+8 
           7230      1.68895e+8 
           7250      1.67399e+8 
           7270      1.65745e+8 
           7290      1.62894e+8 
           7310        1.623e+8 
           7330       1.6063e+8 
           7350      1.58969e+8 
           7370      1.57338e+8 
           7390      1.55722e+8 
           7410      1.54128e+8 
           7430      1.52548e+8 
           7450      1.51004e+8 
           7470      1.49353e+8 
           7490      1.47938e+8 
           7510      1.46423e+8 
           7530      1.44975e+8 
           7550      1.43521e+8 
           7570       1.4208e+8 
           7590        1.406e+8 
           7610      1.39205e+8 
           7630      1.37868e+8 
           7650      1.36491e+8 
           7670       1.3514e+8 
           7690      1.33794e+8 
           7710       1.3248e+8 
           7730      1.31152e+8 
           7750      1.29893e+8 
           7770      1.28614e+8 
           7790      1.27364e+8 
           7810       1.2607e+8 
           7830      1.24899e+8 
           7850      1.23768e+8 
           7870      1.22519e+8 
           7890        1.213e+8 
           7910      1.20217e+8 
           7930      1.19055e+8 
           7950       1.1792e+8 
           7970      1.16712e+8 
           7990      1.15662e+8 
           8010      1.14557e+8 
           8030       1.1342e+8 
           8050      1.12346e+8 
           8070       1.1131e+8 
           8090      1.10109e+8 
           8110       1.0896e+8 
           8130      1.08174e+8 
           8150      1.07065e+8 
           8170       1.0618e+8 
           8190      1.04977e+8 
           8210      1.03745e+8 
           8230      1.02891e+8 
           8250      1.02055e+8 
           8270      1.00703e+8 
           8290      1.00146e+8 
           8310      9.92721e+7 
           8330      9.83182e+7 
           8350      9.70805e+7 
           8370      9.64236e+7 
           8390      9.56647e+7 
           8410      9.47894e+7 
           8430      9.38896e+7 
           8450      9.25751e+7 
           8470      9.21962e+7 
           8490      9.12083e+7 
           8510      9.04212e+7 
           8530      8.95317e+7 
           8550      8.84588e+7 
           8570      8.84363e+7 
