# Kurucz ODFNEW /NOVER (2003)
# teff = 25000 K (value for the effective temperature for the model. Temperatures are given in K)
# logg = 3.5 log(cm/s2) (value for Log(G) for the model.)
# meta = 0  (value for the Metallicity for the model.)
# lh = 1.25  (l/Hp where l is the  mixing length of the convective element and Hp is the pressure scale height)
# vtur = 2 km/s (Microturbulence velocity)
# alpha = 0.4  (Alpha)
#
# column 1: WAVELENGTH (ANGSTROM), Wavelength in Angstrom
# column 2: FLUX (ERG/CM2/S/A), Flux in erg/cm2/s/A
          147.2      2.4762e-14 
            151     1.04596e-13 
          155.2     4.76311e-13 
          158.8      1.6472e-12 
            162     4.75993e-12 
            166       1.701e-11 
          170.3     6.27781e-11 
          173.4     1.55929e-10 
          176.8     4.07267e-10 
          180.2      1.02896e-9 
          181.7      1.53237e-9 
          186.1      4.77476e-9 
            191      1.60075e-8 
          193.9      3.18791e-8 
          198.4      8.94636e-8 
          201.8      1.89599e-7 
            205      3.76308e-7 
          210.5      1.16861e-6 
          216.2       3.5677e-6 
          219.8      7.01696e-6 
            223      1.25786e-5 
          226.8      2.47995e-5 
            230      0.00109437 
            234      0.00249777 
            240      0.00583362 
          246.5       0.0141318 
          252.4       0.0307364 
          256.8       0.0511661 
            260       0.0817269 
            264        0.127809 
          268.5        0.217743 
          273.5        0.378224 
          278.5         0.64012 
            284          1.2415 
            290         2.21343 
            296         3.88223 
            301         6.04548 
            308         11.7541 
            318         28.3031 
            328         59.1616 
            338         127.224 
            348         252.245 
            357         1610.65 
            366         3769.09 
            375         5683.16 
            385         9785.43 
            395           22066 
            405         33034.6 
            414           51119 
            422         68659.3 
            430         96776.1 
            441          143731 
            451          194920 
            460          252298 
            470          353757 
            480          473561 
            490          636376 
            500          830583 
            506      4.28631e+6 
            512      3.04092e+7 
            520      3.24051e+7 
            530      3.65692e+7 
            540      3.65412e+7 
            550       5.6634e+7 
            560      6.87267e+7 
            570      7.98008e+7 
            580      7.36605e+7 
            590      9.83468e+7 
            600      1.03679e+8 
            610       1.2534e+8 
            620      1.38804e+8 
            630      1.46857e+8 
            640      1.35185e+8 
            650      1.05538e+8 
            658      1.54594e+8 
            665      1.85424e+8 
            675      1.89743e+8 
            685      1.85625e+8 
            695      2.51756e+8 
            705      2.40534e+8 
            716      2.84515e+8 
            726        2.839e+8 
            735      3.02974e+8 
            745      3.44431e+8 
            755      3.61512e+8 
            765      3.87773e+8 
            775      4.14598e+8 
            785      4.42434e+8 
            795      4.51926e+8 
            805      4.66365e+8 
            815      4.74654e+8 
            825      5.19382e+8 
            835      4.14793e+8 
            845      5.26516e+8 
            855      5.34412e+8 
            865      5.67945e+8 
            875      6.00651e+8 
            885       6.4877e+8 
            895      6.76681e+8 
            905      6.66179e+8 
            915      1.05609e+9 
            925      8.50787e+9 
            935     1.63365e+10 
            945     2.38493e+10 
            955     2.67119e+10 
            965      2.8298e+10 
            975      5.97655e+9 
            985     2.09296e+10 
            995     2.16279e+10 
           1005     2.55457e+10 
           1015     2.66337e+10 
           1025     1.86384e+10 
           1035     2.20226e+10 
           1045     3.13972e+10 
           1055     2.87814e+10 
           1065     2.25621e+10 
           1075     2.62482e+10 
           1085     2.41198e+10 
           1095     2.69141e+10 
           1105     2.36428e+10 
           1115      2.2086e+10 
           1125      1.6442e+10 
           1135     2.42723e+10 
           1145     2.21775e+10 
           1155     2.25517e+10 
           1165     2.25728e+10 
           1175      1.2743e+10 
           1185     2.10036e+10 
           1195     1.92912e+10 
           1205     1.14439e+10 
           1215     1.30115e+10 
           1225     1.87792e+10 
           1235     2.09265e+10 
           1245      2.0136e+10 
           1255     1.99702e+10 
           1265     2.03252e+10 
           1275     2.10595e+10 
           1285     2.07136e+10 
           1295     1.33381e+10 
           1305     1.51046e+10 
           1315     2.02275e+10 
           1325     1.89469e+10 
           1335     1.84153e+10 
           1345     1.84116e+10 
           1355     1.83109e+10 
           1365     1.67973e+10 
           1375     1.61364e+10 
           1385     1.51112e+10 
           1395      8.63718e+9 
           1405     1.03834e+10 
           1415     1.38093e+10 
           1425     1.36124e+10 
           1435     1.43314e+10 
           1442     1.46957e+10 
           1447     1.44388e+10 
           1455     1.38611e+10 
           1465     1.27982e+10 
           1475     1.31828e+10 
           1485     1.29988e+10 
           1495     1.26723e+10 
           1505     1.14942e+10 
           1512     1.03751e+10 
           1517     1.07275e+10 
           1525     1.09933e+10 
           1535      9.20804e+9 
           1545      8.79189e+9 
           1555       8.5441e+9 
           1565      9.41322e+9 
           1575     1.01081e+10 
           1585     1.00685e+10 
           1595     1.00115e+10 
           1605     1.00452e+10 
           1615      9.75469e+9 
           1625      9.63357e+9 
           1635      1.0214e+10 
           1645     1.02465e+10 
           1655     1.00687e+10 
           1665     1.01489e+10 
           1672      9.60857e+9 
           1677     1.07795e+10 
           1685     1.03223e+10 
           1695      9.71332e+9 
           1705      9.49954e+9 
           1715      8.92976e+9 
           1725      8.78424e+9 
           1735      9.11967e+9 
           1745      8.96646e+9 
           1755      8.95594e+9 
           1765      8.92742e+9 
           1775       8.2705e+9 
           1785      8.43017e+9 
           1795       8.6522e+9 
           1805      8.72958e+9 
           1815      7.77972e+9 
           1825      8.10585e+9 
           1835      7.86111e+9 
           1845      7.14176e+9 
           1855       7.3055e+9 
           1865      7.39709e+9 
           1875      7.61373e+9 
           1885      6.80498e+9 
           1895      6.32735e+9 
           1905      6.88873e+9 
           1915      6.47068e+9 
           1925      6.10626e+9 
           1935      6.53381e+9 
           1945      6.66009e+9 
           1955      5.95469e+9 
           1967      6.51632e+9 
           1976      6.82712e+9 
           1984      6.32101e+9 
           1995      6.21306e+9 
           2005      6.45778e+9 
           2015      6.39291e+9 
           2025        6.537e+9 
           2035       5.9472e+9 
           2045       6.0706e+9 
           2055      5.72111e+9 
           2065      5.69623e+9 
           2074       6.0284e+9 
           2078       5.4616e+9 
           2085      5.82691e+9 
           2095      5.52027e+9 
           2105      5.71952e+9 
           2115      5.76275e+9 
           2125      5.79224e+9 
           2135      5.70438e+9 
           2145      5.38243e+9 
           2155      5.63104e+9 
           2165      5.60003e+9 
           2175      5.52198e+9 
           2185      5.33883e+9 
           2195      5.40977e+9 
           2205      5.40397e+9 
           2215      5.30868e+9 
           2225      5.16632e+9 
           2235      5.07578e+9 
           2245      5.12499e+9 
           2255      4.96339e+9 
           2265        5.013e+9 
           2275      4.93969e+9 
           2285      4.90629e+9 
           2295      4.39113e+9 
           2305      4.73671e+9 
           2315      4.61153e+9 
           2325      4.56393e+9 
           2335      4.43026e+9 
           2345      4.48593e+9 
           2355      4.45077e+9 
           2365      4.41496e+9 
           2375      4.31214e+9 
           2385      4.27903e+9 
           2395      4.21934e+9 
           2405      4.16009e+9 
           2415      4.09968e+9 
           2425      4.09099e+9 
           2435      3.97791e+9 
           2445      3.97858e+9 
           2455      3.96799e+9 
           2465      3.90411e+9 
           2475      3.83032e+9 
           2485      3.70578e+9 
           2495      2.82609e+9 
           2505      3.52984e+9 
           2513      3.48652e+9 
           2518      3.59105e+9 
           2525       3.5893e+9 
           2535       3.5696e+9 
           2545      3.39707e+9 
           2555      3.46309e+9 
           2565       3.4031e+9 
           2575       3.4236e+9 
           2585      3.37218e+9 
           2595      3.34345e+9 
           2605      3.32038e+9 
           2615      3.26402e+9 
           2625      3.24286e+9 
           2635      3.20869e+9 
           2645      3.16832e+9 
           2655      3.14428e+9 
           2665      3.02419e+9 
           2675      3.03342e+9 
           2685      3.02931e+9 
           2695      2.92311e+9 
           2705      2.87033e+9 
           2715      2.87396e+9 
           2725      2.85905e+9 
           2735      2.83289e+9 
           2745      2.78114e+9 
           2755      2.76714e+9 
           2765      2.73193e+9 
           2775       2.7454e+9 
           2785      2.69517e+9 
           2795       2.5935e+9 
           2805      2.62561e+9 
           2815      2.62481e+9 
           2825      2.59163e+9 
           2835       2.5056e+9 
           2845       2.5314e+9 
           2855      2.47968e+9 
           2865      2.47626e+9 
           2875      2.44612e+9 
           2885       2.4238e+9 
           2895       2.3829e+9 
           2910      2.32664e+9 
           2930      2.30376e+9 
           2950      2.23817e+9 
           2970      2.20428e+9 
           2990      2.15193e+9 
           3010      2.06492e+9 
           3030      2.05581e+9 
           3050      2.02889e+9 
           3070      2.00158e+9 
           3090       1.9114e+9 
           3110      1.91288e+9 
           3130      1.85998e+9 
           3150      1.83351e+9 
           3170      1.78758e+9 
           3190      1.75283e+9 
           3210      1.72813e+9 
           3230      1.68275e+9 
           3250      1.66153e+9 
           3270      1.62161e+9 
           3290      1.59016e+9 
           3310      1.56147e+9 
           3330      1.52681e+9 
           3350      1.50148e+9 
           3370      1.46908e+9 
           3390      1.44937e+9 
           3410      1.42306e+9 
           3430      1.39428e+9 
           3450       1.3629e+9 
           3470      1.33792e+9 
           3490      1.31096e+9 
           3510      1.29185e+9 
           3530      1.27547e+9 
           3550      1.25022e+9 
           3570      1.23037e+9 
           3590      1.19618e+9 
           3610      1.17713e+9 
           3630      1.15822e+9 
           3640      1.15587e+9 
           3650      1.13724e+9 
           3670      1.12471e+9 
           3690      1.09659e+9 
           3710      1.06044e+9 
           3730      1.03212e+9 
           3750      1.09275e+9 
           3770      1.08058e+9 
           3790      1.10972e+9 
           3810      1.13958e+9 
           3830      1.02336e+9 
           3850      1.13112e+9 
           3870      1.10273e+9 
           3890      9.76522e+8 
           3910      1.10068e+9 
           3930       1.0599e+9 
           3950      1.04953e+9 
           3970      9.04673e+8 
           3990      1.01972e+9 
           4010      1.00922e+9 
           4030      9.67682e+8 
           4050      9.73651e+8 
           4070      9.27831e+8 
           4090      8.85268e+8 
           4110      8.13001e+8 
           4130       8.8786e+8 
           4150      8.81489e+8 
           4170      8.78362e+8 
           4190      8.66692e+8 
           4210      8.59284e+8 
           4230      8.39745e+8 
           4250      8.15884e+8 
           4270      7.93547e+8 
           4290      7.80905e+8 
           4310      7.59336e+8 
           4330      7.23242e+8 
           4350      6.70776e+8 
           4370      7.26417e+8 
           4390      7.23586e+8 
           4410      7.14171e+8 
           4430      7.09119e+8 
           4450      6.95682e+8 
           4470      6.73124e+8 
           4490      6.76147e+8 
           4510      6.70405e+8 
           4530       6.6068e+8 
           4550      6.50917e+8 
           4570      6.39442e+8 
           4590      6.28177e+8 
           4610      6.13964e+8 
           4630       6.0672e+8 
           4650      5.84246e+8 
           4670      5.87078e+8 
           4690      5.82835e+8 
           4710      5.60133e+8 
           4730      5.65139e+8 
           4750      5.55047e+8 
           4770      5.54889e+8 
           4790      5.45405e+8 
           4810      5.33926e+8 
           4830      5.24313e+8 
           4850       5.0403e+8 
           4870      4.59362e+8 
           4890      5.03743e+8 
           4910      4.97491e+8 
           4930      4.82752e+8 
           4950      4.80166e+8 
           4970      4.78825e+8 
           4990      4.71091e+8 
           5010      4.52689e+8 
           5030      4.56422e+8 
           5050      4.46743e+8 
           5070      4.45086e+8 
           5090      4.37495e+8 
           5110       4.3073e+8 
           5130      4.22711e+8 
           5150         4.18e+8 
           5170      4.13376e+8 
           5190      4.08434e+8 
           5210       4.0146e+8 
           5230      3.97349e+8 
           5250       3.9214e+8 
           5270      3.85806e+8 
           5290      3.81574e+8 
           5310      3.75993e+8 
           5330      3.71201e+8 
           5350      3.65746e+8 
           5370      3.61629e+8 
           5390      3.56123e+8 
           5410      3.51924e+8 
           5430      3.46871e+8 
           5450      3.41958e+8 
           5470      3.37561e+8 
           5490      3.33431e+8 
           5510      3.29637e+8 
           5530      3.24682e+8 
           5550      3.21197e+8 
           5570      3.16733e+8 
           5590       3.1294e+8 
           5610      3.08629e+8 
           5630      3.05086e+8 
           5650      2.99731e+8 
           5670       2.9489e+8 
           5690      2.90284e+8 
           5710      2.88451e+8 
           5730      2.85465e+8 
           5750      2.80691e+8 
           5770      2.78851e+8 
           5790      2.75129e+8 
           5810      2.71754e+8 
           5830      2.67754e+8 
           5850      2.64913e+8 
           5870      2.55764e+8 
           5890      2.56614e+8 
           5910      2.54438e+8 
           5930      2.51032e+8 
           5950      2.47751e+8 
           5970      2.46337e+8 
           5990      2.42175e+8 
           6010      2.40076e+8 
           6030      2.36704e+8 
           6050      2.34112e+8 
           6070      2.31693e+8 
           6090      2.28924e+8 
           6110      2.26227e+8 
           6130       2.2368e+8 
           6150      2.19967e+8 
           6170      2.17702e+8 
           6190      2.15648e+8 
           6210      2.13314e+8 
           6230      2.10889e+8 
           6250      2.08017e+8 
           6270      2.05753e+8 
           6290      2.03533e+8 
           6310      2.00873e+8 
           6330        1.989e+8 
           6350      1.95939e+8 
           6370      1.94228e+8 
           6390      1.91999e+8 
           6410      1.89822e+8 
           6430      1.87869e+8 
           6450      1.85664e+8 
           6470      1.82889e+8 
           6490       1.8095e+8 
           6510      1.79253e+8 
           6530       1.7669e+8 
           6550      1.72372e+8 
           6570       1.5537e+8 
           6590      1.69878e+8 
           6610      1.69361e+8 
           6630      1.67706e+8 
           6650        1.656e+8 
           6670      1.62822e+8 
           6690      1.61126e+8 
           6710      1.60535e+8 
           6730      1.58293e+8 
           6750      1.57182e+8 
           6770      1.55491e+8 
           6790      1.52778e+8 
           6810      1.51931e+8 
           6830      1.50106e+8 
           6850      1.48813e+8 
           6870      1.47198e+8 
           6890      1.45384e+8 
           6910      1.43549e+8 
           6930      1.42565e+8 
           6950       1.4113e+8 
           6970      1.39646e+8 
           6990      1.38116e+8 
           7010      1.36654e+8 
           7030      1.35207e+8 
           7050      1.33835e+8 
           7070      1.30501e+8 
           7090       1.3107e+8 
           7110      1.28902e+8 
           7130      1.27699e+8 
           7150      1.27022e+8 
           7170      1.25735e+8 
           7190      1.24483e+8 
           7210      1.23206e+8 
           7230      1.20364e+8 
           7250      1.20353e+8 
           7270      1.19463e+8 
           7290       1.1737e+8 
           7310      1.17032e+8 
           7330      1.15826e+8 
           7350      1.14701e+8 
           7370       1.1358e+8 
           7390      1.12442e+8 
           7410      1.11321e+8 
           7430      1.10149e+8 
           7450      1.09084e+8 
           7470      1.07272e+8 
           7490      1.06847e+8 
           7510      1.05845e+8 
           7530      1.04725e+8 
           7550      1.03841e+8 
           7570      1.02826e+8 
           7590      1.01788e+8 
           7610      1.00596e+8 
           7630      9.98173e+7 
           7650       9.8839e+7 
           7670      9.79207e+7 
           7690      9.69598e+7 
           7710      9.60074e+7 
           7730      9.50195e+7 
           7750      9.42035e+7 
           7770      9.28581e+7 
           7790      9.24253e+7 
           7810      9.14955e+7 
           7830      9.06846e+7 
           7850      8.98196e+7 
           7870       8.8798e+7 
           7890      8.77795e+7 
           7910      8.72519e+7 
           7930       8.6387e+7 
           7950       8.5482e+7 
           7970      8.46799e+7 
           7990      8.38611e+7 
           8010      8.31551e+7 
           8030      8.23967e+7 
           8050      8.17088e+7 
           8070      8.09861e+7 
           8090      8.01314e+7 
           8110      7.89234e+7 
           8130      7.87806e+7 
           8150      7.79691e+7 
           8170      7.74072e+7 
           8190      7.62264e+7 
           8210      7.55872e+7 
           8230      7.48476e+7 
           8250      7.45682e+7 
           8270      7.30457e+7 
           8290      7.30939e+7 
           8310      7.25188e+7 
           8330      7.18941e+7 
           8350      7.09233e+7 
           8370      7.03643e+7 
           8390      6.99115e+7 
           8410      6.92065e+7 
           8430      6.85817e+7 
           8450      6.74607e+7 
           8470      6.71477e+7 
           8490      6.67952e+7 
           8510      6.56388e+7 
           8530      6.58543e+7 
           8550      6.37171e+7 
           8570      6.54719e+7 
