# Kurucz ODFNEW /NOVER (2003)
# teff = 7750 K (value for the effective temperature for the model. Temperatures are given in K)
# logg = 1.5 log(cm/s2) (value for Log(G) for the model.)
# meta = 0  (value for the Metallicity for the model.)
# lh = 1.25  (l/Hp where l is the  mixing length of the convective element and Hp is the pressure scale height)
# vtur = 2 km/s (Microturbulence velocity)
# alpha = 0.4  (Alpha)
#
# column 1: WAVELENGTH (ANGSTROM), Wavelength in Angstrom
# column 2: FLUX (ERG/CM2/S/A), Flux in erg/cm2/s/A
            375     7.14453e-24 
            385     1.05896e-22 
            395     8.05999e-22 
            405     5.42017e-21 
            414     2.77322e-20 
            422     1.11389e-19 
            430      4.2408e-19 
            441     2.45586e-18 
            451     1.12248e-17 
            460     4.15649e-17 
            470     1.08581e-17 
            480     3.81831e-17 
            490     1.27153e-16 
            500     4.01805e-16 
            506     1.12338e-14 
            512     3.09683e-14 
            520     7.60049e-14 
            530     2.28036e-13 
            540     6.14769e-13 
            550     9.56046e-14 
            560     2.33702e-13 
            570     5.51864e-13 
            580     1.24677e-12 
            590      2.7962e-12 
            600     6.02055e-12 
            610     1.26322e-11 
            620     2.57762e-11 
            630     5.13202e-11 
            640     9.97652e-11 
            650     1.89872e-10 
            658     3.12677e-10 
            665     4.77206e-10 
            675     8.62561e-10 
            685      1.52988e-9 
            695      2.66224e-9 
            705      4.51825e-9 
            716      8.04817e-9 
            726       1.3293e-8 
            735      2.06104e-8 
            745      3.30455e-8 
            755      5.23168e-8 
            765      8.17349e-8 
            775      1.26054e-7 
            785      1.92319e-7 
            795      2.85737e-7 
            805      4.27147e-7 
            815      6.32623e-7 
            825      9.21697e-7 
            835       1.3278e-6 
            845      1.89598e-6 
            855       2.6802e-6 
            865      3.75448e-6 
            875      5.18134e-6 
            885      7.17456e-6 
            895      9.79654e-6 
            905      1.31856e-5 
            915       0.0115337 
            925       0.0361163 
            935       0.0472471 
            945       0.0635275 
            955       0.0911396 
            965        0.121317 
            975        0.152495 
            985        0.198052 
            995         0.24429 
           1005        0.335874 
           1015        0.430658 
           1025        0.524669 
           1035        0.676634 
           1045        0.860041 
           1055         1.07807 
           1065         1.30554 
           1075         1.64638 
           1085         2.03744 
           1095         2.42978 
           1105         8.49182 
           1115         29.0796 
           1125         42.7295 
           1135         58.6314 
           1145         72.9881 
           1155         79.0326 
           1165         105.014 
           1175         118.068 
           1185         122.924 
           1195         40.4687 
           1205         42.5889 
           1215         8.96842 
           1225         49.8532 
           1235         139.582 
           1245         348.967 
           1255         783.848 
           1265         700.383 
           1275         1574.15 
           1285         2515.14 
           1295         3185.42 
           1305         1788.25 
           1315         4409.71 
           1325          5789.7 
           1335         6201.51 
           1345         8568.65 
           1355         8921.14 
           1365         9510.31 
           1375           10526 
           1385         12042.5 
           1395         14227.6 
           1405         16170.2 
           1415         16338.1 
           1425         19290.8 
           1435         19264.3 
           1442         22652.3 
           1447         25169.8 
           1455         29241.1 
           1465         29598.1 
           1475         32437.9 
           1485         36973.8 
           1495         43400.1 
           1505         48417.1 
           1512         48599.3 
           1517         42119.3 
           1525         42551.7 
           1535          115952 
           1545          584153 
           1555          485505 
           1565          406550 
           1575          771174 
           1585          961819 
           1595      1.33689e+6 
           1605      1.06489e+6 
           1615          907178 
           1625          733179 
           1635          820702 
           1645      1.15507e+6 
           1655          615567 
           1665          941815 
           1672          257942 
           1677      2.30593e+6 
           1685      2.87799e+6 
           1695      3.58736e+6 
           1705      3.55019e+6 
           1715      5.03416e+6 
           1725      5.39819e+6 
           1735      6.81354e+6 
           1745       5.9743e+6 
           1755       7.9126e+6 
           1765      5.82141e+6 
           1775       7.8337e+6 
           1785      6.49203e+6 
           1795      9.73608e+6 
           1805      7.43335e+6 
           1815      8.77454e+6 
           1825      7.01151e+6 
           1835      6.39536e+6 
           1845       6.0875e+6 
           1855      7.30013e+6 
           1865      8.17151e+6 
           1875      7.69731e+6 
           1885      8.10452e+6 
           1895      9.00242e+6 
           1905       7.7243e+6 
           1915       8.5308e+6 
           1925      8.66911e+6 
           1935      6.37876e+6 
           1945      9.52543e+6 
           1955       9.7471e+6 
           1967      1.07486e+7 
           1976      1.02254e+7 
           1984      1.01871e+7 
           1995      9.91322e+6 
           2005      9.34246e+6 
           2015       8.3517e+6 
           2025      8.01475e+6 
           2035      9.53826e+6 
           2045      1.06523e+7 
           2055      8.92976e+6 
           2065       8.7888e+6 
           2074      1.13173e+7 
           2078      1.20319e+7 
           2085      1.13689e+7 
           2095      1.06066e+7 
           2105      9.72723e+6 
           2115      9.83085e+6 
           2125      1.00522e+7 
           2135      7.39851e+6 
           2145      9.43824e+6 
           2155      9.82704e+6 
           2165      8.57828e+6 
           2175      8.77194e+6 
           2185      9.16686e+6 
           2195      1.02759e+7 
           2205      9.64522e+6 
           2215      7.88132e+6 
           2225      7.54893e+6 
           2235       9.8903e+6 
           2245      8.77536e+6 
           2255      7.40935e+6 
           2265      7.47845e+6 
           2275       8.7842e+6 
           2285      9.22049e+6 
           2295       8.2541e+6 
           2305      8.77684e+6 
           2315      8.14373e+6 
           2325      7.64104e+6 
           2335      5.24428e+6 
           2345      4.06817e+6 
           2355      6.86071e+6 
           2365      4.04404e+6 
           2375      5.62273e+6 
           2385      3.14419e+6 
           2395      4.29973e+6 
           2405      4.05725e+6 
           2415      5.22576e+6 
           2425      8.10651e+6 
           2435      7.75478e+6 
           2445       8.4206e+6 
           2455      8.32964e+6 
           2465      8.00799e+6 
           2475      7.49999e+6 
           2485      7.87717e+6 
           2495      7.51943e+6 
           2505      9.73489e+6 
           2513      7.29159e+6 
           2518      7.89665e+6 
           2525      6.30243e+6 
           2535      6.11856e+6 
           2545      6.40502e+6 
           2555      7.80464e+6 
           2565      6.73727e+6 
           2575      7.89296e+6 
           2585      7.30262e+6 
           2595      6.52197e+6 
           2605      5.70533e+6 
           2615      5.32472e+6 
           2625      7.01725e+6 
           2635      8.39109e+6 
           2645      1.20218e+7 
           2655      1.21912e+7 
           2665      9.72718e+6 
           2675      1.08118e+7 
           2685      1.04811e+7 
           2695      9.95842e+6 
           2705      1.05512e+7 
           2715      9.10389e+6 
           2725      9.24013e+6 
           2735      1.00465e+7 
           2745      5.90916e+6 
           2755      6.88236e+6 
           2765      7.68072e+6 
           2775      8.91406e+6 
           2785      6.13406e+6 
           2795      2.08035e+6 
           2805      2.71581e+6 
           2815       7.7968e+6 
           2825      1.06821e+7 
           2835      1.06833e+7 
           2845       1.0424e+7 
           2855      9.25297e+6 
           2865      1.13879e+7 
           2875       1.0935e+7 
           2885      1.13296e+7 
           2895      1.06451e+7 
           2910      1.29247e+7 
           2930      1.21068e+7 
           2950      1.21488e+7 
           2970      1.31223e+7 
           2990      1.32971e+7 
           3010      1.39039e+7 
           3030      1.37267e+7 
           3050      1.35748e+7 
           3070      1.34769e+7 
           3090      1.42329e+7 
           3110      1.36368e+7 
           3130      1.36142e+7 
           3150      1.42882e+7 
           3170      1.41265e+7 
           3190      1.30866e+7 
           3210      1.39554e+7 
           3230      1.31324e+7 
           3250      1.40052e+7 
           3270      1.43566e+7 
           3290      1.46201e+7 
           3310      1.50309e+7 
           3330      1.45081e+7 
           3350       1.4236e+7 
           3370      1.40951e+7 
           3390      1.44514e+7 
           3410      1.50234e+7 
           3430      1.53383e+7 
           3450      1.51705e+7 
           3470       1.4901e+7 
           3490      1.47093e+7 
           3510      1.53253e+7 
           3530      1.54992e+7 
           3550      1.59848e+7 
           3570      1.51751e+7 
           3590      1.52351e+7 
           3610       1.5381e+7 
           3630      1.55859e+7 
           3640      1.52274e+7 
           3650      1.59678e+7 
           3670      1.57512e+7 
           3690      1.66995e+7 
           3710      2.16215e+7 
           3730      2.88621e+7 
           3750      4.47066e+7 
           3770      4.68655e+7 
           3790      5.81167e+7 
           3810      6.48476e+7 
           3830      5.09329e+7 
           3850      6.68874e+7 
           3870      7.12337e+7 
           3890      4.79821e+7 
           3910      6.67281e+7 
           3930      4.14198e+7 
           3950      6.23629e+7 
           3970      3.61864e+7 
           3990      6.68691e+7 
           4010      6.88441e+7 
           4030      6.73297e+7 
           4050      6.69282e+7 
           4070       6.5492e+7 
           4090      6.16393e+7 
           4110      4.81302e+7 
           4130      6.35278e+7 
           4150      6.48747e+7 
           4170      6.24015e+7 
           4190      6.22257e+7 
           4210      6.17698e+7 
           4230      6.04775e+7 
           4250      6.02996e+7 
           4270      5.83807e+7 
           4290      5.86298e+7 
           4310      5.49171e+7 
           4330      4.99864e+7 
           4350      4.30394e+7 
           4370      5.65363e+7 
           4390       5.4871e+7 
           4410      5.34311e+7 
           4430      5.34738e+7 
           4450      5.37647e+7 
           4470      5.35241e+7 
           4490      5.29997e+7 
           4510      5.35809e+7 
           4530      5.13721e+7 
           4550      5.02245e+7 
           4570      5.19036e+7 
           4590      4.97732e+7 
           4610      5.15173e+7 
           4630      4.95636e+7 
           4650      5.01313e+7 
           4670      4.96579e+7 
           4690      4.82933e+7 
           4710      4.65255e+7 
           4730      4.80541e+7 
           4750      4.80844e+7 
           4770      4.69453e+7 
           4790      4.65442e+7 
           4810      4.58421e+7 
           4830       4.5242e+7 
           4850      3.92129e+7 
           4870      3.14162e+7 
           4890      4.32941e+7 
           4910      4.33968e+7 
           4930      4.23371e+7 
           4950      4.28029e+7 
           4970      4.29242e+7 
           4990      4.11738e+7 
           5010      3.93538e+7 
           5030       4.0255e+7 
           5050      3.97817e+7 
           5070      4.00899e+7 
           5090      3.96824e+7 
           5110      3.93709e+7 
           5130      3.83072e+7 
           5150      3.75969e+7 
           5170      3.67302e+7 
           5190      3.62742e+7 
           5210      3.63488e+7 
           5230      3.58096e+7 
           5250      3.62726e+7 
           5270      3.40825e+7 
           5290      3.55108e+7 
           5310      3.46038e+7 
           5330      3.36497e+7 
           5350      3.47148e+7 
           5370      3.42398e+7 
           5390      3.36114e+7 
           5410      3.29747e+7 
           5430       3.2782e+7 
           5450      3.30949e+7 
           5470      3.26946e+7 
           5490      3.23444e+7 
           5510       3.2002e+7 
           5530      3.16971e+7 
           5550      3.17613e+7 
           5570      3.12641e+7 
           5590      3.08744e+7 
           5610      3.07588e+7 
           5630      3.06405e+7 
           5650      3.00723e+7 
           5670      2.96519e+7 
           5690      2.96812e+7 
           5710      2.93985e+7 
           5730      2.93807e+7 
           5750      2.89032e+7 
           5770      2.87428e+7 
           5790      2.83917e+7 
           5810      2.81765e+7 
           5830      2.79225e+7 
           5850      2.76483e+7 
           5870      2.74165e+7 
           5890      2.67702e+7 
           5910       2.6887e+7 
           5930      2.66395e+7 
           5950      2.62862e+7 
           5970      2.61674e+7 
           5990       2.5741e+7 
           6010      2.55084e+7 
           6030      2.53892e+7 
           6050      2.50837e+7 
           6070      2.50118e+7 
           6090      2.47106e+7 
           6110      2.44038e+7 
           6130      2.40232e+7 
           6150      2.33493e+7 
           6170      2.35089e+7 
           6190      2.36512e+7 
           6210      2.34376e+7 
           6230      2.30757e+7 
           6250      2.23574e+7 
           6270      2.28704e+7 
           6290        2.267e+7 
           6310      2.22313e+7 
           6330      2.21719e+7 
           6350      2.17363e+7 
           6370      2.16176e+7 
           6390      2.16043e+7 
           6410       2.1246e+7 
           6430      2.11942e+7 
           6450       2.0622e+7 
           6470      2.08367e+7 
           6490       2.0356e+7 
           6510      2.03209e+7 
           6530      2.01366e+7 
           6550      1.83665e+7 
           6570      1.44714e+7 
           6590      1.93595e+7 
           6610      1.95055e+7 
           6630      1.95089e+7 
           6650      1.93764e+7 
           6670      1.91773e+7 
           6690      1.90435e+7 
           6710      1.88833e+7 
           6730      1.86681e+7 
           6750       1.8451e+7 
           6770       1.8467e+7 
           6790      1.82612e+7 
           6810      1.81508e+7 
           6830      1.79179e+7 
           6850       1.7811e+7 
           6870      1.77074e+7 
           6890      1.75627e+7 
           6910      1.74131e+7 
           6930        1.725e+7 
           6950      1.71306e+7 
           6970      1.69696e+7 
           6990      1.68564e+7 
           7010      1.64966e+7 
           7030       1.6547e+7 
           7050      1.64381e+7 
           7070      1.63166e+7 
           7090      1.61984e+7 
           7110      1.57773e+7 
           7130      1.58519e+7 
           7150      1.57059e+7 
           7170       1.5611e+7 
           7190      1.54646e+7 
           7210      1.53463e+7 
           7230      1.52053e+7 
           7250      1.50656e+7 
           7270      1.50398e+7 
           7290      1.48419e+7 
           7310      1.47213e+7 
           7330      1.46334e+7 
           7350      1.45489e+7 
           7370      1.44944e+7 
           7390      1.43339e+7 
           7410      1.41386e+7 
           7430      1.39794e+7 
           7450      1.39248e+7 
           7470      1.37551e+7 
           7490      1.37187e+7 
           7510      1.36404e+7 
           7530      1.35813e+7 
           7550      1.35293e+7 
           7570      1.33606e+7 
           7590      1.33145e+7 
           7610      1.32133e+7 
           7630      1.31196e+7 
           7650      1.29622e+7 
           7670      1.28441e+7 
           7690      1.27602e+7 
           7710      1.26516e+7 
           7730      1.26178e+7 
           7750      1.25113e+7 
           7770      1.21069e+7 
           7790      1.23621e+7 
           7810      1.22488e+7 
           7830      1.21255e+7 
           7850      1.19812e+7 
           7870       1.1901e+7 
           7890      1.17693e+7 
           7910      1.17327e+7 
           7930      1.16197e+7 
           7950      1.14773e+7 
           7970      1.15573e+7 
           7990      1.12676e+7 
           8010      1.13706e+7 
           8030      1.12667e+7 
           8050      1.12061e+7 
           8070      1.11165e+7 
           8090      1.10415e+7 
           8110      1.09727e+7 
           8130       1.0912e+7 
           8150      1.08335e+7 
           8170      1.07552e+7 
           8190       1.0528e+7 
           8210      1.04567e+7 
           8230      1.03792e+7 
           8250      1.03511e+7 
           8270      1.04245e+7 
           8290      1.03271e+7 
           8310      1.02125e+7 
           8330      1.00213e+7 
           8350      1.00598e+7 
           8370      9.84509e+6 
           8390      9.80356e+6 
           8410      9.72769e+6 
           8430      9.91166e+6 
           8450      9.67485e+6 
           8470      9.37768e+6 
           8490       1.0185e+7 
           8510      8.99634e+6 
           8530      1.03511e+7 
           8550      8.17027e+6 
           8570      1.06979e+7 
           8590      9.93235e+6 
           8610      9.60524e+6 
           8630      1.09584e+7 
           8650      1.06434e+7 
           8670      8.06895e+6 
           8690       1.0613e+7 
           8710      1.10634e+7 
           8730      1.07617e+7 
           8750      8.49828e+6 
           8770      1.04364e+7 
           8790       1.0823e+7 
           8810      1.07142e+7 
           8830      1.04478e+7 
           8850      9.85757e+6 
           8870       8.2517e+6 
           8890      1.02429e+7 
           8910      1.03156e+7 
           8930      1.02288e+7 
           8950      1.02819e+7 
           8970      1.01654e+7 
           8990      9.94635e+6 
           9010      8.14343e+6 
           9030       9.0305e+6 
           9050      9.83514e+6 
           9070      9.58299e+6 
           9090      9.44968e+6 
           9110      9.60933e+6 
           9130      9.62693e+6 
           9150      9.61414e+6 
           9170      9.50326e+6 
           9190      9.34953e+6 
           9210      8.99497e+6 
           9230      7.10274e+6 
           9250      8.63379e+6 
           9270      8.81534e+6 
           9290       9.1214e+6 
           9310      9.08486e+6 
           9330      8.98709e+6 
           9350      8.96334e+6 
           9370      8.91825e+6 
           9390       8.7769e+6 
           9410      8.46777e+6 
           9430       8.5988e+6 
           9450      8.60336e+6 
           9470      8.58933e+6 
