# Kurucz ODFNEW /NOVER (2003)
# teff = 20000 K (value for the effective temperature for the model. Temperatures are given in K)
# logg = 3.5 log(cm/s2) (value for Log(G) for the model.)
# meta = 0.2  (value for the Metallicity for the model.)
# lh = 1.25  (l/Hp where l is the  mixing length of the convective element and Hp is the pressure scale height)
# vtur = 2 km/s (Microturbulence velocity)
# alpha = 0  (Alpha)
#
# column 1: WAVELENGTH (ANGSTROM), Wavelength in Angstrom
# column 2: FLUX (ERG/CM2/S/A), Flux in erg/cm2/s/A
          147.2     2.87348e-20 
            151     1.71834e-19 
          155.2     1.12473e-18 
          158.8     5.21902e-18 
            162     1.93576e-17 
            166     9.31584e-17 
          170.3     4.65786e-16 
          173.4      1.4241e-15 
          176.8     4.63731e-15 
          180.2     1.44719e-14 
          181.7     2.35977e-14 
          186.1     9.50591e-14 
            191     4.17964e-13 
          193.9     9.70531e-13 
          198.4     3.42614e-12 
          201.8     8.58083e-12 
            205     1.98356e-11 
          210.5     7.91195e-11 
          216.2     3.09145e-10 
          219.8     7.06001e-10 
            223      1.43937e-9 
          226.8      3.27057e-9 
            230      4.46257e-8 
            234      1.16137e-7 
            240      3.53687e-7 
          246.5      1.10621e-6 
          252.4      2.98642e-6 
          256.8      5.91319e-6 
            260      1.00502e-5 
            264        1.839e-5 
          268.5      3.54644e-5 
          273.5       7.1521e-5 
          278.5     0.000141673 
            284     0.000295453 
            290     0.000626688 
            296      0.00128804 
            301      0.00229528 
            308      0.00498631 
            318       0.0145947 
            328       0.0385225 
            338       0.0989144 
            348        0.236355 
            357        0.545634 
            366         1.11655 
            375          2.1338 
            385         4.28947 
            395          8.3338 
            405         15.5487 
            414         26.7036 
            422         41.8374 
            430           65.13 
            441         116.023 
            451         190.549 
            460         290.737 
            470         460.091 
            480         708.461 
            490         1077.52 
            500         1605.32 
            506         10680.7 
            512          123130 
            520          155526 
            530          219117 
            540          252057 
            550          395199 
            560          485003 
            570          638318 
            580          631783 
            590          893296 
            600      1.13877e+6 
            610      1.44627e+6 
            620      1.67431e+6 
            630      1.95987e+6 
            640      2.06373e+6 
            650      1.83362e+6 
            658      2.80273e+6 
            665      3.20858e+6 
            675      3.55806e+6 
            685       3.9088e+6 
            695      4.95697e+6 
            705      5.40902e+6 
            716      6.27804e+6 
            726      6.89265e+6 
            735      7.47566e+6 
            745      8.75466e+6 
            755      9.80643e+6 
            765      1.09712e+7 
            775      1.22623e+7 
            785      1.35487e+7 
            795      1.45995e+7 
            805      1.57999e+7 
            815      1.69936e+7 
            825      1.89847e+7 
            835      1.86634e+7 
            845      2.12518e+7 
            855      2.27406e+7 
            865      2.49211e+7 
            875      2.73395e+7 
            885      3.03062e+7 
            895      3.25891e+7 
            905      3.26599e+7 
            915      6.17814e+7 
            925      5.57901e+8 
            935      1.69976e+9 
            945      3.95264e+9 
            955      5.90152e+9 
            965      6.42713e+9 
            975      8.28339e+8 
            985      4.97012e+9 
            995      5.83954e+9 
           1005      7.90888e+9 
           1015      7.91105e+9 
           1025      3.48167e+9 
           1035      4.92248e+9 
           1045     1.03057e+10 
           1055      9.62754e+9 
           1065       7.1126e+9 
           1075      9.10084e+9 
           1085      7.55011e+9 
           1095      9.32315e+9 
           1105      7.84667e+9 
           1115      7.01263e+9 
           1125      5.98243e+9 
           1135      8.78346e+9 
           1145      7.68186e+9 
           1155      8.20374e+9 
           1165      8.30527e+9 
           1175      4.90673e+9 
           1185      8.29289e+9 
           1195      6.14628e+9 
           1205      2.70841e+9 
           1215      2.61374e+9 
           1225      6.41579e+9 
           1235      8.46763e+9 
           1245       8.4386e+9 
           1255      8.25275e+9 
           1265      7.88243e+9 
           1275      8.34697e+9 
           1285      8.46123e+9 
           1295       4.6366e+9 
           1305      4.78481e+9 
           1315      8.00244e+9 
           1325      7.37955e+9 
           1335      6.43128e+9 
           1345      7.61008e+9 
           1355      7.32704e+9 
           1365      6.33084e+9 
           1375       6.3443e+9 
           1385      6.29151e+9 
           1395      4.74661e+9 
           1405      5.18254e+9 
           1415      5.41775e+9 
           1425      5.62193e+9 
           1435      5.76467e+9 
           1442       5.9969e+9 
           1447      5.86809e+9 
           1455      5.69002e+9 
           1465      5.14693e+9 
           1475      5.29988e+9 
           1485      5.24104e+9 
           1495      5.15026e+9 
           1505      4.63247e+9 
           1512      4.02775e+9 
           1517      4.25286e+9 
           1525      4.45409e+9 
           1535      3.77013e+9 
           1545      3.77814e+9 
           1555      3.66302e+9 
           1565      3.88646e+9 
           1575      4.15741e+9 
           1585      4.25057e+9 
           1595      4.21047e+9 
           1605      4.29842e+9 
           1615      4.29677e+9 
           1625      4.09981e+9 
           1635      4.43342e+9 
           1645      4.40669e+9 
           1655      4.20024e+9 
           1665      4.50503e+9 
           1672      4.28924e+9 
           1677      4.50736e+9 
           1685      4.54176e+9 
           1695      4.21388e+9 
           1705      4.05742e+9 
           1715      3.76765e+9 
           1725      3.74878e+9 
           1735       4.0043e+9 
           1745      3.82974e+9 
           1755      3.95012e+9 
           1765      3.75856e+9 
           1775      3.60417e+9 
           1785      3.70744e+9 
           1795      3.92219e+9 
           1805      3.97968e+9 
           1815      3.39948e+9 
           1825      3.63493e+9 
           1835      3.44941e+9 
           1845      3.12338e+9 
           1855      2.98809e+9 
           1865      3.08177e+9 
           1875      3.46454e+9 
           1885      3.01152e+9 
           1895      2.77672e+9 
           1905      3.11929e+9 
           1915      2.82237e+9 
           1925      2.71962e+9 
           1935      2.92883e+9 
           1945      2.96661e+9 
           1955      2.67001e+9 
           1967      2.99497e+9 
           1976      3.10688e+9 
           1984      2.86558e+9 
           1995      2.79166e+9 
           2005       2.9649e+9 
           2015      2.84953e+9 
           2025      3.02293e+9 
           2035      2.70474e+9 
           2045      2.81032e+9 
           2055      2.70194e+9 
           2065      2.68918e+9 
           2074      2.90367e+9 
           2078      2.53149e+9 
           2085      2.74174e+9 
           2095      2.56121e+9 
           2105      2.64534e+9 
           2115      2.66906e+9 
           2125      2.69397e+9 
           2135      2.61871e+9 
           2145      2.49356e+9 
           2155      2.62817e+9 
           2165      2.61528e+9 
           2175      2.58874e+9 
           2185      2.46449e+9 
           2195      2.54303e+9 
           2205      2.51141e+9 
           2215      2.43796e+9 
           2225      2.35666e+9 
           2235      2.39128e+9 
           2245       2.3973e+9 
           2255      2.28244e+9 
           2265      2.35559e+9 
           2275      2.33886e+9 
           2285      2.35689e+9 
           2295      2.18491e+9 
           2305      2.24952e+9 
           2315      2.15378e+9 
           2325      2.11746e+9 
           2335      2.01845e+9 
           2345      2.02641e+9 
           2355      2.04891e+9 
           2365      2.00124e+9 
           2375      1.99057e+9 
           2385      1.94556e+9 
           2395      1.98577e+9 
           2405      1.90044e+9 
           2415      1.92356e+9 
           2425      1.93463e+9 
           2435      1.85079e+9 
           2445      1.89391e+9 
           2455       1.8917e+9 
           2465      1.84675e+9 
           2475      1.80775e+9 
           2485      1.82538e+9 
           2495       1.6964e+9 
           2505       1.7925e+9 
           2513      1.68274e+9 
           2518      1.76555e+9 
           2525      1.70348e+9 
           2535      1.68578e+9 
           2545      1.62155e+9 
           2555      1.67785e+9 
           2565      1.65334e+9 
           2575      1.68473e+9 
           2585      1.66895e+9 
           2595      1.65639e+9 
           2605      1.63821e+9 
           2615       1.6192e+9 
           2625      1.60738e+9 
           2635      1.60106e+9 
           2645       1.6096e+9 
           2655      1.60744e+9 
           2665      1.53827e+9 
           2675       1.5608e+9 
           2685      1.54716e+9 
           2695      1.49695e+9 
           2705      1.48215e+9 
           2715      1.47084e+9 
           2725      1.45738e+9 
           2735      1.46814e+9 
           2745      1.40007e+9 
           2755       1.4001e+9 
           2765      1.39748e+9 
           2775      1.41737e+9 
           2785      1.39701e+9 
           2795      1.34078e+9 
           2805      1.36557e+9 
           2815      1.36677e+9 
           2825      1.34805e+9 
           2835      1.28362e+9 
           2845      1.29262e+9 
           2855      1.28585e+9 
           2865      1.30103e+9 
           2875      1.28119e+9 
           2885      1.27129e+9 
           2895      1.25416e+9 
           2910      1.24051e+9 
           2930      1.21564e+9 
           2950      1.18121e+9 
           2970      1.16975e+9 
           2990      1.14455e+9 
           3010      1.11658e+9 
           3030       1.1142e+9 
           3050      1.09214e+9 
           3070      1.07316e+9 
           3090      1.04243e+9 
           3110      1.02984e+9 
           3130      1.01168e+9 
           3150      9.94399e+8 
           3170      9.69594e+8 
           3190      9.46479e+8 
           3210      9.38122e+8 
           3230      9.21268e+8 
           3250      9.06861e+8 
           3270      8.89813e+8 
           3290      8.73319e+8 
           3310      8.60081e+8 
           3330       8.4353e+8 
           3350      8.27546e+8 
           3370      8.13639e+8 
           3390      8.00953e+8 
           3410      7.87632e+8 
           3430      7.69444e+8 
           3450      7.53744e+8 
           3470      7.42483e+8 
           3490      7.29668e+8 
           3510      7.20245e+8 
           3530      7.10867e+8 
           3550      6.99113e+8 
           3570      6.90178e+8 
           3590      6.71314e+8 
           3610      6.59878e+8 
           3630       6.5217e+8 
           3640      6.51634e+8 
           3650      6.38284e+8 
           3670      6.31318e+8 
           3690      6.12707e+8 
           3710      5.99413e+8 
           3730      5.90402e+8 
           3750      6.56587e+8 
           3770      6.62283e+8 
           3790      6.93866e+8 
           3810      7.24153e+8 
           3830      6.32193e+8 
           3850      7.34854e+8 
           3870      7.28461e+8 
           3890      6.02136e+8 
           3910      7.26717e+8 
           3930      6.98533e+8 
           3950      6.99083e+8 
           3970      5.59062e+8 
           3990      6.72335e+8 
           4010        6.678e+8 
           4030      6.31381e+8 
           4050      6.48863e+8 
           4070      6.24012e+8 
           4090      5.90246e+8 
           4110       5.2091e+8 
           4130      5.91259e+8 
           4150       5.8728e+8 
           4170         5.84e+8 
           4190      5.79833e+8 
           4210      5.73976e+8 
           4230      5.61802e+8 
           4250      5.49498e+8 
           4270      5.32523e+8 
           4290      5.30743e+8 
           4310       5.1729e+8 
           4330      4.77399e+8 
           4350      4.35571e+8 
           4370      4.90794e+8 
           4390      4.82638e+8 
           4410      4.83171e+8 
           4430      4.75305e+8 
           4450      4.71823e+8 
           4470      4.48982e+8 
           4490      4.54708e+8 
           4510       4.5287e+8 
           4530      4.43758e+8 
           4550      4.38391e+8 
           4570      4.31784e+8 
           4590      4.25258e+8 
           4610      4.16116e+8 
           4630      4.09383e+8 
           4650      4.01113e+8 
           4670       3.9917e+8 
           4690      3.95842e+8 
           4710      3.80311e+8 
           4730      3.79291e+8 
           4750      3.73999e+8 
           4770      3.74496e+8 
           4790      3.67516e+8 
           4810      3.59516e+8 
           4830      3.54139e+8 
           4850      3.33047e+8 
           4870      2.96562e+8 
           4890      3.40082e+8 
           4910      3.36474e+8 
           4930      3.24526e+8 
           4950      3.27198e+8 
           4970      3.24159e+8 
           4990       3.1866e+8 
           5010      3.04624e+8 
           5030      3.08654e+8 
           5050      3.00172e+8 
           5070       3.0118e+8 
           5090      2.96753e+8 
           5110      2.91635e+8 
           5130      2.84871e+8 
           5150      2.81952e+8 
           5170      2.81058e+8 
           5190      2.77385e+8 
           5210      2.70832e+8 
           5230      2.69743e+8 
           5250      2.66448e+8 
           5270      2.62286e+8 
           5290      2.59781e+8 
           5310      2.55917e+8 
           5330      2.52277e+8 
           5350      2.48222e+8 
           5370      2.46468e+8 
           5390      2.43112e+8 
           5410      2.39967e+8 
           5430      2.35941e+8 
           5450      2.33172e+8 
           5470       2.3001e+8 
           5490      2.27662e+8 
           5510      2.24908e+8 
           5530      2.21756e+8 
           5550      2.19488e+8 
           5570      2.16421e+8 
           5590      2.14056e+8 
           5610      2.10928e+8 
           5630      2.08933e+8 
           5650      2.03928e+8 
           5670      2.01226e+8 
           5690      1.99244e+8 
           5710      1.98035e+8 
           5730      1.95772e+8 
           5750      1.93125e+8 
           5770      1.91381e+8 
           5790      1.88915e+8 
           5810      1.86601e+8 
           5830      1.84048e+8 
           5850      1.82054e+8 
           5870      1.74835e+8 
           5890      1.75833e+8 
           5910       1.7513e+8 
           5930      1.72954e+8 
           5950      1.70293e+8 
           5970      1.69482e+8 
           5990       1.6684e+8 
           6010      1.65491e+8 
           6030      1.63297e+8 
           6050      1.61509e+8 
           6070      1.59741e+8 
           6090      1.57749e+8 
           6110      1.56042e+8 
           6130      1.54343e+8 
           6150      1.51469e+8 
           6170      1.50459e+8 
           6190      1.48996e+8 
           6210      1.47325e+8 
           6230      1.45614e+8 
           6250      1.43449e+8 
           6270      1.42152e+8 
           6290      1.40602e+8 
           6310      1.38813e+8 
           6330      1.37542e+8 
           6350      1.35164e+8 
           6370       1.3401e+8 
           6390      1.32785e+8 
           6410      1.31325e+8 
           6430      1.30118e+8 
           6450      1.28533e+8 
           6470      1.26804e+8 
           6490      1.25514e+8 
           6510      1.24175e+8 
           6530      1.22452e+8 
           6550      1.17772e+8 
           6570      1.03859e+8 
           6590      1.16997e+8 
           6610      1.17488e+8 
           6630      1.16438e+8 
           6650      1.15253e+8 
           6670      1.13005e+8 
           6690       1.1185e+8 
           6710      1.11628e+8 
           6730        1.103e+8 
           6750      1.09317e+8 
           6770      1.08187e+8 
           6790      1.06047e+8 
           6810      1.05685e+8 
           6830      1.04623e+8 
           6850      1.03651e+8 
           6870      1.02578e+8 
           6890      1.01467e+8 
           6910      1.00399e+8 
           6930      9.92795e+7 
           6950      9.83891e+7 
           6970      9.73988e+7 
           6990      9.63488e+7 
           7010      9.53551e+7 
           7030      9.43788e+7 
           7050       9.3306e+7 
           7070       9.0887e+7 
           7090      9.15366e+7 
           7110      8.98524e+7 
           7130      8.90304e+7 
           7150      8.87098e+7 
           7170      8.78785e+7 
           7190      8.70478e+7 
           7210      8.61742e+7 
           7230      8.39252e+7 
           7250      8.43444e+7 
           7270      8.36101e+7 
           7290      8.21099e+7 
           7310      8.19503e+7 
           7330      8.11461e+7 
           7350      8.03773e+7 
           7370      7.95949e+7 
           7390      7.88128e+7 
           7410      7.80449e+7 
           7430      7.71886e+7 
           7450      7.65032e+7 
           7470      7.55877e+7 
           7490      7.49966e+7 
           7510      7.42503e+7 
           7530      7.35441e+7 
           7550      7.29039e+7 
           7570      7.22167e+7 
           7590      7.14901e+7 
           7610      7.08351e+7 
           7630        7.016e+7 
           7650       6.9504e+7 
           7670      6.88538e+7 
           7690      6.81904e+7 
           7710      6.75518e+7 
           7730      6.69064e+7 
           7750      6.62918e+7 
           7770      6.51273e+7 
           7790      6.50665e+7 
           7810      6.44125e+7 
           7830      6.38749e+7 
           7850      6.31647e+7 
           7870      6.26008e+7 
           7890      6.18542e+7 
           7910      6.15117e+7 
           7930      6.09022e+7 
           7950      6.01551e+7 
           7970      5.97112e+7 
           7990      5.89819e+7 
           8010      5.86501e+7 
           8030        5.812e+7 
           8050      5.76153e+7 
           8070      5.71571e+7 
           8090      5.65191e+7 
           8110      5.60282e+7 
           8130      5.56486e+7 
           8150      5.50627e+7 
           8170      5.47122e+7 
           8190       5.4083e+7 
           8210      5.33755e+7 
           8230      5.29345e+7 
           8250      5.26882e+7 
           8270       5.1874e+7 
           8290      5.16832e+7 
           8310      5.12438e+7 
           8330       5.0821e+7 
           8350      5.01153e+7 
           8370       4.9761e+7 
           8390      4.94481e+7 
           8410      4.89761e+7 
           8430      4.84662e+7 
           8450       4.7558e+7 
           8470      4.73736e+7 
           8490      4.72834e+7 
           8510       4.6264e+7 
           8530      4.67551e+7 
           8550      4.46566e+7 
           8570       4.6768e+7 
