# Kurucz ODFNEW /NOVER (2003)
# teff = 24000 K (value for the effective temperature for the model. Temperatures are given in K)
# logg = 3.5 log(cm/s2) (value for Log(G) for the model.)
# meta = 0.5  (value for the Metallicity for the model.)
# lh = 1.25  (l/Hp where l is the  mixing length of the convective element and Hp is the pressure scale height)
# vtur = 2 km/s (Microturbulence velocity)
# alpha = 0.4  (Alpha)
#
# column 1: WAVELENGTH (ANGSTROM), Wavelength in Angstrom
# column 2: FLUX (ERG/CM2/S/A), Flux in erg/cm2/s/A
          147.2     1.00618e-15 
            151     4.58879e-15 
          155.2     2.26065e-14 
          158.8     8.32011e-14 
            162     2.53163e-13 
            166     9.60717e-13 
          170.3      3.7439e-12 
          173.4      9.7053e-12 
          176.8     2.64087e-11 
          180.2     6.93373e-11 
          181.7     1.04843e-10 
          186.1     3.42049e-10 
            191      1.20389e-9 
          193.9      2.46045e-9 
          198.4      7.17414e-9 
          201.8      1.56295e-8 
            205      3.18004e-8 
          210.5      1.02926e-7 
          216.2      3.27344e-7 
          219.8      6.60173e-7 
            223       1.2096e-6 
          226.8      2.44487e-6 
            230      3.40239e-5 
            234      8.00781e-5 
            240     0.000205481 
          246.5     0.000543057 
          252.4       0.0012713 
          256.8      0.00226508 
            260      0.00371129 
            264      0.00606693 
          268.5       0.0107878 
          273.5       0.0197314 
          278.5       0.0353647 
            284       0.0718045 
            290         0.13577 
            296        0.252251 
            301        0.412568 
            308        0.866131 
            318         2.21528 
            328         5.01797 
            338         11.5894 
            348         24.6207 
            357         213.421 
            366         548.856 
            375         856.626 
            385         1535.33 
            395         3960.58 
            405         6175.58 
            414         9979.83 
            422         15212.5 
            430         22546.7 
            441         34933.7 
            451         48004.1 
            460         63784.1 
            470         93517.2 
            480          129954 
            490          180174 
            500          238485 
            506      1.00495e+6 
            512      1.44386e+7 
            520      1.55178e+7 
            530      1.76589e+7 
            540      1.75626e+7 
            550      3.13377e+7 
            560      3.90088e+7 
            570      4.65537e+7 
            580      4.18624e+7 
            590      6.01901e+7 
            600      6.40137e+7 
            610      8.02704e+7 
            620      8.70417e+7 
            630       9.0211e+7 
            640      7.43884e+7 
            650      4.71086e+7 
            658      8.22722e+7 
            665       1.1032e+8 
            675       1.1465e+8 
            685      1.09287e+8 
            695      1.67796e+8 
            705      1.58196e+8 
            716      1.89755e+8 
            726       1.8317e+8 
            735      2.05706e+8 
            745      2.39915e+8 
            755      2.53144e+8 
            765      2.73529e+8 
            775      2.94716e+8 
            785      3.16655e+8 
            795      3.19188e+8 
            805      3.29934e+8 
            815      3.36429e+8 
            825       3.7392e+8 
            835      2.62669e+8 
            845      3.71303e+8 
            855      3.72254e+8 
            865      3.99863e+8 
            875      4.25445e+8 
            885      4.67145e+8 
            895       4.8931e+8 
            905      4.64527e+8 
            915      7.55956e+8 
            925      6.46929e+9 
            935     1.21539e+10 
            945     1.76201e+10 
            955     2.04771e+10 
            965     1.91272e+10 
            975      2.94068e+9 
            985     1.12169e+10 
            995     1.44778e+10 
           1005     1.95477e+10 
           1015     2.09686e+10 
           1025     1.50921e+10 
           1035     1.61984e+10 
           1045      2.6654e+10 
           1055     2.39159e+10 
           1065     1.65864e+10 
           1075     2.09192e+10 
           1085     1.90354e+10 
           1095     2.20157e+10 
           1105     1.82388e+10 
           1115     1.54916e+10 
           1125     1.04703e+10 
           1135     1.90472e+10 
           1145     1.74809e+10 
           1155     1.78923e+10 
           1165     1.76886e+10 
           1175      8.10857e+9 
           1185     1.63285e+10 
           1195     1.41762e+10 
           1205      5.65707e+9 
           1215      9.79807e+9 
           1225     1.48658e+10 
           1235     1.77674e+10 
           1245     1.67817e+10 
           1255     1.66643e+10 
           1265     1.72567e+10 
           1275     1.80251e+10 
           1285     1.79546e+10 
           1295      8.82145e+9 
           1305     1.05131e+10 
           1315     1.75663e+10 
           1325     1.62449e+10 
           1335     1.57179e+10 
           1345     1.61086e+10 
           1355     1.58827e+10 
           1365     1.38247e+10 
           1375     1.30357e+10 
           1385     1.13015e+10 
           1395      5.42534e+9 
           1405      7.05471e+9 
           1415     1.02919e+10 
           1425     1.07977e+10 
           1435       1.161e+10 
           1442      1.2034e+10 
           1447     1.18299e+10 
           1455     1.12325e+10 
           1465      9.97035e+9 
           1475     1.06645e+10 
           1485     1.05168e+10 
           1495     1.02142e+10 
           1505       8.8666e+9 
           1512      7.87407e+9 
           1517      8.26032e+9 
           1525       8.6388e+9 
           1535      6.91958e+9 
           1545      6.42469e+9 
           1555       6.4115e+9 
           1565      7.20427e+9 
           1575      7.86346e+9 
           1585      8.05772e+9 
           1595      7.87422e+9 
           1605      8.24673e+9 
           1615      8.07371e+9 
           1625      7.82813e+9 
           1635      8.62572e+9 
           1645      8.74558e+9 
           1655      8.49195e+9 
           1665      8.78461e+9 
           1672      8.14981e+9 
           1677      9.46321e+9 
           1685      9.09519e+9 
           1695      8.40887e+9 
           1705      8.30599e+9 
           1715      7.62431e+9 
           1725      7.53592e+9 
           1735      8.03024e+9 
           1745      7.83925e+9 
           1755      7.86624e+9 
           1765      7.89539e+9 
           1775      7.11315e+9 
           1785      7.38177e+9 
           1795      7.77785e+9 
           1805      7.93751e+9 
           1815      6.73629e+9 
           1825      7.18185e+9 
           1835      6.92612e+9 
           1845      6.20337e+9 
           1855      6.36702e+9 
           1865      6.43897e+9 
           1875      6.87487e+9 
           1885      5.97629e+9 
           1895      5.54201e+9 
           1905      6.25259e+9 
           1915      5.63354e+9 
           1925      5.29884e+9 
           1935      5.84036e+9 
           1945      5.91819e+9 
           1955      5.19552e+9 
           1967      5.91974e+9 
           1976       6.1826e+9 
           1984      5.72101e+9 
           1995      5.61598e+9 
           2005      6.02613e+9 
           2015       5.8876e+9 
           2025      6.05238e+9 
           2035      5.43585e+9 
           2045      5.66964e+9 
           2055      5.30362e+9 
           2065      5.21333e+9 
           2074       5.6032e+9 
           2078      4.91091e+9 
           2085      5.42637e+9 
           2095       5.0929e+9 
           2105      5.31346e+9 
           2115      5.42259e+9 
           2125      5.41773e+9 
           2135      5.34288e+9 
           2145      5.01225e+9 
           2155      5.31953e+9 
           2165      5.33167e+9 
           2175      5.28403e+9 
           2185      5.00544e+9 
           2195      5.15228e+9 
           2205        5.196e+9 
           2215      5.06864e+9 
           2225      4.90919e+9 
           2235      4.84515e+9 
           2245      4.92751e+9 
           2255      4.71047e+9 
           2265      4.84175e+9 
           2275      4.75146e+9 
           2285      4.74438e+9 
           2295      4.01561e+9 
           2305      4.55314e+9 
           2315      4.38827e+9 
           2325       4.3644e+9 
           2335      4.18027e+9 
           2345      4.27116e+9 
           2355      4.24963e+9 
           2365      4.22704e+9 
           2375      4.12607e+9 
           2385      4.09717e+9 
           2395      4.05035e+9 
           2405      3.96704e+9 
           2415      3.94181e+9 
           2425      3.94095e+9 
           2435      3.80515e+9 
           2445      3.84511e+9 
           2455      3.85785e+9 
           2465      3.75971e+9 
           2475      3.66476e+9 
           2485      3.45053e+9 
           2495      2.42661e+9 
           2505      3.22743e+9 
           2513      3.27295e+9 
           2518      3.44096e+9 
           2525      3.42899e+9 
           2535      3.41888e+9 
           2545      3.19652e+9 
           2555      3.33838e+9 
           2565      3.26156e+9 
           2575      3.33502e+9 
           2585      3.26772e+9 
           2595      3.24901e+9 
           2605      3.22956e+9 
           2615      3.15951e+9 
           2625      3.15172e+9 
           2635      3.12632e+9 
           2645      3.09358e+9 
           2655      3.08859e+9 
           2665       2.8902e+9 
           2675      2.94524e+9 
           2685      2.94241e+9 
           2695      2.81003e+9 
           2705      2.70367e+9 
           2715      2.74267e+9 
           2725      2.77458e+9 
           2735      2.75075e+9 
           2745      2.67564e+9 
           2755      2.66876e+9 
           2765       2.6495e+9 
           2775      2.69354e+9 
           2785      2.63441e+9 
           2795       2.5095e+9 
           2805      2.56173e+9 
           2815      2.57661e+9 
           2825      2.55849e+9 
           2835      2.42849e+9 
           2845      2.46284e+9 
           2855      2.40434e+9 
           2865      2.42853e+9 
           2875      2.39589e+9 
           2885      2.36858e+9 
           2895      2.31364e+9 
           2910      2.25724e+9 
           2930      2.26203e+9 
           2950      2.19245e+9 
           2970      2.16021e+9 
           2990      2.10621e+9 
           3010      1.98982e+9 
           3030      2.00669e+9 
           3050      1.99115e+9 
           3070       1.9782e+9 
           3090      1.86544e+9 
           3110      1.88822e+9 
           3130      1.82829e+9 
           3150        1.811e+9 
           3170      1.75268e+9 
           3190      1.73158e+9 
           3210       1.7066e+9 
           3230      1.65635e+9 
           3250      1.64249e+9 
           3270      1.59839e+9 
           3290      1.56837e+9 
           3310      1.53881e+9 
           3330      1.50163e+9 
           3350      1.48114e+9 
           3370       1.4447e+9 
           3390      1.43308e+9 
           3410      1.40689e+9 
           3430      1.38073e+9 
           3450      1.34825e+9 
           3470      1.32346e+9 
           3490      1.29442e+9 
           3510      1.27326e+9 
           3530      1.26371e+9 
           3550       1.2374e+9 
           3570      1.21654e+9 
           3590      1.17768e+9 
           3610      1.15929e+9 
           3630      1.14469e+9 
           3640      1.14367e+9 
           3650      1.12429e+9 
           3670      1.11355e+9 
           3690      1.08525e+9 
           3710      1.04462e+9 
           3730      1.01696e+9 
           3750      1.07994e+9 
           3770       1.0651e+9 
           3790      1.09816e+9 
           3810      1.13083e+9 
           3830      1.00777e+9 
           3850       1.1116e+9 
           3870        1.077e+9 
           3890       9.6039e+8 
           3910      1.09211e+9 
           3930      1.04429e+9 
           3950      1.03055e+9 
           3970       8.8904e+8 
           3990      1.00592e+9 
           4010      9.98655e+8 
           4030      9.52743e+8 
           4050      9.55484e+8 
           4070       8.9863e+8 
           4090      8.56487e+8 
           4110      7.89227e+8 
           4130      8.66635e+8 
           4150      8.60686e+8 
           4170      8.63868e+8 
           4190      8.56606e+8 
           4210      8.51144e+8 
           4230      8.27744e+8 
           4250      7.98218e+8 
           4270      7.74559e+8 
           4290      7.58756e+8 
           4310      7.31593e+8 
           4330      6.95594e+8 
           4350      6.50668e+8 
           4370      7.00337e+8 
           4390      7.12952e+8 
           4410      6.98228e+8 
           4430      6.95643e+8 
           4450      6.82955e+8 
           4470      6.65054e+8 
           4490      6.67383e+8 
           4510      6.62459e+8 
           4530      6.53483e+8 
           4550       6.4655e+8 
           4570      6.34337e+8 
           4590      6.23028e+8 
           4610      6.03487e+8 
           4630      5.97195e+8 
           4650      5.72451e+8 
           4670      5.78976e+8 
           4690      5.76978e+8 
           4710       5.4991e+8 
           4730      5.58723e+8 
           4750      5.49002e+8 
           4770       5.5378e+8 
           4790      5.42367e+8 
           4810       5.2852e+8 
           4830      5.19921e+8 
           4850      4.99866e+8 
           4870      4.53373e+8 
           4890      5.00056e+8 
           4910      4.93975e+8 
           4930      4.79388e+8 
           4950      4.75953e+8 
           4970      4.77361e+8 
           4990      4.68444e+8 
           5010      4.44029e+8 
           5030      4.52193e+8 
           5050      4.41557e+8 
           5070      4.42536e+8 
           5090      4.33743e+8 
           5110      4.25464e+8 
           5130       4.1478e+8 
           5150      4.12801e+8 
           5170      4.09994e+8 
           5190      4.05371e+8 
           5210      3.96686e+8 
           5230      3.93878e+8 
           5250      3.89147e+8 
           5270       3.8137e+8 
           5290      3.78842e+8 
           5310      3.72666e+8 
           5330      3.68045e+8 
           5350      3.62218e+8 
           5370      3.58977e+8 
           5390      3.53348e+8 
           5410       3.4944e+8 
           5430      3.43689e+8 
           5450      3.38762e+8 
           5470      3.34224e+8 
           5490      3.30493e+8 
           5510      3.27627e+8 
           5530      3.21479e+8 
           5550      3.19326e+8 
           5570      3.14547e+8 
           5590      3.11216e+8 
           5610      3.06403e+8 
           5630      3.03529e+8 
           5650      2.96108e+8 
           5670      2.90824e+8 
           5690      2.86305e+8 
           5710        2.854e+8 
           5730      2.83147e+8 
           5750      2.77831e+8 
           5770      2.77187e+8 
           5790      2.73062e+8 
           5810      2.69723e+8 
           5830      2.65227e+8 
           5850      2.62745e+8 
           5870      2.53632e+8 
           5890      2.53248e+8 
           5910      2.51354e+8 
           5930      2.47958e+8 
           5950      2.44272e+8 
           5970      2.44773e+8 
           5990       2.3913e+8 
           6010       2.3824e+8 
           6030      2.34186e+8 
           6050      2.31745e+8 
           6070      2.29883e+8 
           6090      2.27156e+8 
           6110      2.24491e+8 
           6130      2.22196e+8 
           6150      2.17098e+8 
           6170      2.15297e+8 
           6190      2.13938e+8 
           6210      2.11917e+8 
           6230      2.09714e+8 
           6250      2.05963e+8 
           6270      2.04038e+8 
           6290      2.02095e+8 
           6310      1.99084e+8 
           6330      1.97668e+8 
           6350      1.94005e+8 
           6370      1.92826e+8 
           6390      1.90634e+8 
           6410      1.88538e+8 
           6430      1.86894e+8 
           6450      1.84532e+8 
           6470      1.81098e+8 
           6490      1.79366e+8 
           6510      1.77599e+8 
           6530      1.74826e+8 
           6550      1.70923e+8 
           6570      1.52603e+8 
           6590        1.681e+8 
           6610      1.67998e+8 
           6630      1.66523e+8 
           6650      1.64314e+8 
           6670       1.6156e+8 
           6690      1.59998e+8 
           6710       1.5948e+8 
           6730      1.56912e+8 
           6750      1.56281e+8 
           6770      1.54578e+8 
           6790      1.50776e+8 
           6810      1.50704e+8 
           6830      1.48797e+8 
           6850       1.4785e+8 
           6870      1.46184e+8 
           6890      1.44249e+8 
           6910      1.42161e+8 
           6930      1.41608e+8 
           6950       1.4028e+8 
           6970       1.3884e+8 
           6990      1.37206e+8 
           7010      1.35704e+8 
           7030      1.34231e+8 
           7050       1.3294e+8 
           7070      1.29385e+8 
           7090      1.30065e+8 
           7110      1.26413e+8 
           7130      1.25379e+8 
           7150      1.25909e+8 
           7170        1.249e+8 
           7190      1.23733e+8 
           7210      1.22446e+8 
           7230      1.18764e+8 
           7250      1.19378e+8 
           7270      1.18679e+8 
           7290      1.16526e+8 
           7310      1.16242e+8 
           7330      1.14949e+8 
           7350      1.13934e+8 
           7370      1.12866e+8 
           7390      1.11725e+8 
           7410      1.10614e+8 
           7430      1.09296e+8 
           7450      1.08283e+8 
           7470      1.05894e+8 
           7490      1.05921e+8 
           7510      1.05063e+8 
           7530      1.03762e+8 
           7550        1.031e+8 
           7570      1.02129e+8 
           7590      1.01016e+8 
           7610      9.97246e+7 
           7630      9.90731e+7 
           7650      9.80729e+7 
           7670      9.72291e+7 
           7690      9.62526e+7 
           7710      9.52849e+7 
           7730      9.41872e+7 
           7750      9.35449e+7 
           7770      9.16537e+7 
           7790      9.17735e+7 
           7810      9.08532e+7 
           7830      9.00455e+7 
           7850      8.90065e+7 
           7870      8.79221e+7 
           7890      8.67205e+7 
           7910      8.64029e+7 
           7930      8.55183e+7 
           7950      8.44985e+7 
           7970      8.39207e+7 
           7990      8.28756e+7 
           8010      8.24212e+7 
           8030      8.16664e+7 
           8050       8.1017e+7 
           8070      8.03382e+7 
           8090      7.95098e+7 
           8110      7.80241e+7 
           8130      7.81194e+7 
           8150      7.73735e+7 
           8170      7.68202e+7 
           8190      7.52548e+7 
           8210      7.46874e+7 
           8230      7.36407e+7 
           8250      7.38653e+7 
           8270       7.1922e+7 
           8290      7.23483e+7 
           8310      7.18205e+7 
           8330      7.13077e+7 
           8350      7.02749e+7 
           8370      6.96545e+7 
           8390      6.93067e+7 
           8410      6.85301e+7 
           8430      6.79932e+7 
           8450      6.66165e+7 
           8470      6.65648e+7 
           8490      6.61732e+7 
           8510       6.4947e+7 
           8530       6.5321e+7 
           8550      6.30266e+7 
           8570      6.49384e+7 
