# Kurucz ODFNEW /NOVER (2003)
# teff = 23000 K (value for the effective temperature for the model. Temperatures are given in K)
# logg = 4 log(cm/s2) (value for Log(G) for the model.)
# meta = 0  (value for the Metallicity for the model.)
# lh = 1.25  (l/Hp where l is the  mixing length of the convective element and Hp is the pressure scale height)
# vtur = 2 km/s (Microturbulence velocity)
# alpha = 0  (Alpha)
#
# column 1: WAVELENGTH (ANGSTROM), Wavelength in Angstrom
# column 2: FLUX (ERG/CM2/S/A), Flux in erg/cm2/s/A
          147.2     2.18341e-16 
            151     1.03893e-15 
          155.2     5.36432e-15 
          158.8     2.05579e-14 
            162     6.48596e-14 
            166     2.57583e-13 
          170.3     1.06129e-12 
          173.4     2.83391e-12 
          176.8     8.01059e-12 
          180.2     2.18413e-11 
          181.7     3.36165e-11 
          186.1     1.14966e-10 
            191     4.25182e-10 
          193.9      8.9542e-10 
          198.4      2.73178e-9 
          201.8      6.15236e-9 
            205      1.29079e-8 
          210.5      4.39039e-8 
          216.2      1.46646e-7 
          219.8      3.04545e-7 
            223      5.72181e-7 
          226.8      1.18311e-6 
            230      5.28867e-5 
            234      0.00012546 
            240     0.000318631 
          246.5     0.000831614 
          252.4      0.00192759 
          256.8      0.00336179 
            260      0.00544179 
            264      0.00899013 
          268.5       0.0155986 
          273.5       0.0280509 
          278.5       0.0498341 
            284       0.0938601 
            290        0.175665 
            296        0.321211 
            301        0.518725 
            308        0.993887 
            318         2.49197 
            328         5.56354 
            338         12.3719 
            348         25.6049 
            357         59.1096 
            366         109.102 
            375         183.445 
            385         326.698 
            395         571.909 
            405         949.213 
            414         1486.47 
            422         2139.36 
            430         3107.97 
            441            4989 
            451         7466.21 
            460         10500.4 
            470         15377.7 
            480         21892.5 
            490         30996.6 
            500         43007.4 
            506          270471 
            512      2.05722e+6 
            520       2.4663e+6 
            530      3.14822e+6 
            540      3.53345e+6 
            550      5.09338e+6 
            560      6.01962e+6 
            570      7.50235e+6 
            580      7.41846e+6 
            590      9.89561e+6 
            600      1.16158e+7 
            610       1.3999e+7 
            620      1.56337e+7 
            630      1.73899e+7 
            640      1.71745e+7 
            650      1.38012e+7 
            658      2.10534e+7 
            665      2.51982e+7 
            675      2.75131e+7 
            685      2.95065e+7 
            695      3.68209e+7 
            705      3.88929e+7 
            716      4.42194e+7 
            726      4.71802e+7 
            735       5.0006e+7 
            745      5.71415e+7 
            755      6.22462e+7 
            765       6.7914e+7 
            775      7.40507e+7 
            785      8.02275e+7 
            795      8.46177e+7 
            805      8.96733e+7 
            815      9.43149e+7 
            825      1.03389e+8 
            835      9.91662e+7 
            845      1.11474e+8 
            855      1.16762e+8 
            865      1.25703e+8 
            875      1.35389e+8 
            885      1.47079e+8 
            895      1.55432e+8 
            905      1.55926e+8 
            915      2.35125e+8 
            925      1.56706e+9 
            935      4.40453e+9 
            945     1.04874e+10 
            955     1.48048e+10 
            965     1.76765e+10 
            975      2.63058e+9 
            985     1.56547e+10 
            995     1.57442e+10 
           1005     1.91266e+10 
           1015     1.86737e+10 
           1025      7.60146e+9 
           1035     1.34567e+10 
           1045     2.29707e+10 
           1055     2.11339e+10 
           1065     1.67721e+10 
           1075     1.98307e+10 
           1085     1.73509e+10 
           1095     1.99408e+10 
           1105     1.76282e+10 
           1115     1.66898e+10 
           1125     1.38642e+10 
           1135     1.83047e+10 
           1145     1.62324e+10 
           1155     1.69624e+10 
           1165     1.69203e+10 
           1175     1.02874e+10 
           1185     1.63433e+10 
           1195     1.41625e+10 
           1205      8.43008e+9 
           1215      5.91549e+9 
           1225      1.2681e+10 
           1235     1.55859e+10 
           1245      1.5355e+10 
           1255     1.50204e+10 
           1265     1.49625e+10 
           1275     1.55109e+10 
           1285     1.53742e+10 
           1295     1.01868e+10 
           1305     1.07648e+10 
           1315     1.46929e+10 
           1325     1.36025e+10 
           1335     1.27036e+10 
           1345     1.34554e+10 
           1355     1.31751e+10 
           1365     1.18654e+10 
           1375     1.16297e+10 
           1385     1.14636e+10 
           1395      8.72874e+9 
           1405      9.40647e+9 
           1415     1.00302e+10 
           1425     1.00419e+10 
           1435     1.02977e+10 
           1442     1.05864e+10 
           1447     1.03578e+10 
           1455     1.00588e+10 
           1465      9.20134e+9 
           1475      9.37536e+9 
           1485      9.20886e+9 
           1495      9.04697e+9 
           1505      8.17186e+9 
           1512      7.21541e+9 
           1517      7.49124e+9 
           1525      7.80082e+9 
           1535      6.64682e+9 
           1545      6.58346e+9 
           1555      6.35946e+9 
           1565      6.80789e+9 
           1575      7.23442e+9 
           1585      7.24659e+9 
           1595      7.18667e+9 
           1605      7.29233e+9 
           1615      7.17342e+9 
           1625      6.98068e+9 
           1635      7.40642e+9 
           1645      7.35395e+9 
           1655      7.17691e+9 
           1665        7.422e+9 
           1672      7.09006e+9 
           1677      7.55286e+9 
           1685      7.41019e+9 
           1695      6.96622e+9 
           1705      6.70811e+9 
           1715      6.32296e+9 
           1725      6.24125e+9 
           1735      6.53358e+9 
           1745      6.32504e+9 
           1755      6.41707e+9 
           1765      6.20319e+9 
           1775      5.90056e+9 
           1785      5.99698e+9 
           1795       6.2306e+9 
           1805        6.276e+9 
           1815       5.5291e+9 
           1825      5.80496e+9 
           1835      5.57034e+9 
           1845      5.06932e+9 
           1855      5.02773e+9 
           1865      5.11335e+9 
           1875      5.45952e+9 
           1885      4.81882e+9 
           1895      4.46575e+9 
           1905      4.88852e+9 
           1915      4.54903e+9 
           1925      4.34167e+9 
           1935      4.61174e+9 
           1945      4.69121e+9 
           1955      4.23507e+9 
           1967      4.63574e+9 
           1976      4.82594e+9 
           1984      4.45212e+9 
           1995       4.3617e+9 
           2005      4.54472e+9 
           2015       4.4485e+9 
           2025      4.62673e+9 
           2035      4.18328e+9 
           2045      4.28228e+9 
           2055      4.14668e+9 
           2065      4.15379e+9 
           2074      4.38704e+9 
           2078      3.91632e+9 
           2085      4.15369e+9 
           2095      3.90796e+9 
           2105      4.03483e+9 
           2115       4.0457e+9 
           2125      4.08747e+9 
           2135      4.00414e+9 
           2145      3.78103e+9 
           2155      3.95913e+9 
           2165      3.94056e+9 
           2175      3.88864e+9 
           2185      3.74526e+9 
           2195      3.81098e+9 
           2205      3.77363e+9 
           2215      3.70116e+9 
           2225      3.59613e+9 
           2235      3.57436e+9 
           2245       3.5979e+9 
           2255      3.46426e+9 
           2265       3.5259e+9 
           2275      3.47437e+9 
           2285      3.48285e+9 
           2295       3.2422e+9 
           2305      3.35552e+9 
           2315      3.24449e+9 
           2325      3.20423e+9 
           2335      3.08495e+9 
           2345      3.09096e+9 
           2355      3.10199e+9 
           2365      3.04982e+9 
           2375      3.00542e+9 
           2385      2.97159e+9 
           2395      2.96752e+9 
           2405      2.88714e+9 
           2415      2.87633e+9 
           2425      2.88161e+9 
           2435      2.78607e+9 
           2445      2.80233e+9 
           2455      2.80668e+9 
           2465      2.74241e+9 
           2475      2.70375e+9 
           2485      2.67917e+9 
           2495      2.47043e+9 
           2505      2.61512e+9 
           2513      2.48468e+9 
           2518      2.58367e+9 
           2525      2.52848e+9 
           2535       2.4901e+9 
           2545      2.41439e+9 
           2555      2.46172e+9 
           2565      2.42366e+9 
           2575      2.43675e+9 
           2585      2.40874e+9 
           2595      2.38613e+9 
           2605      2.36679e+9 
           2615      2.33699e+9 
           2625      2.31676e+9 
           2635      2.29666e+9 
           2645      2.28821e+9 
           2655      2.27768e+9 
           2665      2.19559e+9 
           2675      2.20722e+9 
           2685      2.19598e+9 
           2695      2.12411e+9 
           2705      2.10148e+9 
           2715       2.0915e+9 
           2725      2.07151e+9 
           2735      2.07059e+9 
           2745      1.99753e+9 
           2755      1.99611e+9 
           2765      1.97978e+9 
           2775      1.99582e+9 
           2785      1.96325e+9 
           2795       1.8928e+9 
           2805      1.91366e+9 
           2815      1.91369e+9 
           2825      1.88199e+9 
           2835      1.81108e+9 
           2845      1.83477e+9 
           2855      1.81246e+9 
           2865      1.81448e+9 
           2875      1.79221e+9 
           2885      1.77442e+9 
           2895      1.74982e+9 
           2910      1.72031e+9 
           2930      1.68835e+9 
           2950      1.63986e+9 
           2970      1.62114e+9 
           2990      1.58364e+9 
           3010      1.53954e+9 
           3030      1.53061e+9 
           3050      1.50121e+9 
           3070      1.47424e+9 
           3090      1.42665e+9 
           3110      1.41253e+9 
           3130      1.38373e+9 
           3150      1.35919e+9 
           3170      1.32563e+9 
           3190      1.29477e+9 
           3210      1.28099e+9 
           3230      1.25424e+9 
           3250      1.23346e+9 
           3270      1.20887e+9 
           3290      1.18496e+9 
           3310      1.16539e+9 
           3330      1.14229e+9 
           3350      1.12037e+9 
           3370      1.10034e+9 
           3390      1.08215e+9 
           3410      1.06279e+9 
           3430      1.03778e+9 
           3450       1.0155e+9 
           3470       9.9951e+8 
           3490      9.80818e+8 
           3510      9.66065e+8 
           3530      9.53032e+8 
           3550      9.36286e+8 
           3570      9.24494e+8 
           3590       8.9835e+8 
           3610      8.83336e+8 
           3630       8.7077e+8 
           3640        8.702e+8 
           3650       8.5178e+8 
           3670      8.42354e+8 
           3690      8.23758e+8 
           3710      7.94591e+8 
           3730      7.65568e+8 
           3750      8.12289e+8 
           3770      8.13156e+8 
           3790      8.55267e+8 
           3810      8.90535e+8 
           3830      7.77939e+8 
           3850      9.08421e+8 
           3870      9.06199e+8 
           3890      7.37097e+8 
           3910      9.01133e+8 
           3930       8.7274e+8 
           3950      8.67474e+8 
           3970      6.84958e+8 
           3990      8.33556e+8 
           4010      8.30697e+8 
           4030      7.82041e+8 
           4050      8.06974e+8 
           4070      7.75751e+8 
           4090      7.23659e+8 
           4110      6.39223e+8 
           4130       7.3469e+8 
           4150      7.30819e+8 
           4170      7.26642e+8 
           4190      7.19486e+8 
           4210      7.11837e+8 
           4230      6.96805e+8 
           4250      6.81002e+8 
           4270      6.61228e+8 
           4290      6.56612e+8 
           4310      6.38972e+8 
           4330      5.83895e+8 
           4350      5.33523e+8 
           4370      6.06179e+8 
           4390      5.94628e+8 
           4410       5.9655e+8 
           4430      5.88354e+8 
           4450      5.81821e+8 
           4470       5.5072e+8 
           4490      5.61616e+8 
           4510       5.5809e+8 
           4530      5.47721e+8 
           4550      5.40223e+8 
           4570       5.3141e+8 
           4590      5.23267e+8 
           4610      5.12142e+8 
           4630      5.04194e+8 
           4650      4.92532e+8 
           4670      4.90619e+8 
           4690      4.86153e+8 
           4710      4.67802e+8 
           4730      4.66969e+8 
           4750       4.6004e+8 
           4770      4.59353e+8 
           4790      4.51256e+8 
           4810      4.41779e+8 
           4830        4.338e+8 
           4850      4.03548e+8 
           4870      3.60116e+8 
           4890      4.15579e+8 
           4910      4.11919e+8 
           4930      3.96819e+8 
           4950       4.0043e+8 
           4970      3.96665e+8 
           4990      3.90193e+8 
           5010      3.74161e+8 
           5030      3.78488e+8 
           5050      3.68642e+8 
           5070      3.68714e+8 
           5090      3.63205e+8 
           5110      3.57395e+8 
           5130      3.49589e+8 
           5150      3.45601e+8 
           5170      3.43524e+8 
           5190      3.39008e+8 
           5210      3.32552e+8 
           5230      3.29586e+8 
           5250      3.25317e+8 
           5270      3.20383e+8 
           5290      3.16727e+8 
           5310      3.12208e+8 
           5330      3.07867e+8 
           5350      3.03095e+8 
           5370      3.00227e+8 
           5390      2.96084e+8 
           5410      2.92329e+8 
           5430       2.8779e+8 
           5450      2.84109e+8 
           5470      2.80348e+8 
           5490      2.76996e+8 
           5510      2.73699e+8 
           5530      2.69813e+8 
           5550      2.66796e+8 
           5570      2.63123e+8 
           5590      2.60037e+8 
           5610      2.56391e+8 
           5630      2.53527e+8 
           5650      2.48631e+8 
           5670      2.44877e+8 
           5690      2.41808e+8 
           5710      2.40187e+8 
           5730        2.374e+8 
           5750      2.34019e+8 
           5770      2.31891e+8 
           5790      2.28898e+8 
           5810      2.26075e+8 
           5830      2.22953e+8 
           5850      2.20451e+8 
           5870        2.112e+8 
           5890      2.13069e+8 
           5910      2.12018e+8 
           5930      2.09219e+8 
           5950      2.06346e+8 
           5970      2.04987e+8 
           5990      2.01835e+8 
           6010      1.99973e+8 
           6030      1.97333e+8 
           6050      1.95124e+8 
           6070      1.92982e+8 
           6090      1.90629e+8 
           6110      1.88425e+8 
           6130      1.86305e+8 
           6150      1.83173e+8 
           6170      1.81582e+8 
           6190      1.79732e+8 
           6210      1.77697e+8 
           6230      1.75655e+8 
           6250      1.73221e+8 
           6270      1.71456e+8 
           6290      1.69558e+8 
           6310      1.67482e+8 
           6330      1.65758e+8 
           6350      1.63165e+8 
           6370      1.61668e+8 
           6390      1.60012e+8 
           6410      1.58236e+8 
           6430      1.56606e+8 
           6450      1.54749e+8 
           6470      1.52605e+8 
           6490       1.5104e+8 
           6510      1.49465e+8 
           6530       1.4719e+8 
           6550      1.40892e+8 
           6570      1.24387e+8 
           6590       1.4061e+8 
           6610      1.41114e+8 
           6630      1.39938e+8 
           6650      1.38459e+8 
           6670      1.35614e+8 
           6690      1.34207e+8 
           6710      1.34077e+8 
           6730      1.32433e+8 
           6750      1.31228e+8 
           6770      1.29829e+8 
           6790      1.27439e+8 
           6810      1.26862e+8 
           6830      1.25555e+8 
           6850      1.24325e+8 
           6870      1.23012e+8 
           6890      1.21656e+8 
           6910      1.20337e+8 
           6930      1.19095e+8 
           6950      1.17911e+8 
           6970      1.16685e+8 
           6990       1.1544e+8 
           7010       1.1423e+8 
           7030      1.13047e+8 
           7050      1.11838e+8 
           7070      1.08832e+8 
           7090      1.09583e+8 
           7110      1.07872e+8 
           7130      1.06816e+8 
           7150      1.06189e+8 
           7170      1.05136e+8 
           7190      1.04108e+8 
           7210      1.03053e+8 
           7230      1.00508e+8 
           7250      1.00872e+8 
           7270      9.99472e+7 
           7290      9.81094e+7 
           7310      9.79328e+7 
           7330      9.69504e+7 
           7350       9.6012e+7 
           7370      9.50616e+7 
           7390      9.41132e+7 
           7410      9.31805e+7 
           7430      9.22018e+7 
           7450      9.13409e+7 
           7470      9.02448e+7 
           7490      8.95352e+7 
           7510      8.86248e+7 
           7530      8.77626e+7 
           7550      8.69744e+7 
           7570      8.61342e+7 
           7590      8.52819e+7 
           7610      8.44374e+7 
           7630      8.36459e+7 
           7650       8.2855e+7 
           7670      8.20585e+7 
           7690      8.12691e+7 
           7710      8.04931e+7 
           7730      7.97114e+7 
           7750      7.89744e+7 
           7770      7.77884e+7 
           7790      7.74888e+7 
           7810      7.66971e+7 
           7830      7.60416e+7 
           7850      7.52878e+7 
           7870      7.45711e+7 
           7890      7.37154e+7 
           7910      7.32348e+7 
           7930      7.25363e+7 
           7950      7.16711e+7 
           7970      7.10569e+7 
           7990      7.02826e+7 
           8010      6.97559e+7 
           8030      6.91109e+7 
           8050      6.84889e+7 
           8070      6.79242e+7 
           8090      6.71801e+7 
           8110      6.65513e+7 
           8130      6.61103e+7 
           8150      6.54346e+7 
           8170      6.49735e+7 
           8190      6.42128e+7 
           8210      6.34421e+7 
           8230      6.29283e+7 
           8250      6.25571e+7 
           8270      6.15499e+7 
           8290      6.13793e+7 
           8310       6.0866e+7 
           8330      6.03244e+7 
           8350      5.94684e+7 
           8370      5.91092e+7 
           8390      5.87154e+7 
           8410      5.81808e+7 
           8430      5.75976e+7 
           8450      5.65338e+7 
           8470      5.64877e+7 
           8490      5.59605e+7 
           8510      5.52765e+7 
           8530      5.51004e+7 
           8550      5.36422e+7 
           8570      5.48642e+7 
           8590      5.24137e+7 
