# Kurucz ODFNEW /NOVER (2003)
# teff = 32000 K (value for the effective temperature for the model. Temperatures are given in K)
# logg = 5 log(cm/s2) (value for Log(G) for the model.)
# meta = 0.5  (value for the Metallicity for the model.)
# lh = 1.25  (l/Hp where l is the  mixing length of the convective element and Hp is the pressure scale height)
# vtur = 2 km/s (Microturbulence velocity)
# alpha = 0.4  (Alpha)
#
# column 1: WAVELENGTH (ANGSTROM), Wavelength in Angstrom
# column 2: FLUX (ERG/CM2/S/A), Flux in erg/cm2/s/A
          147.2      6.34662e-7 
            151      1.76708e-6 
          155.2      5.18555e-6 
          158.8       1.2497e-5 
            162      2.64934e-5 
            166      6.52454e-5 
          170.3     0.000163047 
          173.4     0.000311181 
          176.8     0.000612563 
          180.2      0.00117571 
          181.7      0.00156147 
          186.1      0.00346215 
            191        0.008088 
          193.9       0.0130833 
          198.4       0.0268833 
          201.8       0.0453325 
            205       0.0729802 
          210.5         0.16046 
          216.2        0.346276 
          219.8         0.55643 
            223        0.834836 
          226.8         1.50272 
            230          61.659 
            234         125.453 
            240         222.519 
          246.5         409.061 
          252.4         706.851 
          256.8         1023.54 
            260         1534.39 
            264         2122.78 
          268.5         3216.34 
          273.5         4736.88 
          278.5         6578.97 
            284         13887.7 
            290         20906.5 
            296         29944.5 
            301         40645.2 
            308         94456.4 
            318          185433 
            328          291708 
            338          512082 
            348          816614 
            357      2.69184e+6 
            366      6.13314e+6 
            375      7.82633e+6 
            385       1.2264e+7 
            395      3.24829e+7 
            405      4.09952e+7 
            414      7.04505e+7 
            422      8.21835e+7 
            430      1.00323e+8 
            441      1.26036e+8 
            451      1.45922e+8 
            460       1.5693e+8 
            470       1.9638e+8 
            480      2.35227e+8 
            490      2.69469e+8 
            500      3.23475e+8 
            506      4.67152e+8 
            512      4.26347e+9 
            520      3.93741e+9 
            530      3.79439e+9 
            540      3.58125e+9 
            550      4.64492e+9 
            560      5.92051e+9 
            570      6.15394e+9 
            580      5.56617e+9 
            590       6.2491e+9 
            600      4.73423e+9 
            610      6.28149e+9 
            620      7.27301e+9 
            630      7.11344e+9 
            640      6.56407e+9 
            650      6.66851e+9 
            658      5.40943e+9 
            665      6.62144e+9 
            675      7.28075e+9 
            685      5.73109e+9 
            695      8.26656e+9 
            705      6.29031e+9 
            716      8.94249e+9 
            726      8.48841e+9 
            735      8.67511e+9 
            745      8.52388e+9 
            755      8.58707e+9 
            765      9.14231e+9 
            775      9.52824e+9 
            785       9.8672e+9 
            795      9.73557e+9 
            805      9.31788e+9 
            815      9.20406e+9 
            825     1.00018e+10 
            835      7.45813e+9 
            845      9.45431e+9 
            855      9.28547e+9 
            865      9.66463e+9 
            875      9.77713e+9 
            885     1.01313e+10 
            895      1.0241e+10 
            905      9.80571e+9 
            915     1.00281e+10 
            925     2.84996e+10 
            935     4.99878e+10 
            945     7.79382e+10 
            955     9.07059e+10 
            965     1.09395e+11 
            975     2.99925e+10 
            985     8.55599e+10 
            995     7.54886e+10 
           1005      8.1144e+10 
           1015     8.81903e+10 
           1025     5.68882e+10 
           1035     8.07284e+10 
           1045     1.04109e+11 
           1055     9.60926e+10 
           1065     7.17404e+10 
           1075      8.1248e+10 
           1085     7.48707e+10 
           1095     8.25143e+10 
           1105     7.61496e+10 
           1115     7.37201e+10 
           1125     4.90757e+10 
           1135     7.04694e+10 
           1145     6.57525e+10 
           1155       6.221e+10 
           1165     6.21237e+10 
           1175     3.61769e+10 
           1185     5.66667e+10 
           1195     5.38017e+10 
           1205     4.65715e+10 
           1215     3.47758e+10 
           1225     4.97477e+10 
           1235     5.51451e+10 
           1245     5.26392e+10 
           1255     5.23466e+10 
           1265     5.39919e+10 
           1275     5.60033e+10 
           1285     5.62918e+10 
           1295     4.59459e+10 
           1305     4.83016e+10 
           1315     5.53125e+10 
           1325     5.20217e+10 
           1335     5.08732e+10 
           1345     4.90075e+10 
           1355     4.95261e+10 
           1365     4.56651e+10 
           1375     4.35208e+10 
           1385     4.05673e+10 
           1395     2.43729e+10 
           1405     2.81284e+10 
           1415     3.85192e+10 
           1425     3.52124e+10 
           1435     3.80128e+10 
           1442     3.82715e+10 
           1447     3.79876e+10 
           1455     3.58574e+10 
           1465     3.37968e+10 
           1475     3.46214e+10 
           1485     3.41909e+10 
           1495       3.314e+10 
           1505     3.03027e+10 
           1512      2.9006e+10 
           1517     2.95387e+10 
           1525     2.90595e+10 
           1535     2.41637e+10 
           1545       2.109e+10 
           1555     2.09318e+10 
           1565     2.36199e+10 
           1575     2.51236e+10 
           1585     2.49891e+10 
           1595     2.53253e+10 
           1605     2.48206e+10 
           1615     2.34078e+10 
           1625      2.3744e+10 
           1635     2.44311e+10 
           1645     2.48116e+10 
           1655     2.43957e+10 
           1665     2.40533e+10 
           1672     2.22824e+10 
           1677     2.65126e+10 
           1685     2.50461e+10 
           1695     2.37955e+10 
           1705     2.33228e+10 
           1715     2.21909e+10 
           1725     2.07607e+10 
           1735     2.18574e+10 
           1745     2.17734e+10 
           1755     2.15554e+10 
           1765     2.12114e+10 
           1775     1.99472e+10 
           1785     2.04467e+10 
           1795     2.02698e+10 
           1805     2.02863e+10 
           1815     1.90879e+10 
           1825     1.91101e+10 
           1835     1.87882e+10 
           1845     1.72604e+10 
           1855     1.78269e+10 
           1865     1.80078e+10 
           1875     1.77197e+10 
           1885     1.63448e+10 
           1895     1.56335e+10 
           1905     1.64705e+10 
           1915     1.56785e+10 
           1925     1.45644e+10 
           1935     1.57625e+10 
           1945     1.61695e+10 
           1955     1.42825e+10 
           1967     1.53054e+10 
           1976     1.60704e+10 
           1984      1.4961e+10 
           1995      1.4787e+10 
           2005     1.50944e+10 
           2015     1.50322e+10 
           2025     1.50742e+10 
           2035     1.41141e+10 
           2045     1.40962e+10 
           2055     1.21618e+10 
           2065     1.18985e+10 
           2074      1.2201e+10 
           2078     1.16916e+10 
           2085     1.20994e+10 
           2095     1.19962e+10 
           2105     1.29512e+10 
           2115     1.31659e+10 
           2125     1.29455e+10 
           2135     1.27799e+10 
           2145     1.24047e+10 
           2155     1.26087e+10 
           2165     1.21429e+10 
           2175     1.22194e+10 
           2185     1.18742e+10 
           2195     1.20595e+10 
           2205     1.19287e+10 
           2215     1.15141e+10 
           2225     1.14527e+10 
           2235     1.12622e+10 
           2245      1.1186e+10 
           2255     1.07677e+10 
           2265      1.0885e+10 
           2275     1.07335e+10 
           2285     1.03273e+10 
           2295      9.06521e+9 
           2305      9.96027e+9 
           2315      9.82872e+9 
           2325      9.81335e+9 
           2335      9.63757e+9 
           2345      9.64872e+9 
           2355      9.43721e+9 
           2365      9.29291e+9 
           2375      9.02314e+9 
           2385      8.74431e+9 
           2395      8.72201e+9 
           2405      8.71802e+9 
           2415      8.53293e+9 
           2425      8.51075e+9 
           2435      8.31327e+9 
           2445      8.25928e+9 
           2455       8.1615e+9 
           2465      8.06503e+9 
           2475      7.91512e+9 
           2485      7.54774e+9 
           2495      5.24992e+9 
           2505      7.06267e+9 
           2513      6.99451e+9 
           2518      7.03985e+9 
           2525      7.36899e+9 
           2535      7.36373e+9 
           2545      7.05471e+9 
           2555      7.07577e+9 
           2565      6.91248e+9 
           2575      6.93446e+9 
           2585      6.87133e+9 
           2595      6.75861e+9 
           2605      6.71571e+9 
           2615      6.56528e+9 
           2625      6.52902e+9 
           2635      6.44103e+9 
           2645      6.33373e+9 
           2655       6.2674e+9 
           2665      6.01517e+9 
           2675      5.92869e+9 
           2685      5.99487e+9 
           2695      5.78397e+9 
           2705      5.66868e+9 
           2715      5.64898e+9 
           2725      5.61521e+9 
           2735      5.51932e+9 
           2745      5.49918e+9 
           2755      5.44494e+9 
           2765      5.34896e+9 
           2775      5.39756e+9 
           2785      5.27289e+9 
           2795      5.02015e+9 
           2805      5.10364e+9 
           2815      5.13115e+9 
           2825      5.05241e+9 
           2835      4.88464e+9 
           2845       4.9388e+9 
           2855        4.828e+9 
           2865      4.78151e+9 
           2875      4.70865e+9 
           2885      4.64981e+9 
           2895      4.57549e+9 
           2910      4.42265e+9 
           2930      4.43567e+9 
           2950      4.29478e+9 
           2970      4.20813e+9 
           2990      4.06572e+9 
           3010      3.87362e+9 
           3030      3.81346e+9 
           3050      3.79374e+9 
           3070       3.7615e+9 
           3090      3.57471e+9 
           3110       3.5935e+9 
           3130      3.46512e+9 
           3150      3.42183e+9 
           3170      3.31918e+9 
           3190      3.27103e+9 
           3210      3.20041e+9 
           3230       3.1132e+9 
           3250      3.07857e+9 
           3270      2.97884e+9 
           3290      2.93344e+9 
           3310      2.86361e+9 
           3330      2.78801e+9 
           3350      2.73108e+9 
           3370      2.66685e+9 
           3390      2.64577e+9 
           3410      2.58534e+9 
           3430       2.5517e+9 
           3450      2.47377e+9 
           3470      2.43148e+9 
           3490      2.37891e+9 
           3510      2.33307e+9 
           3530      2.30614e+9 
           3550      2.25123e+9 
           3570      2.20976e+9 
           3590      2.14572e+9 
           3610      2.11779e+9 
           3630      2.07053e+9 
           3640      2.05769e+9 
           3650      2.00865e+9 
           3670      1.98203e+9 
           3690      1.94456e+9 
           3710      1.85506e+9 
           3730      1.82406e+9 
           3750      1.79341e+9 
           3770      1.72234e+9 
           3790      1.77175e+9 
           3810      1.81634e+9 
           3830        1.614e+9 
           3850      1.81577e+9 
           3870      1.75754e+9 
           3890      1.50263e+9 
           3910       1.8101e+9 
           3930       1.7575e+9 
           3950      1.68472e+9 
           3970      1.38328e+9 
           3990      1.66269e+9 
           4010      1.65369e+9 
           4030      1.56689e+9 
           4050      1.59711e+9 
           4070      1.49192e+9 
           4090      1.37949e+9 
           4110      1.25311e+9 
           4130      1.44851e+9 
           4150      1.43578e+9 
           4170      1.44639e+9 
           4190      1.42058e+9 
           4210      1.40189e+9 
           4230      1.37249e+9 
           4250       1.3128e+9 
           4270      1.28524e+9 
           4290       1.2514e+9 
           4310      1.20305e+9 
           4330      1.11334e+9 
           4350      1.03444e+9 
           4370      1.15404e+9 
           4390      1.15284e+9 
           4410      1.13931e+9 
           4430      1.14004e+9 
           4450      1.11334e+9 
           4470      1.06767e+9 
           4490      1.08447e+9 
           4510      1.07141e+9 
           4530      1.06326e+9 
           4550       1.0458e+9 
           4570      1.03196e+9 
           4590      1.01057e+9 
           4610      9.78372e+8 
           4630       9.5623e+8 
           4650      9.10336e+8 
           4670      9.33597e+8 
           4690      9.23973e+8 
           4710      8.89005e+8 
           4730      9.10281e+8 
           4750      8.93064e+8 
           4770      8.93621e+8 
           4790      8.77193e+8 
           4810      8.54265e+8 
           4830       8.3196e+8 
           4850      7.69987e+8 
           4870       6.9245e+8 
           4890      7.94245e+8 
           4910      7.88491e+8 
           4930       7.6315e+8 
           4950      7.62084e+8 
           4970      7.64519e+8 
           4990      7.51701e+8 
           5010      7.14117e+8 
           5030      7.20227e+8 
           5050      7.09659e+8 
           5070      7.08747e+8 
           5090      6.93634e+8 
           5110      6.81824e+8 
           5130      6.68988e+8 
           5150      6.61061e+8 
           5170      6.52813e+8 
           5190      6.45568e+8 
           5210       6.3611e+8 
           5230      6.28183e+8 
           5250      6.17747e+8 
           5270      6.06543e+8 
           5290      6.01831e+8 
           5310      5.92509e+8 
           5330      5.84716e+8 
           5350      5.75785e+8 
           5370      5.68473e+8 
           5390      5.58777e+8 
           5410      5.49209e+8 
           5430      5.45106e+8 
           5450      5.36344e+8 
           5470      5.28954e+8 
           5490      5.21982e+8 
           5510      5.15842e+8 
           5530      5.07621e+8 
           5550      5.02135e+8 
           5570      4.95123e+8 
           5590      4.87596e+8 
           5610      4.81851e+8 
           5630      4.75795e+8 
           5650      4.67925e+8 
           5670      4.59555e+8 
           5690      4.48802e+8 
           5710      4.44716e+8 
           5730      4.40825e+8 
           5750      4.32819e+8 
           5770      4.30276e+8 
           5790      4.23994e+8 
           5810      4.18234e+8 
           5830       4.1129e+8 
           5850      4.07547e+8 
           5870      3.90802e+8 
           5890      3.93538e+8 
           5910      3.90426e+8 
           5930      3.85901e+8 
           5950      3.81034e+8 
           5970      3.78929e+8 
           5990      3.72266e+8 
           6010      3.69438e+8 
           6030      3.63935e+8 
           6050      3.59989e+8 
           6070      3.56209e+8 
           6090      3.51964e+8 
           6110      3.47282e+8 
           6130      3.43365e+8 
           6150      3.36683e+8 
           6170      3.33148e+8 
           6190      3.30527e+8 
           6210      3.26995e+8 
           6230      3.23045e+8 
           6250      3.17808e+8 
           6270      3.14662e+8 
           6290       3.1115e+8 
           6310      3.06589e+8 
           6330      3.03893e+8 
           6350      2.99141e+8 
           6370      2.96857e+8 
           6390      2.93166e+8 
           6410      2.89625e+8 
           6430      2.86468e+8 
           6450      2.82883e+8 
           6470      2.77357e+8 
           6490       2.7438e+8 
           6510      2.70857e+8 
           6530      2.66143e+8 
           6550      2.54554e+8 
           6570      2.25872e+8 
           6590      2.55533e+8 
           6610       2.5605e+8 
           6630      2.54173e+8 
           6650      2.50985e+8 
           6670      2.44952e+8 
           6690      2.42311e+8 
           6710      2.42392e+8 
           6730      2.38866e+8 
           6750      2.37543e+8 
           6770      2.35098e+8 
           6790      2.30397e+8 
           6810      2.29444e+8 
           6830      2.26382e+8 
           6850       2.2454e+8 
           6870      2.21854e+8 
           6890      2.18703e+8 
           6910      2.15324e+8 
           6930       2.1497e+8 
           6950      2.12658e+8 
           6970      2.10346e+8 
           6990      2.07856e+8 
           7010      2.05376e+8 
           7030      2.02951e+8 
           7050      2.00854e+8 
           7070      1.95627e+8 
           7090      1.96586e+8 
           7110      1.93514e+8 
           7130      1.91607e+8 
           7150      1.90308e+8 
           7170      1.88479e+8 
           7190      1.86615e+8 
           7210      1.84697e+8 
           7230       1.8016e+8 
           7250      1.80092e+8 
           7270      1.78889e+8 
           7290      1.75548e+8 
           7310      1.75047e+8 
           7330      1.73188e+8 
           7350      1.71403e+8 
           7370      1.69725e+8 
           7390       1.6798e+8 
           7410      1.66224e+8 
           7430       1.6447e+8 
           7450      1.62679e+8 
           7470      1.59466e+8 
           7490       1.5879e+8 
           7510      1.57712e+8 
           7530      1.55805e+8 
           7550      1.54637e+8 
           7570      1.53059e+8 
           7590      1.51272e+8 
           7610      1.49268e+8 
           7630      1.48312e+8 
           7650      1.46733e+8 
           7670      1.45475e+8 
           7690      1.43688e+8 
           7710      1.42411e+8 
           7730       1.4049e+8 
           7750      1.39722e+8 
           7770      1.38142e+8 
           7790      1.37067e+8 
           7810      1.35693e+8 
           7830      1.34405e+8 
           7850      1.33054e+8 
           7870      1.31083e+8 
           7890      1.29627e+8 
           7910      1.28966e+8 
           7930      1.27693e+8 
           7950      1.26623e+8 
           7970      1.25306e+8 
           7990      1.24119e+8 
           8010      1.22977e+8 
           8030      1.21734e+8 
           8050      1.20694e+8 
           8070      1.19541e+8 
           8090      1.18318e+8 
           8110      1.15702e+8 
           8130       1.1613e+8 
           8150      1.15011e+8 
           8170      1.14025e+8 
           8190      1.11554e+8 
           8210      1.10849e+8 
           8230      1.09549e+8 
           8250      1.09323e+8 
           8270      1.06696e+8 
           8290      1.07042e+8 
           8310      1.06457e+8 
           8330      1.05403e+8 
           8350      1.03932e+8 
           8370      1.03167e+8 
           8390      1.02665e+8 
           8410      1.01485e+8 
           8430      1.00829e+8 
           8450      9.92969e+7 
           8470      9.90333e+7 
           8490      9.78983e+7 
           8510      9.68248e+7 
           8530      9.61228e+7 
           8550       9.5215e+7 
           8570      9.46377e+7 
