# Kurucz ODFNEW /NOVER (2003)
# teff = 28000 K (value for the effective temperature for the model. Temperatures are given in K)
# logg = 4.5 log(cm/s2) (value for Log(G) for the model.)
# meta = -1  (value for the Metallicity for the model.)
# lh = 1.25  (l/Hp where l is the  mixing length of the convective element and Hp is the pressure scale height)
# vtur = 2 km/s (Microturbulence velocity)
# alpha = 0  (Alpha)
#
# column 1: WAVELENGTH (ANGSTROM), Wavelength in Angstrom
# column 2: FLUX (ERG/CM2/S/A), Flux in erg/cm2/s/A
          147.2     5.46529e-11 
            151     2.06184e-10 
          155.2     8.32035e-10 
          158.8      2.59973e-9 
            162      6.87182e-9 
            166      2.19959e-8 
          170.3      7.23411e-8 
          173.4      1.64624e-7 
          176.8      3.92455e-7 
          180.2      9.05428e-7 
          181.7      1.29628e-6 
          186.1      3.59432e-6 
            191      1.05849e-5 
          193.9      1.95443e-5 
          198.4      4.88281e-5 
          201.8      9.48779e-5 
            205     0.000173694 
          210.5     0.000470386 
          216.2      0.00125062 
          219.8      0.00225794 
            223      0.00375578 
          226.8      0.00674489 
            230        0.898453 
            234         2.14296 
            240         4.36365 
          246.5         9.15872 
          252.4         17.5308 
          256.8         25.1735 
            260         38.4024 
            264         55.3019 
          268.5         85.0685 
          273.5         133.468 
          278.5         205.141 
            284         332.768 
            290         532.573 
            296         837.554 
            301         1182.28 
            308         1815.42 
            318         3862.89 
            328         7018.15 
            338         12774.5 
            348         21937.9 
            357         38027.9 
            366         60375.3 
            375         88274.6 
            385          137066 
            395          206598 
            405          299914 
            414          418742 
            422          540500 
            430          706047 
            441          995728 
            451      1.34231e+6 
            460      1.71058e+6 
            470      2.25731e+6 
            480      2.90477e+6 
            490      3.71756e+6 
            500      4.71409e+6 
            506      2.50181e+7 
            512      9.44583e+7 
            520      1.02939e+8 
            530      1.18455e+8 
            540      1.19199e+8 
            550      1.50106e+8 
            560      1.66105e+8 
            570      1.87692e+8 
            580      1.82676e+8 
            590      2.18321e+8 
            600      2.35456e+8 
            610      2.60157e+8 
            620      2.80705e+8 
            630      3.01251e+8 
            640       3.0612e+8 
            650       3.3277e+8 
            658      3.57157e+8 
            665      3.78582e+8 
            675      3.90567e+8 
            685      4.04232e+8 
            695      4.63197e+8 
            705      4.73132e+8 
            716      5.17325e+8 
            726      5.36501e+8 
            735      5.60298e+8 
            745      6.03025e+8 
            755      6.31754e+8 
            765      6.63626e+8 
            775      6.98733e+8 
            785      7.38145e+8 
            795      7.62012e+8 
            805      7.91392e+8 
            815      8.13154e+8 
            825      8.59151e+8 
            835      8.39884e+8 
            845      9.04541e+8 
            855      9.32154e+8 
            865      9.73311e+8 
            875      1.01767e+9 
            885      1.06127e+9 
            895      1.09563e+9 
            905      1.11148e+9 
            915      1.36315e+9 
            925      6.85147e+9 
            935     1.59711e+10 
            945     3.57567e+10 
            955     4.49171e+10 
            965     5.76002e+10 
            975      2.0506e+10 
            985     5.79252e+10 
            995     5.36198e+10 
           1005     5.67132e+10 
           1015      5.3557e+10 
           1025     2.36549e+10 
           1035      4.7382e+10 
           1045     5.83158e+10 
           1055     5.57533e+10 
           1065     4.94102e+10 
           1075     5.19736e+10 
           1085     4.71382e+10 
           1095     5.09093e+10 
           1105     4.82303e+10 
           1115     4.74478e+10 
           1125     4.25866e+10 
           1135     4.58372e+10 
           1145     4.23705e+10 
           1155     4.30576e+10 
           1165     4.22716e+10 
           1175     3.29052e+10 
           1185     3.94644e+10 
           1195     3.73979e+10 
           1205     3.23613e+10 
           1215     1.62313e+10 
           1225     3.27769e+10 
           1235     3.58075e+10 
           1245     3.49283e+10 
           1255     3.45031e+10 
           1265     3.40398e+10 
           1275     3.39413e+10 
           1285     3.32508e+10 
           1295     2.97291e+10 
           1305     3.00959e+10 
           1315     3.11932e+10 
           1325     2.98551e+10 
           1335     2.87479e+10 
           1345     2.86052e+10 
           1355     2.84985e+10 
           1365     2.72151e+10 
           1375      2.6735e+10 
           1385     2.62403e+10 
           1395     2.31746e+10 
           1405     2.34718e+10 
           1415     2.42551e+10 
           1425     2.33074e+10 
           1435     2.33861e+10 
           1442     2.34586e+10 
           1447     2.30592e+10 
           1455     2.25412e+10 
           1465     2.18133e+10 
           1475     2.14787e+10 
           1485     2.10998e+10 
           1495     2.06078e+10 
           1505     1.96346e+10 
           1512     1.88287e+10 
           1517     1.89405e+10 
           1525     1.87358e+10 
           1535     1.71623e+10 
           1545     1.69061e+10 
           1555     1.62531e+10 
           1565      1.6749e+10 
           1575     1.69486e+10 
           1585     1.67384e+10 
           1595      1.6538e+10 
           1605     1.58719e+10 
           1615     1.54506e+10 
           1625     1.54351e+10 
           1635     1.54808e+10 
           1645      1.4973e+10 
           1655     1.50553e+10 
           1665     1.48777e+10 
           1672     1.44717e+10 
           1677     1.49549e+10 
           1685     1.45731e+10 
           1695     1.41459e+10 
           1705     1.37394e+10 
           1715     1.32915e+10 
           1725     1.30492e+10 
           1735     1.30832e+10 
           1745     1.28273e+10 
           1755     1.27243e+10 
           1765      1.2329e+10 
           1775     1.20446e+10 
           1785     1.19999e+10 
           1795     1.19238e+10 
           1805     1.18395e+10 
           1815     1.13348e+10 
           1825     1.12967e+10 
           1835     1.10804e+10 
           1845     1.03598e+10 
           1855     1.02675e+10 
           1865     1.03267e+10 
           1875     1.03488e+10 
           1885      9.62937e+9 
           1895      9.15947e+9 
           1905      9.50776e+9 
           1915      9.13885e+9 
           1925      8.81967e+9 
           1935       9.0477e+9 
           1945      9.12032e+9 
           1955      8.48513e+9 
           1967      8.73916e+9 
           1976      8.93857e+9 
           1984      8.47605e+9 
           1995      8.23783e+9 
           2005      8.31189e+9 
           2015      8.30559e+9 
           2025       8.3228e+9 
           2035      7.92517e+9 
           2045      7.84236e+9 
           2055      7.45711e+9 
           2065      7.39496e+9 
           2074      7.56309e+9 
           2078      7.26128e+9 
           2085      7.30776e+9 
           2095      7.13336e+9 
           2105      7.27404e+9 
           2115      7.22319e+9 
           2125       7.2156e+9 
           2135      7.07444e+9 
           2145      6.87771e+9 
           2155      6.88339e+9 
           2165      6.79648e+9 
           2175      6.68897e+9 
           2185      6.59356e+9 
           2195      6.54152e+9 
           2205      6.44613e+9 
           2215      6.35412e+9 
           2225      6.24782e+9 
           2235      6.14158e+9 
           2245      6.09521e+9 
           2255       5.9803e+9 
           2265      5.92768e+9 
           2275      5.84766e+9 
           2285      5.77264e+9 
           2295      5.54992e+9 
           2305      5.59944e+9 
           2315      5.51173e+9 
           2325      5.44003e+9 
           2335      5.34717e+9 
           2345      5.30481e+9 
           2355      5.23893e+9 
           2365      5.17034e+9 
           2375      5.08976e+9 
           2385      5.01763e+9 
           2395      4.95348e+9 
           2405      4.89069e+9 
           2415      4.82172e+9 
           2425      4.77146e+9 
           2435       4.6922e+9 
           2445      4.64053e+9 
           2455      4.58837e+9 
           2465      4.52809e+9 
           2475      4.46629e+9 
           2485      4.40724e+9 
           2495      4.15956e+9 
           2505      4.28509e+9 
           2513      4.16581e+9 
           2518      4.21084e+9 
           2525       4.1851e+9 
           2535      4.13327e+9 
           2545      4.04565e+9 
           2555      4.01543e+9 
           2565      3.97519e+9 
           2575      3.93006e+9 
           2585      3.88207e+9 
           2595      3.83441e+9 
           2605      3.80631e+9 
           2615      3.75913e+9 
           2625      3.71529e+9 
           2635      3.66793e+9 
           2645      3.62027e+9 
           2655      3.57494e+9 
           2665      3.51479e+9 
           2675      3.47335e+9 
           2685      3.45416e+9 
           2695       3.3738e+9 
           2705      3.35884e+9 
           2715      3.32279e+9 
           2725      3.26309e+9 
           2735      3.24355e+9 
           2745      3.20211e+9 
           2755      3.17003e+9 
           2765      3.10865e+9 
           2775      3.10209e+9 
           2785      3.06295e+9 
           2795      2.98735e+9 
           2805      2.97854e+9 
           2815      2.96012e+9 
           2825      2.89625e+9 
           2835      2.85035e+9 
           2845      2.85874e+9 
           2855      2.82234e+9 
           2865      2.79249e+9 
           2875      2.76106e+9 
           2885       2.7305e+9 
           2895      2.69832e+9 
           2910      2.65064e+9 
           2930      2.59339e+9 
           2950      2.51587e+9 
           2970      2.48018e+9 
           2990      2.42398e+9 
           3010      2.36667e+9 
           3030      2.32195e+9 
           3050      2.27305e+9 
           3070      2.22563e+9 
           3090        2.167e+9 
           3110      2.13123e+9 
           3130      2.08624e+9 
           3150      2.04313e+9 
           3170      1.99955e+9 
           3190      1.94286e+9 
           3210      1.91825e+9 
           3230      1.87814e+9 
           3250      1.84062e+9 
           3270      1.80485e+9 
           3290      1.76606e+9 
           3310      1.73374e+9 
           3330      1.69858e+9 
           3350      1.66251e+9 
           3370      1.63235e+9 
           3390      1.60105e+9 
           3410      1.57002e+9 
           3430      1.53271e+9 
           3450      1.49783e+9 
           3470      1.47301e+9 
           3490      1.44464e+9 
           3510         1.42e+9 
           3530      1.39634e+9 
           3550      1.37019e+9 
           3570      1.35251e+9 
           3590      1.31667e+9 
           3610      1.29666e+9 
           3630      1.26943e+9 
           3640       1.2679e+9 
           3650      1.24337e+9 
           3670      1.22658e+9 
           3690      1.20347e+9 
           3710       1.1624e+9 
           3730       1.1169e+9 
           3750      1.12688e+9 
           3770      1.10926e+9 
           3790      1.15578e+9 
           3810       1.1981e+9 
           3830      1.05343e+9 
           3850      1.22376e+9 
           3870      1.23365e+9 
           3890      9.92705e+8 
           3910      1.21145e+9 
           3930        1.194e+9 
           3950      1.17023e+9 
           3970      9.21476e+8 
           3990      1.12185e+9 
           4010      1.11854e+9 
           4030      1.05309e+9 
           4050      1.09115e+9 
           4070      1.05978e+9 
           4090      9.74698e+8 
           4110      8.58988e+8 
           4130      9.97035e+8 
           4150      9.89701e+8 
           4170      9.82462e+8 
           4190      9.67311e+8 
           4210      9.52871e+8 
           4230       9.3607e+8 
           4250      9.18104e+8 
           4270      8.97106e+8 
           4290      8.85547e+8 
           4310      8.64165e+8 
           4330      7.82277e+8 
           4350      7.15552e+8 
           4370      8.19963e+8 
           4390      7.93294e+8 
           4410      8.01011e+8 
           4430      7.88304e+8 
           4450      7.77905e+8 
           4470      7.31271e+8 
           4490      7.52054e+8 
           4510      7.42194e+8 
           4530      7.30184e+8 
           4550      7.17738e+8 
           4570       7.0604e+8 
           4590      6.94965e+8 
           4610      6.83967e+8 
           4630      6.73325e+8 
           4650      6.57754e+8 
           4670      6.52167e+8 
           4690      6.42318e+8 
           4710      6.23543e+8 
           4730       6.2298e+8 
           4750      6.12769e+8 
           4770      6.05604e+8 
           4790      5.96223e+8 
           4810      5.85609e+8 
           4830      5.72888e+8 
           4850      5.28278e+8 
           4870      4.74103e+8 
           4890      5.46092e+8 
           4910      5.42199e+8 
           4930      5.22355e+8 
           4950      5.27936e+8 
           4970      5.21164e+8 
           4990      5.13424e+8 
           5010      4.98331e+8 
           5030      4.98575e+8 
           5050      4.88282e+8 
           5070      4.84423e+8 
           5090      4.77395e+8 
           5110       4.7052e+8 
           5130      4.63466e+8 
           5150      4.56919e+8 
           5170      4.50797e+8 
           5190       4.4456e+8 
           5210      4.38211e+8 
           5230      4.32181e+8 
           5250      4.26188e+8 
           5270      4.20205e+8 
           5290      4.14449e+8 
           5310      4.08701e+8 
           5330       4.0312e+8 
           5350      3.97545e+8 
           5370      3.92238e+8 
           5390      3.86869e+8 
           5410      3.81594e+8 
           5430      3.76488e+8 
           5450      3.71383e+8 
           5470      3.66419e+8 
           5490      3.61529e+8 
           5510      3.56775e+8 
           5530      3.51994e+8 
           5550      3.47407e+8 
           5570      3.42791e+8 
           5590      3.38318e+8 
           5610      3.33863e+8 
           5630      3.29534e+8 
           5650      3.25116e+8 
           5670      3.20647e+8 
           5690      3.16209e+8 
           5710      3.12681e+8 
           5730      3.08712e+8 
           5750       3.0454e+8 
           5770      3.00927e+8 
           5790      2.97088e+8 
           5810      2.93338e+8 
           5830      2.89556e+8 
           5850      2.85972e+8 
           5870      2.73684e+8 
           5890      2.77996e+8 
           5910      2.75298e+8 
           5930      2.71784e+8 
           5950      2.68395e+8 
           5970      2.65289e+8 
           5990      2.61904e+8 
           6010      2.58766e+8 
           6030       2.5555e+8 
           6050      2.52474e+8 
           6070      2.49453e+8 
           6090      2.46415e+8 
           6110      2.43443e+8 
           6130      2.40513e+8 
           6150      2.37507e+8 
           6170      2.34723e+8 
           6190       2.3197e+8 
           6210      2.29218e+8 
           6230      2.26506e+8 
           6250      2.23786e+8 
           6270      2.21172e+8 
           6290      2.18578e+8 
           6310      2.16002e+8 
           6330      2.13492e+8 
           6350      2.10935e+8 
           6370      2.08535e+8 
           6390      2.06116e+8 
           6410       2.0374e+8 
           6430      2.01409e+8 
           6450      1.99084e+8 
           6470      1.96703e+8 
           6490      1.94473e+8 
           6510      1.92169e+8 
           6530      1.89121e+8 
           6550      1.80486e+8 
           6570      1.60572e+8 
           6590      1.81277e+8 
           6610      1.81251e+8 
           6630       1.7967e+8 
           6650      1.77748e+8 
           6670      1.73932e+8 
           6690      1.72043e+8 
           6710      1.71923e+8 
           6730      1.69962e+8 
           6750      1.68155e+8 
           6770      1.66308e+8 
           6790      1.64308e+8 
           6810       1.6267e+8 
           6830      1.60895e+8 
           6850       1.5917e+8 
           6870      1.57447e+8 
           6890      1.55724e+8 
           6910      1.54027e+8 
           6930      1.52402e+8 
           6950      1.50778e+8 
           6970      1.49169e+8 
           6990      1.47576e+8 
           7010      1.46007e+8 
           7030      1.44461e+8 
           7050       1.4293e+8 
           7070      1.39161e+8 
           7090      1.39943e+8 
           7110      1.38464e+8 
           7130      1.37021e+8 
           7150      1.35592e+8 
           7170       1.3417e+8 
           7190      1.32791e+8 
           7210      1.31417e+8 
           7230      1.29466e+8 
           7250      1.28695e+8 
           7270      1.27397e+8 
           7290      1.25054e+8 
           7310      1.24794e+8 
           7330      1.23532e+8 
           7350      1.22281e+8 
           7370      1.21043e+8 
           7390      1.19816e+8 
           7410      1.18608e+8 
           7430       1.1741e+8 
           7450      1.16251e+8 
           7470      1.15036e+8 
           7490      1.13939e+8 
           7510      1.12765e+8 
           7530      1.11682e+8 
           7550      1.10575e+8 
           7570      1.09485e+8 
           7590      1.08406e+8 
           7610      1.07323e+8 
           7630      1.06282e+8 
           7650      1.05244e+8 
           7670      1.04216e+8 
           7690      1.03197e+8 
           7710      1.02199e+8 
           7730      1.01204e+8 
           7750      1.00225e+8 
           7770      9.92167e+7 
           7790      9.83043e+7 
           7810      9.73074e+7 
           7830        9.643e+7 
           7850      9.55908e+7 
           7870      9.46615e+7 
           7890      9.36981e+7 
           7910      9.28937e+7 
           7930      9.20004e+7 
           7950      9.11089e+7 
           7970      9.01481e+7 
           7990      8.92784e+7 
           8010      8.83986e+7 
           8030      8.75615e+7 
           8050      8.67607e+7 
           8070      8.60188e+7 
           8090      8.50645e+7 
           8110      8.43361e+7 
           8130      8.36652e+7 
           8150      8.28127e+7 
           8170      8.21538e+7 
           8190      8.12756e+7 
           8210       8.0338e+7 
           8230      7.97811e+7 
           8250       7.9107e+7 
           8270      7.79977e+7 
           8290      7.76273e+7 
           8310      7.69595e+7 
           8330      7.62266e+7 
           8350      7.51919e+7 
           8370      7.47577e+7 
           8390       7.4193e+7 
           8410      7.35263e+7 
           8430      7.28226e+7 
           8450      7.16816e+7 
           8470      7.15063e+7 
           8490      7.07098e+7 
           8510      7.01282e+7 
           8530      6.94528e+7 
           8550      6.84635e+7 
           8570      6.87496e+7 
           8590      6.64948e+7 
