# Kurucz ODFNEW /NOVER (2003)
# teff = 28000 K (value for the effective temperature for the model. Temperatures are given in K)
# logg = 3.5 log(cm/s2) (value for Log(G) for the model.)
# meta = 0.2  (value for the Metallicity for the model.)
# lh = 1.25  (l/Hp where l is the  mixing length of the convective element and Hp is the pressure scale height)
# vtur = 2 km/s (Microturbulence velocity)
# alpha = 0  (Alpha)
#
# column 1: WAVELENGTH (ANGSTROM), Wavelength in Angstrom
# column 2: FLUX (ERG/CM2/S/A), Flux in erg/cm2/s/A
          147.2     8.44361e-11 
            151     2.95951e-10 
          155.2      1.10555e-9 
          158.8       3.2463e-9 
            162      8.15084e-9 
            166      2.45662e-8 
          170.3      7.59133e-8 
          173.4       1.6619e-7 
          176.8      3.79908e-7 
          180.2       8.4293e-7 
          181.7      1.18685e-6 
          186.1      3.14692e-6 
            191      8.86684e-6 
          193.9      1.59811e-5 
          198.4      3.85759e-5 
          201.8      7.32048e-5 
            205     0.000131266 
          210.5     0.000344513 
          216.2     0.000889386 
          219.8      0.00158132 
            223      0.00259625 
          226.8      0.00469155 
            230        0.833078 
            234         1.83081 
            240         3.56696 
          246.5         7.38427 
          252.4          13.975 
          256.8         21.0106 
            260         36.4636 
            264         57.6424 
          268.5         91.3863 
          273.5         141.989 
          278.5         210.493 
            284         462.467 
            290         743.693 
            296         1136.35 
            301         1607.78 
            308          3581.4 
            318         8116.95 
            328         14042.3 
            338         26807.4 
            348           46609 
            357          193471 
            366          449158 
            375          598079 
            385          965759 
            395      2.21332e+6 
            405      2.95573e+6 
            414      4.38744e+6 
            422      5.39802e+6 
            430      7.07493e+6 
            441      9.53093e+6 
            451      1.13042e+7 
            460      1.32032e+7 
            470      1.73476e+7 
            480      2.19023e+7 
            490       2.6757e+7 
            500      3.29277e+7 
            506      8.70608e+7 
            512      8.41327e+8 
            520        8.194e+8 
            530      7.59065e+8 
            540      7.32491e+8 
            550      9.99261e+8 
            560      1.29188e+9 
            570       1.3883e+9 
            580      1.24083e+9 
            590      1.42218e+9 
            600      1.17404e+9 
            610      1.53759e+9 
            620      1.81171e+9 
            630      1.76595e+9 
            640      1.57268e+9 
            650      1.17709e+9 
            658      1.36521e+9 
            665      1.77586e+9 
            675      2.00641e+9 
            685      1.61354e+9 
            695      2.38606e+9 
            705       1.8978e+9 
            716       2.6363e+9 
            726      2.53945e+9 
            735      2.59835e+9 
            745      2.65056e+9 
            755      2.70123e+9 
            765      2.82651e+9 
            775      3.01779e+9 
            785      3.18862e+9 
            795      3.20988e+9 
            805      3.10598e+9 
            815      3.07719e+9 
            825      3.37478e+9 
            835      2.55526e+9 
            845      3.23469e+9 
            855      3.20467e+9 
            865      3.36331e+9 
            875      3.47528e+9 
            885      3.65448e+9 
            895      3.73538e+9 
            905      3.62109e+9 
            915      5.39159e+9 
            925     2.44964e+10 
            935      3.7849e+10 
            945     4.45271e+10 
            955     4.59168e+10 
            965     4.77817e+10 
            975     1.34031e+10 
            985     3.36171e+10 
            995     3.51061e+10 
           1005     3.96526e+10 
           1015     4.21443e+10 
           1025     3.60262e+10 
           1035     3.84809e+10 
           1045     4.83079e+10 
           1055     4.48748e+10 
           1065     3.76688e+10 
           1075     4.07039e+10 
           1085     3.76625e+10 
           1095     4.03742e+10 
           1105     3.83818e+10 
           1115     3.75237e+10 
           1125     2.85423e+10 
           1135     3.66516e+10 
           1145     3.50688e+10 
           1155     3.41479e+10 
           1165     3.31062e+10 
           1175     1.83381e+10 
           1185     2.99752e+10 
           1195     2.96023e+10 
           1205     2.63057e+10 
           1215     2.38817e+10 
           1225     2.81827e+10 
           1235     3.03636e+10 
           1245     2.86431e+10 
           1255     2.88678e+10 
           1265     2.97716e+10 
           1275     3.08521e+10 
           1285     3.08164e+10 
           1295     2.66694e+10 
           1305     2.75719e+10 
           1315     3.03893e+10 
           1325     2.89775e+10 
           1335     2.79742e+10 
           1345     2.81367e+10 
           1355     2.75936e+10 
           1365     2.63982e+10 
           1375     2.53959e+10 
           1385     2.42489e+10 
           1395     1.61463e+10 
           1405     1.79053e+10 
           1415     2.26389e+10 
           1425     2.09085e+10 
           1435     2.22994e+10 
           1442     2.23462e+10 
           1447     2.21398e+10 
           1455     2.10784e+10 
           1465     1.99825e+10 
           1475     2.05782e+10 
           1485     2.04541e+10 
           1495     1.98594e+10 
           1505     1.86649e+10 
           1512     1.75021e+10 
           1517     1.79599e+10 
           1525     1.76408e+10 
           1535     1.48845e+10 
           1545     1.30883e+10 
           1555     1.29536e+10 
           1565     1.48088e+10 
           1575     1.59022e+10 
           1585     1.60261e+10 
           1595     1.58243e+10 
           1605     1.53293e+10 
           1615     1.46418e+10 
           1625     1.48944e+10 
           1635     1.54583e+10 
           1645     1.55786e+10 
           1655     1.53868e+10 
           1665     1.53533e+10 
           1672     1.41375e+10 
           1677      1.6691e+10 
           1685     1.56956e+10 
           1695     1.49183e+10 
           1705     1.48073e+10 
           1715     1.38884e+10 
           1725     1.35328e+10 
           1735     1.40281e+10 
           1745     1.38418e+10 
           1755     1.37811e+10 
           1765     1.37282e+10 
           1775     1.29641e+10 
           1785     1.32496e+10 
           1795     1.31597e+10 
           1805     1.32282e+10 
           1815     1.23406e+10 
           1825     1.24965e+10 
           1835     1.23506e+10 
           1845     1.13605e+10 
           1855     1.17485e+10 
           1865     1.18427e+10 
           1875     1.18089e+10 
           1885     1.08145e+10 
           1895     1.02616e+10 
           1905     1.08803e+10 
           1915     1.04506e+10 
           1925      9.77481e+9 
           1935     1.05053e+10 
           1945     1.07621e+10 
           1955      9.55311e+9 
           1967     1.02861e+10 
           1976     1.07348e+10 
           1984     1.00713e+10 
           1995      9.87157e+9 
           2005     1.01641e+10 
           2015     1.01377e+10 
           2025     1.02923e+10 
           2035      9.52098e+9 
           2045      9.55511e+9 
           2055      8.39621e+9 
           2065      8.25042e+9 
           2074      8.82558e+9 
           2078      8.33919e+9 
           2085      8.95195e+9 
           2095      8.70275e+9 
           2105       8.9714e+9 
           2115      9.04341e+9 
           2125      9.04276e+9 
           2135      8.91031e+9 
           2145      8.55477e+9 
           2155      8.77814e+9 
           2165      8.57507e+9 
           2175      8.55772e+9 
           2185      8.35725e+9 
           2195      8.45096e+9 
           2205       8.3644e+9 
           2215      8.19614e+9 
           2225      8.05566e+9 
           2235      7.89324e+9 
           2245      7.87988e+9 
           2255      7.69458e+9 
           2265      7.69581e+9 
           2275      7.61739e+9 
           2285      7.49169e+9 
           2295      6.48155e+9 
           2305       7.1942e+9 
           2315      7.07735e+9 
           2325      7.03542e+9 
           2335      6.89507e+9 
           2345      6.91113e+9 
           2355      6.78748e+9 
           2365      6.69983e+9 
           2375      6.54542e+9 
           2385      6.40772e+9 
           2395      6.35702e+9 
           2405      6.31638e+9 
           2415      6.23046e+9 
           2425      6.19968e+9 
           2435      6.06074e+9 
           2445      6.02594e+9 
           2455      5.97683e+9 
           2465      5.88255e+9 
           2475      5.77927e+9 
           2485      5.55904e+9 
           2495      3.94545e+9 
           2505      5.25576e+9 
           2513      5.22879e+9 
           2518      5.36129e+9 
           2525      5.43016e+9 
           2535      5.39884e+9 
           2545      5.23522e+9 
           2555      5.22185e+9 
           2565       5.1669e+9 
           2575       5.1219e+9 
           2585      5.06098e+9 
           2595       4.9985e+9 
           2605      4.96375e+9 
           2615      4.86278e+9 
           2625      4.83269e+9 
           2635      4.78674e+9 
           2645      4.70452e+9 
           2655      4.66279e+9 
           2665       4.5134e+9 
           2675      4.46292e+9 
           2685      4.48471e+9 
           2695      4.34142e+9 
           2705      4.27391e+9 
           2715      4.25117e+9 
           2725      4.24037e+9 
           2735      4.17205e+9 
           2745      4.14651e+9 
           2755      4.10956e+9 
           2765      4.04333e+9 
           2775      4.05113e+9 
           2785       3.9758e+9 
           2795      3.83779e+9 
           2805      3.86659e+9 
           2815      3.86284e+9 
           2825      3.81184e+9 
           2835      3.70269e+9 
           2845      3.72358e+9 
           2855      3.65677e+9 
           2865      3.62399e+9 
           2875      3.58465e+9 
           2885      3.54649e+9 
           2895       3.5023e+9 
           2910       3.4174e+9 
           2930      3.37963e+9 
           2950      3.27847e+9 
           2970      3.21742e+9 
           2990      3.13082e+9 
           3010      3.02258e+9 
           3030      2.97866e+9 
           3050       2.9394e+9 
           3070      2.89451e+9 
           3090      2.78121e+9 
           3110      2.77118e+9 
           3130      2.69516e+9 
           3150      2.65117e+9 
           3170      2.58438e+9 
           3190      2.53553e+9 
           3210      2.48319e+9 
           3230      2.42304e+9 
           3250      2.39156e+9 
           3270      2.32621e+9 
           3290      2.28448e+9 
           3310      2.23818e+9 
           3330      2.18348e+9 
           3350       2.1398e+9 
           3370      2.09656e+9 
           3390      2.07058e+9 
           3410      2.02923e+9 
           3430      1.99052e+9 
           3450      1.94244e+9 
           3470      1.90744e+9 
           3490      1.86798e+9 
           3510      1.83587e+9 
           3530      1.80974e+9 
           3550      1.77204e+9 
           3570      1.74015e+9 
           3590       1.6953e+9 
           3610       1.6639e+9 
           3630      1.63627e+9 
           3640      1.62559e+9 
           3650      1.57156e+9 
           3670      1.55025e+9 
           3690      1.51452e+9 
           3710      1.46569e+9 
           3730      1.43073e+9 
           3750      1.48449e+9 
           3770      1.46423e+9 
           3790      1.49143e+9 
           3810      1.51975e+9 
           3830      1.38792e+9 
           3850       1.5011e+9 
           3870       1.4497e+9 
           3890      1.32218e+9 
           3910      1.44294e+9 
           3930      1.39172e+9 
           3950      1.37122e+9 
           3970      1.21952e+9 
           3990      1.33755e+9 
           4010      1.31529e+9 
           4030       1.2719e+9 
           4050      1.27062e+9 
           4070      1.21775e+9 
           4090      1.16944e+9 
           4110       1.0897e+9 
           4130      1.16445e+9 
           4150      1.15236e+9 
           4170      1.14478e+9 
           4190      1.12707e+9 
           4210       1.1115e+9 
           4230      1.09238e+9 
           4250      1.06302e+9 
           4270      1.03777e+9 
           4290       1.0211e+9 
           4310      9.93533e+8 
           4330      9.53533e+8 
           4350      8.93041e+8 
           4370       9.4898e+8 
           4390      9.41076e+8 
           4410      9.26806e+8 
           4430      9.20895e+8 
           4450      9.03275e+8 
           4470       8.7843e+8 
           4490      8.78396e+8 
           4510      8.62565e+8 
           4530      8.52653e+8 
           4550      8.37694e+8 
           4570      8.26861e+8 
           4590      8.11642e+8 
           4610      7.95184e+8 
           4630      7.81106e+8 
           4650      7.45392e+8 
           4670      7.57694e+8 
           4690      7.48078e+8 
           4710      7.28611e+8 
           4730       7.3137e+8 
           4750      7.18796e+8 
           4770      7.15364e+8 
           4790      7.03721e+8 
           4810        6.907e+8 
           4830      6.78597e+8 
           4850      6.57108e+8 
           4870      6.03259e+8 
           4890      6.50026e+8 
           4910      6.40866e+8 
           4930      6.24005e+8 
           4950      6.19095e+8 
           4970       6.1577e+8 
           4990      6.06229e+8 
           5010      5.84484e+8 
           5030      5.86679e+8 
           5050      5.76679e+8 
           5070      5.72197e+8 
           5090      5.63085e+8 
           5110      5.54445e+8 
           5130      5.44347e+8 
           5150      5.37485e+8 
           5170      5.30967e+8 
           5190      5.24449e+8 
           5210      5.17363e+8 
           5230      5.09915e+8 
           5250      5.01951e+8 
           5270      4.94363e+8 
           5290      4.89057e+8 
           5310      4.82067e+8 
           5330       4.7587e+8 
           5350      4.69265e+8 
           5370      4.62993e+8 
           5390       4.5605e+8 
           5410      4.49183e+8 
           5430      4.44564e+8 
           5450      4.38339e+8 
           5470       4.3237e+8 
           5490      4.26538e+8 
           5510      4.21275e+8 
           5530      4.15092e+8 
           5550      4.10418e+8 
           5570      4.04683e+8 
           5590      3.99104e+8 
           5610       3.9442e+8 
           5630      3.89341e+8 
           5650      3.83686e+8 
           5670      3.77246e+8 
           5690      3.69002e+8 
           5710      3.65254e+8 
           5730      3.61068e+8 
           5750      3.55279e+8 
           5770      3.52504e+8 
           5790      3.47747e+8 
           5810      3.43281e+8 
           5830      3.38347e+8 
           5850      3.35278e+8 
           5870      3.24808e+8 
           5890      3.25625e+8 
           5910      3.22907e+8 
           5930       3.1874e+8 
           5950       3.1526e+8 
           5970      3.13119e+8 
           5990      3.08008e+8 
           6010      3.05033e+8 
           6030      3.00692e+8 
           6050      2.97297e+8 
           6070      2.94135e+8 
           6090      2.90683e+8 
           6110      2.87017e+8 
           6130      2.83733e+8 
           6150      2.79301e+8 
           6170      2.76197e+8 
           6190      2.73452e+8 
           6210      2.70452e+8 
           6230      2.67195e+8 
           6250      2.63655e+8 
           6270      2.60749e+8 
           6290      2.57865e+8 
           6310      2.54492e+8 
           6330      2.51881e+8 
           6350      2.48615e+8 
           6370      2.46091e+8 
           6390      2.43122e+8 
           6410       2.4026e+8 
           6430      2.37628e+8 
           6450      2.34772e+8 
           6470      2.31361e+8 
           6490      2.28837e+8 
           6510      2.26499e+8 
           6530      2.23621e+8 
           6550      2.18885e+8 
           6570      1.98825e+8 
           6590      2.15022e+8 
           6610      2.13895e+8 
           6630      2.11758e+8 
           6650      2.09191e+8 
           6670      2.05424e+8 
           6690      2.03137e+8 
           6710      2.02329e+8 
           6730      1.99507e+8 
           6750      1.97946e+8 
           6770      1.95931e+8 
           6790      1.92654e+8 
           6810      1.91476e+8 
           6830      1.89338e+8 
           6850      1.87439e+8 
           6870      1.85328e+8 
           6890      1.82936e+8 
           6910      1.80798e+8 
           6930      1.79505e+8 
           6950      1.77568e+8 
           6970      1.75667e+8 
           6990      1.73753e+8 
           7010      1.71843e+8 
           7030      1.69822e+8 
           7050      1.68163e+8 
           7070       1.6416e+8 
           7090      1.64719e+8 
           7110      1.62006e+8 
           7130      1.60446e+8 
           7150      1.59586e+8 
           7170      1.57803e+8 
           7190      1.56256e+8 
           7210      1.54644e+8 
           7230      1.51253e+8 
           7250      1.51064e+8 
           7270      1.49878e+8 
           7290      1.47306e+8 
           7310      1.46755e+8 
           7330      1.45226e+8 
           7350      1.43795e+8 
           7370       1.4235e+8 
           7390      1.40904e+8 
           7410      1.39472e+8 
           7430      1.38054e+8 
           7450      1.36641e+8 
           7470      1.34709e+8 
           7490      1.33702e+8 
           7510      1.32516e+8 
           7530      1.31129e+8 
           7550      1.29953e+8 
           7570      1.28642e+8 
           7590      1.27207e+8 
           7610      1.25862e+8 
           7630      1.24796e+8 
           7650      1.23578e+8 
           7670      1.22422e+8 
           7690      1.21111e+8 
           7710      1.19932e+8 
           7730      1.18681e+8 
           7750      1.17681e+8 
           7770      1.16489e+8 
           7790      1.15445e+8 
           7810      1.14274e+8 
           7830      1.13217e+8 
           7850      1.12158e+8 
           7870       1.1089e+8 
           7890      1.09711e+8 
           7910      1.08838e+8 
           7930      1.07756e+8 
           7950      1.06833e+8 
           7970      1.05752e+8 
           7990       1.0481e+8 
           8010       1.0373e+8 
           8030      1.02746e+8 
           8050      1.01882e+8 
           8070      1.00943e+8 
           8090      9.98923e+7 
           8110      9.84322e+7 
           8130      9.81708e+7 
           8150      9.71281e+7 
           8170      9.63822e+7 
           8190      9.50528e+7 
           8210      9.38916e+7 
           8230      9.28685e+7 
           8250      9.24796e+7 
           8270      9.08541e+7 
           8290      9.06794e+7 
           8310      8.99488e+7 
           8330      8.90722e+7 
           8350       8.7922e+7 
           8370      8.72926e+7 
           8390       8.6695e+7 
           8410      8.58144e+7 
           8430      8.50525e+7 
           8450      8.39064e+7 
           8470      8.33111e+7 
           8490      8.28354e+7 
           8510      8.13229e+7 
           8530       8.1584e+7 
           8550      7.92702e+7 
           8570      8.08909e+7 
