# Kurucz ODFNEW /NOVER (2003)
# teff = 8500 K (value for the effective temperature for the model. Temperatures are given in K)
# logg = 4 log(cm/s2) (value for Log(G) for the model.)
# meta = -4  (value for the Metallicity for the model.)
# lh = 1.25  (l/Hp where l is the  mixing length of the convective element and Hp is the pressure scale height)
# vtur = 2 km/s (Microturbulence velocity)
# alpha = 0.4  (Alpha)
#
# column 1: WAVELENGTH (ANGSTROM), Wavelength in Angstrom
# column 2: FLUX (ERG/CM2/S/A), Flux in erg/cm2/s/A
          147.2     1.73866e-35 
            151     1.65225e-35 
          155.2     1.56403e-35 
          158.8     1.49392e-35 
            162     1.43549e-35 
            166     1.36714e-35 
          170.3     1.29897e-35 
          173.4     1.25294e-35 
          176.8     1.20522e-35 
          180.2     1.16017e-35 
          181.7     1.14109e-35 
          186.1     1.08777e-35 
            191     1.03267e-35 
          193.9     1.00201e-35 
          198.4     9.57076e-36 
          201.8     9.25097e-36 
            205     8.96441e-36 
          210.5     8.50208e-36 
          216.2     8.05969e-36 
          219.8     7.79784e-36 
            223     7.57565e-36 
          226.8     7.32392e-36 
            230     7.12154e-36 
            234     6.88015e-36 
            240     6.54044e-36 
          246.5     6.20006e-36 
          252.4     5.91358e-36 
          256.8     5.71267e-36 
            260     5.57292e-36 
            264     5.40532e-36 
          268.5     5.22566e-36 
          273.5     5.77315e-23 
          278.5     2.81091e-22 
            284     1.31213e-21 
            290     6.53252e-21 
            296     3.03646e-20 
            301     1.04211e-19 
            308     5.46763e-19 
            318     5.13102e-18 
            328     4.18806e-17 
            338     3.00885e-16 
            348     1.92515e-15 
            357     9.33333e-15 
            366     4.17716e-14 
            375     1.73522e-13 
            385       7.789e-13 
            395      3.2309e-12 
            405     1.24607e-11 
            414     3.96257e-11 
            422     1.06126e-10 
            430     2.73552e-10 
            441     9.48308e-10 
            451       2.7786e-9 
            460      7.01258e-9 
            470       1.8787e-8 
            480      4.81949e-8 
            490      1.18752e-7 
            500      2.81658e-7 
            506        4.889e-7 
            512      8.16105e-7 
            520      1.53381e-6 
            530      3.28783e-6 
            540      6.81588e-6 
            550      1.37727e-5 
            560      2.70642e-5 
            570      5.18609e-5 
            580      9.68656e-5 
            590     0.000177564 
            600     0.000317939 
            610     0.000557794 
            620     0.000959837 
            630       0.0016212 
            640      0.00269073 
            650      0.00439307 
            658      0.00642808 
            665      0.00889634 
            675       0.0139744 
            685       0.0216407 
            695       0.0330577 
            705       0.0498471 
            716       0.0771968 
            726        0.113503 
            735        0.159018 
            745        0.228892 
            755        0.326028 
            765        0.459736 
            775        0.642032 
            785        0.888231 
            795         1.21788 
            805         1.65592 
            815         2.23324 
            825         2.98782 
            835         3.96692 
            845         5.22781 
            855         6.84016 
            865         8.88874 
            875         11.4762 
            885         14.7233 
            895         18.7733 
            905         23.7939 
            915         48.2012 
            925         151.308 
            935         241.674 
            945         425.781 
            955         652.319 
            965         865.864 
            975         643.269 
            985         1753.06 
            995         2711.43 
           1005         2659.53 
           1015         1925.25 
           1025          1317.7 
           1035         2728.94 
           1045         5213.72 
           1055          8646.3 
           1065         33180.2 
           1075          136899 
           1085          410899 
           1095          588364 
           1105          608308 
           1115          460872 
           1125          327697 
           1135          222117 
           1145         89944.9 
           1155         31682.5 
           1165         20590.9 
           1175         17746.8 
           1185         23611.6 
           1195         16266.9 
           1205         12967.4 
           1215         7648.79 
           1225         14919.3 
           1235         23837.6 
           1245           23499 
           1255           34582 
           1265         48398.2 
           1275         73082.9 
           1285          250008 
           1295          527436 
           1305      1.31517e+6 
           1315      2.03545e+6 
           1325      3.15396e+6 
           1335      4.39927e+6 
           1345      5.85911e+6 
           1355      7.00428e+6 
           1365      8.18635e+6 
           1375      7.29099e+6 
           1385       5.9325e+6 
           1395      5.23639e+6 
           1405      9.86087e+6 
           1415      1.75218e+7 
           1425      1.88529e+7 
           1435      2.03876e+7 
           1442      2.15725e+7 
           1447      2.01732e+7 
           1455      2.26515e+7 
           1465      2.08531e+7 
           1475      2.22198e+7 
           1485      2.25707e+7 
           1495      2.30502e+7 
           1505      2.39591e+7 
           1512      2.44381e+7 
           1517      2.22506e+7 
           1525      2.30901e+7 
           1535      2.24529e+7 
           1545       2.0585e+7 
           1555       1.9877e+7 
           1565      1.67182e+7 
           1575      1.57533e+7 
           1585      1.42179e+7 
           1595      1.32525e+7 
           1605      1.31506e+7 
           1615      1.77313e+7 
           1625       2.3657e+7 
           1635      2.92832e+7 
           1645      3.58293e+7 
           1655      3.62958e+7 
           1665      4.21992e+7 
           1672      4.29247e+7 
           1677      4.41373e+7 
           1685      4.48377e+7 
           1695      4.51521e+7 
           1705      4.51968e+7 
           1715      4.57971e+7 
           1725      4.56614e+7 
           1735      4.59576e+7 
           1745      4.54905e+7 
           1755       4.5601e+7 
           1765      4.54304e+7 
           1775      4.53564e+7 
           1785      4.50648e+7 
           1795      4.51686e+7 
           1805       4.4459e+7 
           1815      4.45503e+7 
           1825      4.41924e+7 
           1835      4.44213e+7 
           1845      4.38681e+7 
           1855      4.40423e+7 
           1865      4.40305e+7 
           1875      4.38889e+7 
           1885      4.37479e+7 
           1895      4.36179e+7 
           1905      4.33812e+7 
           1915      4.33217e+7 
           1925      4.32083e+7 
           1935      4.25727e+7 
           1945      4.29337e+7 
           1955      4.27894e+7 
           1967      4.26252e+7 
           1976      4.24453e+7 
           1984       4.2297e+7 
           1995      4.22275e+7 
           2005      4.20444e+7 
           2015      4.18583e+7 
           2025      4.16664e+7 
           2035      4.16709e+7 
           2045       4.1531e+7 
           2055      4.11626e+7 
           2065      4.11297e+7 
           2074      4.11843e+7 
           2078      4.11376e+7 
           2085      4.10403e+7 
           2095      4.09207e+7 
           2105      4.07972e+7 
           2115      4.06701e+7 
           2125      4.04717e+7 
           2135        4.041e+7 
           2145      4.03305e+7 
           2155      4.01956e+7 
           2165      3.99079e+7 
           2175      3.98723e+7 
           2185      3.98333e+7 
           2195      3.97691e+7 
           2205      3.95494e+7 
           2215      3.91424e+7 
           2225      3.92548e+7 
           2235      3.93335e+7 
           2245      3.92425e+7 
           2255      3.90078e+7 
           2265      3.88249e+7 
           2275      3.88578e+7 
           2285      3.87947e+7 
           2295      3.86255e+7 
           2305      3.86073e+7 
           2315      3.84854e+7 
           2325      3.83655e+7 
           2335      3.78296e+7 
           2345      3.72453e+7 
           2355      3.78874e+7 
           2365      3.71285e+7 
           2375      3.74884e+7 
           2385      3.66939e+7 
           2395      3.71789e+7 
           2405      3.71087e+7 
           2415      3.70107e+7 
           2425      3.74915e+7 
           2435      3.73271e+7 
           2445      3.72348e+7 
           2455      3.72346e+7 
           2465      3.70621e+7 
           2475       3.6976e+7 
           2485      3.68443e+7 
           2495      3.66367e+7 
           2505      3.67801e+7 
           2513      3.65236e+7 
           2518      3.64476e+7 
           2525      3.63829e+7 
           2535      3.62447e+7 
           2545      3.63757e+7 
           2555      3.64297e+7 
           2565       3.6038e+7 
           2575      3.61336e+7 
           2585      3.59521e+7 
           2595      3.57824e+7 
           2605       3.5621e+7 
           2615      3.55231e+7 
           2625      3.54875e+7 
           2635      3.54694e+7 
           2645      3.58786e+7 
           2655      3.58049e+7 
           2665      3.56794e+7 
           2675      3.56322e+7 
           2685      3.56003e+7 
           2695      3.55171e+7 
           2705      3.54553e+7 
           2715      3.52896e+7 
           2725      3.51869e+7 
           2735      3.51557e+7 
           2745      3.45235e+7 
           2755      3.45994e+7 
           2765      3.49237e+7 
           2775       3.4986e+7 
           2785      3.48965e+7 
           2795      3.39451e+7 
           2805      3.43039e+7 
           2815       3.4749e+7 
           2825      3.46814e+7 
           2835      3.45815e+7 
           2845      3.45306e+7 
           2855      3.43063e+7 
           2865      3.43876e+7 
           2875      3.43438e+7 
           2885      3.42578e+7 
           2895      3.42413e+7 
           2910      3.41544e+7 
           2930      3.39771e+7 
           2950      3.38582e+7 
           2970      3.37706e+7 
           2990      3.36402e+7 
           3010      3.35369e+7 
           3030      3.34177e+7 
           3050      3.32968e+7 
           3070      3.31625e+7 
           3090      3.30542e+7 
           3110      3.29362e+7 
           3130      3.28139e+7 
           3150      3.26894e+7 
           3170       3.2577e+7 
           3190       3.2433e+7 
           3210      3.23376e+7 
           3230       3.2194e+7 
           3250         3.21e+7 
           3270      3.19918e+7 
           3290      3.18752e+7 
           3310       3.1758e+7 
           3330      3.16324e+7 
           3350      3.15019e+7 
           3370      3.13879e+7 
           3390      3.12717e+7 
           3410      3.11622e+7 
           3430      3.10426e+7 
           3450      3.09227e+7 
           3470      3.08028e+7 
           3490      3.06837e+7 
           3510      3.05647e+7 
           3530      3.04446e+7 
           3550      3.03237e+7 
           3570      3.02036e+7 
           3590      3.00814e+7 
           3610      2.99629e+7 
           3630      2.98395e+7 
           3640      2.97782e+7 
           3650      2.98725e+7 
           3670      2.97604e+7 
           3690      2.86917e+7 
           3710      2.99898e+7 
           3730      3.12775e+7 
           3750      3.96219e+7 
           3770      4.20441e+7 
           3790      5.03273e+7 
           3810      5.93197e+7 
           3830      4.79718e+7 
           3850      6.65316e+7 
           3870        7.593e+7 
           3890      4.16361e+7 
           3910      7.62645e+7 
           3930       8.5047e+7 
           3950      7.58143e+7 
           3970      4.04555e+7 
           3990      7.17462e+7 
           4010      8.41029e+7 
           4030      8.53857e+7 
           4050      8.39519e+7 
           4070      7.88669e+7 
           4090      5.77004e+7 
           4110      4.40667e+7 
           4130      7.35264e+7 
           4150      7.89201e+7 
           4170       7.9506e+7 
           4190      7.90385e+7 
           4210      7.82489e+7 
           4230      7.73044e+7 
           4250      7.62302e+7 
           4270      7.48959e+7 
           4290      7.28236e+7 
           4310      6.77971e+7 
           4330      4.85819e+7 
           4350      4.13691e+7 
           4370      6.42319e+7 
           4390      6.84705e+7 
           4410      6.89957e+7 
           4430       6.8664e+7 
           4450      6.80805e+7 
           4470      6.73784e+7 
           4490      6.66841e+7 
           4510      6.60736e+7 
           4530      6.53263e+7 
           4550      6.45876e+7 
           4570       6.3863e+7 
           4590      6.31485e+7 
           4610      6.24476e+7 
           4630      6.17528e+7 
           4650      6.10677e+7 
           4670      6.03938e+7 
           4690      5.96571e+7 
           4710      5.89223e+7 
           4730       5.8228e+7 
           4750      5.74983e+7 
           4770      5.66992e+7 
           4790      5.57194e+7 
           4810      5.42051e+7 
           4830       5.0747e+7 
           4850      3.88365e+7 
           4870       3.1699e+7 
           4890       4.7666e+7 
           4910      5.10352e+7 
           4930      5.15938e+7 
           4950      5.14575e+7 
           4970      5.10976e+7 
           4990       5.0654e+7 
           5010      5.01739e+7 
           5030      4.97682e+7 
           5050      4.92566e+7 
           5070      4.87486e+7 
           5090      4.82485e+7 
           5110      4.77532e+7 
           5130      4.72656e+7 
           5150      4.67856e+7 
           5170      4.63031e+7 
           5190      4.58379e+7 
           5210      4.53784e+7 
           5230      4.49218e+7 
           5250      4.44708e+7 
           5270      4.40254e+7 
           5290      4.35854e+7 
           5310      4.31508e+7 
           5330      4.27228e+7 
           5350         4.23e+7 
           5370      4.18836e+7 
           5390       4.1471e+7 
           5410      4.10645e+7 
           5430      4.06629e+7 
           5450      4.02661e+7 
           5470      3.98752e+7 
           5490       3.9489e+7 
           5510      3.91073e+7 
           5530      3.87313e+7 
           5550      3.83597e+7 
           5570      3.79924e+7 
           5590      3.76294e+7 
           5610      3.72718e+7 
           5630      3.69172e+7 
           5650      3.65666e+7 
           5670      3.62212e+7 
           5690      3.58797e+7 
           5710      3.55421e+7 
           5730      3.52096e+7 
           5750      3.48796e+7 
           5770      3.45545e+7 
           5790       3.4233e+7 
           5810      3.39151e+7 
           5830      3.36008e+7 
           5850      3.32911e+7 
           5870      3.29783e+7 
           5890      3.26808e+7 
           5910      3.23824e+7 
           5930      3.20872e+7 
           5950      3.17952e+7 
           5970      3.15064e+7 
           5990      3.12208e+7 
           6010      3.09382e+7 
           6030      3.06598e+7 
           6050      3.03843e+7 
           6070      3.01119e+7 
           6090      2.98423e+7 
           6110      2.95766e+7 
           6130      2.93127e+7 
           6150      2.90527e+7 
           6170      2.87953e+7 
           6190      2.85407e+7 
           6210      2.82898e+7 
           6230      2.80405e+7 
           6250      2.77948e+7 
           6270      2.75516e+7 
           6290       2.7311e+7 
           6310      2.70738e+7 
           6330      2.68381e+7 
           6350      2.66058e+7 
           6370      2.63759e+7 
           6390      2.61483e+7 
           6410      2.59019e+7 
           6430      2.56335e+7 
           6450      2.53824e+7 
           6470      2.51106e+7 
           6490       2.4787e+7 
           6510      2.43193e+7 
           6530      2.33516e+7 
           6550       2.0113e+7 
           6570      1.63496e+7 
           6590      2.19541e+7 
           6610      2.30985e+7 
           6630      2.32884e+7 
           6650       2.3238e+7 
           6670       2.3109e+7 
           6690      2.29508e+7 
           6710      2.27967e+7 
           6730      2.26348e+7 
           6750      2.24479e+7 
           6770       2.2262e+7 
           6790      2.20788e+7 
           6810      2.18973e+7 
           6830      2.17176e+7 
           6850      2.15396e+7 
           6870      2.13632e+7 
           6890      2.11894e+7 
           6910      2.10172e+7 
           6930      2.08467e+7 
           6950      2.06777e+7 
           6970      2.05104e+7 
           6990      2.03446e+7 
           7010      2.01811e+7 
           7030      2.00192e+7 
           7050       1.9858e+7 
           7070      1.96991e+7 
           7090      1.95424e+7 
           7110      1.93864e+7 
           7130      1.92326e+7 
           7150      1.90795e+7 
           7170      1.89285e+7 
           7190      1.87789e+7 
           7210      1.86306e+7 
           7230      1.84844e+7 
           7250      1.83389e+7 
           7270      1.81954e+7 
           7290      1.80531e+7 
           7310      1.79122e+7 
           7330      1.77725e+7 
           7350      1.76341e+7 
           7370      1.74976e+7 
           7390      1.73616e+7 
           7410      1.72275e+7 
           7430      1.70946e+7 
           7450      1.69629e+7 
           7470      1.68324e+7 
           7490      1.67037e+7 
           7510      1.65754e+7 
           7530      1.64489e+7 
           7550      1.63236e+7 
           7570      1.61993e+7 
           7590      1.60761e+7 
           7610      1.59546e+7 
           7630      1.58336e+7 
           7650      1.57142e+7 
           7670      1.55959e+7 
           7690      1.54785e+7 
           7710      1.53622e+7 
           7730      1.52469e+7 
           7750      1.51325e+7 
           7770      1.50185e+7 
           7790       1.4908e+7 
           7810      1.47971e+7 
           7830      1.46872e+7 
           7850      1.45783e+7 
           7870      1.44702e+7 
           7890      1.43636e+7 
           7910      1.42574e+7 
           7930      1.41526e+7 
           7950      1.40487e+7 
           7970      1.39457e+7 
           7990      1.38435e+7 
           8010      1.37427e+7 
           8030      1.36422e+7 
           8050      1.35431e+7 
           8070      1.34449e+7 
           8090      1.33474e+7 
           8110      1.32507e+7 
           8130      1.31548e+7 
           8150      1.30603e+7 
           8170      1.29659e+7 
           8190      1.28729e+7 
           8210      1.28035e+7 
           8230       1.2718e+7 
           8250      1.26349e+7 
           8270      1.25529e+7 
           8290       1.2471e+7 
           8310      1.23881e+7 
           8330      1.23038e+7 
           8350      1.22173e+7 
           8370      1.21224e+7 
           8390       1.2024e+7 
           8410      1.19185e+7 
           8430      1.18333e+7 
           8450      1.17663e+7 
           8470      1.15013e+7 
           8490       1.1652e+7 
           8510      1.12067e+7 
           8530      1.15803e+7 
           8550      1.06877e+7 
           8570      1.15971e+7 
           8590      1.08503e+7 
