# Kurucz ODFNEW /NOVER (2003)
# teff = 9500 K (value for the effective temperature for the model. Temperatures are given in K)
# logg = 3.5 log(cm/s2) (value for Log(G) for the model.)
# meta = -1  (value for the Metallicity for the model.)
# lh = 1.25  (l/Hp where l is the  mixing length of the convective element and Hp is the pressure scale height)
# vtur = 2 km/s (Microturbulence velocity)
# alpha = 0.4  (Alpha)
#
# column 1: WAVELENGTH (ANGSTROM), Wavelength in Angstrom
# column 2: FLUX (ERG/CM2/S/A), Flux in erg/cm2/s/A
          273.5     1.82235e-23 
          278.5     1.24668e-22 
            284     6.03002e-22 
            290     3.02853e-21 
            296     1.41673e-20 
            301     4.88953e-20 
            308     2.58557e-19 
            318     2.45341e-18 
            328     2.02585e-17 
            338      1.4727e-16 
            348     9.53582e-16 
            357     4.67538e-15 
            366     2.11583e-14 
            375     8.88505e-14 
            385     4.03709e-13 
            395      1.6946e-12 
            405     6.61358e-12 
            414     2.12558e-11 
            422     5.74643e-11 
            430     1.49447e-10 
            441      5.2478e-10 
            451      1.55497e-9 
            460      3.96331e-9 
            470      1.07285e-8 
            480      2.78067e-8 
            490      6.92109e-8 
            500      1.65806e-7 
            506      3.01768e-7 
            512      5.13407e-7 
            520      9.69214e-7 
            530      2.09072e-6 
            540      4.35241e-6 
            550      8.85881e-6 
            560      1.75078e-5 
            570       3.3741e-5 
            580      6.33116e-5 
            590     0.000116796 
            600     0.000210288 
            610     0.000370959 
            620     0.000641871 
            630      0.00109013 
            640      0.00181908 
            650       0.0029853 
            658      0.00438574 
            665      0.00609097 
            675      0.00961533 
            685       0.0149632 
            695       0.0229699 
            705       0.0348037 
            716       0.0541877 
            726       0.0800238 
            735        0.112553 
            745        0.162706 
            755        0.232736 
            765         0.32954 
            775        0.462092 
            785        0.641918 
            795        0.883551 
            805         1.20613 
            815         1.63255 
            825         2.19199 
            835         2.91998 
            845         3.86224 
            855         5.07104 
            865         6.61243 
            875         8.56372 
            885         11.0211 
            895         14.0947 
            905          17.915 
            915         134.097 
            925         947.476 
            935         1680.37 
            945         3095.68 
            955         4800.28 
            965          6424.7 
            975          4719.5 
            985         10257.5 
            995         12503.3 
           1005           14481 
           1015         13832.8 
           1025         8293.16 
           1035         17846.8 
           1045         25514.9 
           1055         35671.7 
           1065           45348 
           1075         61235.1 
           1085         75040.3 
           1095         81486.9 
           1105      1.59544e+6 
           1115      1.56916e+7 
           1125      1.97511e+7 
           1135      2.18933e+7 
           1145      1.84861e+7 
           1155      1.48263e+7 
           1165      1.06674e+7 
           1175      4.38036e+6 
           1185      3.57809e+6 
           1195         87706.8 
           1205         65085.9 
           1215           17466 
           1225         69392.3 
           1235          147071 
           1245          551766 
           1255      5.15788e+6 
           1265      1.03871e+7 
           1275      2.63818e+7 
           1285      4.36363e+7 
           1295      4.84889e+7 
           1305      3.16333e+7 
           1315       5.9661e+7 
           1325      6.95167e+7 
           1335      7.14533e+7 
           1345      8.24399e+7 
           1355      7.79754e+7 
           1365      7.24475e+7 
           1375      7.66939e+7 
           1385      7.53488e+7 
           1395      7.70582e+7 
           1405      8.42707e+7 
           1415       8.5082e+7 
           1425      8.95023e+7 
           1435      8.23464e+7 
           1442      9.09047e+7 
           1447      9.59668e+7 
           1455      9.74467e+7 
           1465      9.16975e+7 
           1475      8.81986e+7 
           1485      9.01052e+7 
           1495      9.48387e+7 
           1505       9.5798e+7 
           1512      9.21512e+7 
           1517      9.62627e+7 
           1525      9.08573e+7 
           1535      9.00259e+7 
           1545      9.91055e+7 
           1555      8.87767e+7 
           1565      7.87814e+7 
           1575      9.01964e+7 
           1585      9.63438e+7 
           1595      1.01131e+8 
           1605      9.61528e+7 
           1615      9.61502e+7 
           1625      8.87673e+7 
           1635      9.14376e+7 
           1645      9.55472e+7 
           1655      8.27903e+7 
           1665      9.44329e+7 
           1672      7.88972e+7 
           1677      8.94748e+7 
           1685       9.5454e+7 
           1695       8.9242e+7 
           1705      8.71732e+7 
           1715      8.92848e+7 
           1725      8.78918e+7 
           1735      9.13231e+7 
           1745      8.87491e+7 
           1755       9.3367e+7 
           1765       8.4137e+7 
           1775      9.09675e+7 
           1785      8.98494e+7 
           1795      9.43968e+7 
           1805      9.00351e+7 
           1815      8.94254e+7 
           1825      8.62447e+7 
           1835       8.5644e+7 
           1845      8.07583e+7 
           1855      8.36528e+7 
           1865      8.37849e+7 
           1875      8.57483e+7 
           1885      8.60507e+7 
           1895      8.42878e+7 
           1905      8.06553e+7 
           1915      8.28774e+7 
           1925      8.37347e+7 
           1935      8.21299e+7 
           1945      8.50787e+7 
           1955      8.41662e+7 
           1967      8.45747e+7 
           1976      8.25962e+7 
           1984      8.13619e+7 
           1995       8.0488e+7 
           2005       7.9272e+7 
           2015      7.63373e+7 
           2025      7.65333e+7 
           2035      7.80909e+7 
           2045      7.86181e+7 
           2055      7.52937e+7 
           2065      7.54488e+7 
           2074      7.69508e+7 
           2078      7.85463e+7 
           2085      7.81506e+7 
           2095      7.60519e+7 
           2105      7.54033e+7 
           2115      7.48604e+7 
           2125      7.48357e+7 
           2135      6.83766e+7 
           2145      7.35179e+7 
           2155      7.28129e+7 
           2165      7.03591e+7 
           2175      6.98824e+7 
           2185       6.9728e+7 
           2195      7.25994e+7 
           2205       7.0003e+7 
           2215      6.58048e+7 
           2225      6.55731e+7 
           2235      7.03566e+7 
           2245      6.58728e+7 
           2255      6.46075e+7 
           2265      6.42468e+7 
           2275      6.75855e+7 
           2285      6.84989e+7 
           2295      6.52611e+7 
           2305      6.49705e+7 
           2315      6.39485e+7 
           2325      6.41941e+7 
           2335      6.25724e+7 
           2345      5.84137e+7 
           2355      6.28278e+7 
           2365      5.89528e+7 
           2375      6.12745e+7 
           2385      5.57548e+7 
           2395       5.9573e+7 
           2405      5.77272e+7 
           2415      5.85245e+7 
           2425      6.02844e+7 
           2435      5.78867e+7 
           2445      6.04756e+7 
           2455      5.88726e+7 
           2465      5.83797e+7 
           2475       5.6444e+7 
           2485      5.90196e+7 
           2495      5.74854e+7 
           2505      6.05887e+7 
           2513      5.75447e+7 
           2518      5.74008e+7 
           2525      5.44966e+7 
           2535      5.39854e+7 
           2545      5.44775e+7 
           2555      5.67885e+7 
           2565      5.65625e+7 
           2575      5.87767e+7 
           2585      5.89769e+7 
           2595      5.86966e+7 
           2605      5.67923e+7 
           2615      5.65186e+7 
           2625      5.75157e+7 
           2635      5.78016e+7 
           2645      6.12964e+7 
           2655      6.06805e+7 
           2665      5.81255e+7 
           2675      5.92501e+7 
           2685      5.96091e+7 
           2695      5.77619e+7 
           2705      5.80924e+7 
           2715       5.6408e+7 
           2725      5.64768e+7 
           2735      5.86683e+7 
           2745      5.37369e+7 
           2755       5.3824e+7 
           2765      5.52931e+7 
           2775      5.71653e+7 
           2785      5.62941e+7 
           2795      4.62505e+7 
           2805      5.04044e+7 
           2815      5.75062e+7 
           2825      5.72697e+7 
           2835      5.59758e+7 
           2845      5.47406e+7 
           2855       5.3572e+7 
           2865      5.50851e+7 
           2875      5.43561e+7 
           2885      5.52111e+7 
           2895      5.47539e+7 
           2910      5.69225e+7 
           2930      5.52002e+7 
           2950       5.5043e+7 
           2970      5.51583e+7 
           2990      5.50339e+7 
           3010       5.5411e+7 
           3030       5.5121e+7 
           3050      5.45098e+7 
           3070        5.367e+7 
           3090      5.39876e+7 
           3110      5.32993e+7 
           3130      5.29472e+7 
           3150      5.29187e+7 
           3170      5.26054e+7 
           3190      5.13814e+7 
           3210      5.17815e+7 
           3230      5.08859e+7 
           3250       5.1089e+7 
           3270      5.11565e+7 
           3290      5.12221e+7 
           3310      5.11104e+7 
           3330      5.02571e+7 
           3350      4.95547e+7 
           3370      4.96284e+7 
           3390       4.9215e+7 
           3410      4.95692e+7 
           3430      4.93099e+7 
           3450      4.90215e+7 
           3470       4.8602e+7 
           3490      4.83898e+7 
           3510      4.83048e+7 
           3530      4.81792e+7 
           3550      4.79667e+7 
           3570      4.74987e+7 
           3590       4.7234e+7 
           3610      4.70099e+7 
           3630      4.67277e+7 
           3640      4.65339e+7 
           3650      4.69805e+7 
           3670      4.66097e+7 
           3690      4.47086e+7 
           3710      4.80953e+7 
           3730      5.18863e+7 
           3750      7.02612e+7 
           3770      7.59826e+7 
           3790      9.51757e+7 
           3810      1.11196e+8 
           3830      8.72193e+7 
           3850      1.21489e+8 
           3870      1.36164e+8 
           3890      7.48251e+7 
           3910      1.33648e+8 
           3930      1.37128e+8 
           3950      1.32505e+8 
           3970      7.11227e+7 
           3990      1.26099e+8 
           4010      1.35439e+8 
           4030      1.34207e+8 
           4050      1.32653e+8 
           4070      1.28066e+8 
           4090      1.01776e+8 
           4110      7.69356e+7 
           4130      1.20924e+8 
           4150       1.2395e+8 
           4170      1.22455e+8 
           4190      1.21331e+8 
           4210      1.19933e+8 
           4230      1.17776e+8 
           4250       1.1634e+8 
           4270      1.14584e+8 
           4290       1.1247e+8 
           4310      1.07676e+8 
           4330       8.2377e+7 
           4350      6.95444e+7 
           4370      1.03683e+8 
           4390      1.04532e+8 
           4410      1.04214e+8 
           4430      1.03369e+8 
           4450      1.02222e+8 
           4470      1.00798e+8 
           4490      9.86667e+7 
           4510      9.81844e+7 
           4530      9.68714e+7 
           4550      9.51172e+7 
           4570      9.45589e+7 
           4590      9.32807e+7 
           4610      9.26946e+7 
           4630      9.10977e+7 
           4650      9.03767e+7 
           4670      8.92156e+7 
           4690      8.79836e+7 
           4710      8.62157e+7 
           4730      8.59445e+7 
           4750      8.48933e+7 
           4770      8.36928e+7 
           4790      8.24979e+7 
           4810      8.09763e+7 
           4830      7.80931e+7 
           4850      6.17598e+7 
           4870      4.96055e+7 
           4890       7.3967e+7 
           4910      7.60488e+7 
           4930      7.54252e+7 
           4950      7.50276e+7 
           4970      7.43548e+7 
           4990      7.34408e+7 
           5010      7.22042e+7 
           5030      7.16877e+7 
           5050      7.05744e+7 
           5070      7.01037e+7 
           5090      6.93009e+7 
           5110      6.84911e+7 
           5130      6.76933e+7 
           5150      6.68887e+7 
           5170       6.5535e+7 
           5190      6.49386e+7 
           5210      6.46283e+7 
           5230      6.37039e+7 
           5250      6.32085e+7 
           5270      6.22441e+7 
           5290      6.17945e+7 
           5310      6.09584e+7 
           5330      6.02857e+7 
           5350      5.97726e+7 
           5370      5.90852e+7 
           5390      5.84336e+7 
           5410      5.77449e+7 
           5430      5.71325e+7 
           5450      5.65579e+7 
           5470      5.59285e+7 
           5490      5.53305e+7 
           5510      5.47335e+7 
           5530       5.4108e+7 
           5550       5.3572e+7 
           5570      5.29912e+7 
           5590      5.24198e+7 
           5610       5.1872e+7 
           5630      5.13258e+7 
           5650      5.07672e+7 
           5670       5.0228e+7 
           5690      4.97091e+7 
           5710       4.9187e+7 
           5730      4.86802e+7 
           5750       4.8161e+7 
           5770      4.76647e+7 
           5790      4.71663e+7 
           5810      4.66803e+7 
           5830      4.61977e+7 
           5850      4.57216e+7 
           5870      4.52039e+7 
           5890      4.47031e+7 
           5910      4.43299e+7 
           5930      4.38803e+7 
           5950      4.34123e+7 
           5970      4.29909e+7 
           5990        4.253e+7 
           6010      4.21233e+7 
           6030      4.17055e+7 
           6050       4.1282e+7 
           6070      4.08785e+7 
           6090      4.04713e+7 
           6110      4.00685e+7 
           6130      3.96661e+7 
           6150      3.91516e+7 
           6170      3.88823e+7 
           6190      3.85135e+7 
           6210      3.81359e+7 
           6230      3.77604e+7 
           6250      3.73465e+7 
           6270      3.70339e+7 
           6290      3.66749e+7 
           6310      3.63113e+7 
           6330      3.59684e+7 
           6350      3.54554e+7 
           6370      3.51858e+7 
           6390      3.49428e+7 
           6410      3.45995e+7 
           6430       3.4277e+7 
           6450      3.38792e+7 
           6470      3.35503e+7 
           6490      3.31569e+7 
           6510      3.26922e+7 
           6530      3.18181e+7 
           6550      2.78254e+7 
           6570      2.23237e+7 
           6590      3.01336e+7 
           6610      3.10535e+7 
           6630      3.10198e+7 
           6650       3.0819e+7 
           6670       3.0593e+7 
           6690      3.03405e+7 
           6710      3.00687e+7 
           6730      2.97804e+7 
           6750      2.95157e+7 
           6770      2.92553e+7 
           6790      2.89884e+7 
           6810      2.87274e+7 
           6830      2.84633e+7 
           6850       2.8209e+7 
           6870      2.79564e+7 
           6890      2.77063e+7 
           6910      2.74578e+7 
           6930      2.72116e+7 
           6950       2.6971e+7 
           6970      2.67312e+7 
           6990      2.64959e+7 
           7010      2.62414e+7 
           7030      2.60268e+7 
           7050      2.57982e+7 
           7070      2.55718e+7 
           7090      2.53506e+7 
           7110      2.51031e+7 
           7130      2.49054e+7 
           7150      2.46837e+7 
           7170      2.44773e+7 
           7190      2.42655e+7 
           7210      2.40557e+7 
           7230      2.38479e+7 
           7250      2.36376e+7 
           7270      2.34422e+7 
           7290      2.32379e+7 
           7310      2.30404e+7 
           7330      2.28461e+7 
           7350      2.26536e+7 
           7370      2.24629e+7 
           7390      2.22711e+7 
           7410      2.20797e+7 
           7430      2.18825e+7 
           7450      2.17068e+7 
           7470      2.15164e+7 
           7490      2.13453e+7 
           7510      2.11703e+7 
           7530      2.09975e+7 
           7550       2.0825e+7 
           7570      2.06506e+7 
           7590      2.04818e+7 
           7610      2.03125e+7 
           7630      2.01446e+7 
           7650      1.99783e+7 
           7670       1.9814e+7 
           7690      1.96525e+7 
           7710      1.94911e+7 
           7730      1.93355e+7 
           7750      1.91775e+7 
           7770      1.87513e+7 
           7790      1.88693e+7 
           7810      1.87172e+7 
           7830      1.85652e+7 
           7850      1.84114e+7 
           7870      1.82352e+7 
           7890      1.80649e+7 
           7910      1.79748e+7 
           7930      1.78309e+7 
           7950      1.76686e+7 
           7970      1.75534e+7 
           7990      1.73399e+7 
           8010      1.72763e+7 
           8030      1.71395e+7 
           8050      1.70051e+7 
           8070      1.68711e+7 
           8090      1.67395e+7 
           8110      1.66078e+7 
           8130      1.64794e+7 
           8150      1.63516e+7 
           8170      1.62247e+7 
           8190      1.60805e+7 
           8210       1.6024e+7 
           8230      1.58984e+7 
           8250      1.57893e+7 
           8270      1.57169e+7 
           8290      1.56033e+7 
           8310      1.54928e+7 
           8330      1.53577e+7 
           8350      1.52529e+7 
           8370      1.51113e+7 
           8390      1.49601e+7 
           8410      1.47889e+7 
           8430      1.46843e+7 
           8450      1.44888e+7 
           8470      1.41012e+7 
           8490      1.45617e+7 
           8510      1.36168e+7 
           8530      1.45983e+7 
           8550      1.28527e+7 
           8570      1.47758e+7 
           8590      1.35113e+7 
           8610      1.31087e+7 
           8630      1.49782e+7 
           8650      1.42701e+7 
           8670      1.15842e+7 
           8690      1.46913e+7 
           8710        1.527e+7 
           8730      1.45817e+7 
           8750      1.11559e+7 
           8770       1.3751e+7 
           8790      1.50932e+7 
           8810      1.51791e+7 
           8830      1.48012e+7 
           8850      1.30052e+7 
           8870      1.08015e+7 
           8890      1.39705e+7 
           8910       1.4586e+7 
           8930      1.46171e+7 
           8950      1.45768e+7 
           8970      1.43363e+7 
           8990      1.36227e+7 
           9010      1.06271e+7 
           9030      1.17088e+7 
           9050      1.35871e+7 
           9070      1.38117e+7 
           9090      1.37487e+7 
           9110      1.37719e+7 
           9130      1.37035e+7 
           9150      1.35888e+7 
           9170      1.34229e+7 
           9190       1.3113e+7 
