# Kurucz ODFNEW /NOVER (2003)
# teff = 24000 K (value for the effective temperature for the model. Temperatures are given in K)
# logg = 5 log(cm/s2) (value for Log(G) for the model.)
# meta = -1.5  (value for the Metallicity for the model.)
# lh = 1.25  (l/Hp where l is the  mixing length of the convective element and Hp is the pressure scale height)
# vtur = 2 km/s (Microturbulence velocity)
# alpha = 0.4  (Alpha)
#
# column 1: WAVELENGTH (ANGSTROM), Wavelength in Angstrom
# column 2: FLUX (ERG/CM2/S/A), Flux in erg/cm2/s/A
          147.2     3.22086e-15 
            151     1.53891e-14 
          155.2     7.96171e-14 
          158.8      3.0491e-13 
            162     9.59695e-13 
            166     3.79231e-12 
          170.3     1.55123e-11 
          173.4     4.11103e-11 
          176.8     1.15334e-10 
          180.2     3.11841e-10 
          181.7     4.78139e-10 
          186.1      1.61392e-9 
            191      5.87116e-9 
          193.9      1.22376e-8 
          198.4      3.67287e-8 
          201.8      8.16574e-8 
            205      1.69176e-7 
          210.5      5.62302e-7 
          216.2      1.83197e-6 
          219.8       3.7446e-6 
            223      6.93475e-6 
          226.8      1.40927e-5 
            230     0.000105491 
            234     0.000241555 
            240     0.000623808 
          246.5      0.00164717 
          252.4      0.00383555 
          256.8      0.00684036 
            260       0.0106337 
            264       0.0177457 
          268.5       0.0309369 
          273.5       0.0560746 
          278.5       0.0996196 
            284        0.182905 
            290        0.344795 
            296        0.631809 
            301         1.02789 
            308         1.94318 
            318          4.7704 
            328         10.8459 
            338         23.5279 
            348         48.5937 
            357         90.0758 
            366         161.946 
            375         280.943 
            385         503.187 
            395         870.951 
            405         1465.48 
            414         2289.88 
            422         3336.29 
            430         4781.55 
            441         7710.83 
            451         11631.9 
            460         16528.9 
            470         24024.4 
            480         34293.2 
            490         48199.7 
            500         66703.7 
            506          407796 
            512      1.40043e+6 
            520      1.75143e+6 
            530      2.39556e+6 
            540      2.61075e+6 
            550      3.57849e+6 
            560       4.2119e+6 
            570      5.07187e+6 
            580      5.17734e+6 
            590       6.6834e+6 
            600      8.01167e+6 
            610      9.36356e+6 
            620      1.06384e+7 
            630       1.2253e+7 
            640       1.3593e+7 
            650      1.55623e+7 
            658      1.73179e+7 
            665      1.87221e+7 
            675      2.05644e+7 
            685      2.28097e+7 
            695      2.60936e+7 
            705      2.86398e+7 
            716      3.20009e+7 
            726      3.50244e+7 
            735      3.83379e+7 
            745      4.21843e+7 
            755      4.60997e+7 
            765      4.99873e+7 
            775       5.4547e+7 
            785      5.91078e+7 
            795      6.34514e+7 
            805      6.84772e+7 
            815      7.34317e+7 
            825      7.90239e+7 
            835      8.31239e+7 
            845      8.97946e+7 
            855      9.53077e+7 
            865      1.01988e+8 
            875      1.08454e+8 
            885      1.15444e+8 
            895      1.22149e+8 
            905      1.27137e+8 
            915      1.70369e+8 
            925      6.88537e+8 
            935      1.86558e+9 
            945      7.45549e+9 
            955     1.49424e+10 
            965      2.1381e+10 
            975       6.3348e+9 
            985     3.05204e+10 
            995     3.10448e+10 
           1005     3.22651e+10 
           1015     2.51213e+10 
           1025      4.30543e+9 
           1035     2.05899e+10 
           1045     3.19354e+10 
           1055     3.17718e+10 
           1065      2.8553e+10 
           1075     3.00836e+10 
           1085     2.75683e+10 
           1095     2.93453e+10 
           1105     2.72742e+10 
           1115     2.68687e+10 
           1125     2.48554e+10 
           1135     2.60962e+10 
           1145     2.39091e+10 
           1155     2.46587e+10 
           1165     2.43179e+10 
           1175     2.05612e+10 
           1185     2.28835e+10 
           1195     2.02101e+10 
           1205     1.42548e+10 
           1215      3.40077e+9 
           1225     1.36123e+10 
           1235     1.91995e+10 
           1245     1.96385e+10 
           1255     1.92141e+10 
           1265     1.89068e+10 
           1275     1.89915e+10 
           1285      1.8541e+10 
           1295     1.62836e+10 
           1305     1.61087e+10 
           1315     1.72972e+10 
           1325     1.66219e+10 
           1335     1.59139e+10 
           1345     1.59093e+10 
           1355      1.5862e+10 
           1365     1.51559e+10 
           1375     1.49676e+10 
           1385     1.47697e+10 
           1395     1.35505e+10 
           1405     1.36062e+10 
           1415     1.37478e+10 
           1425     1.35002e+10 
           1435     1.32838e+10 
           1442     1.32546e+10 
           1447      1.3084e+10 
           1455     1.28423e+10 
           1465      1.2508e+10 
           1475     1.22761e+10 
           1485     1.19706e+10 
           1495     1.17612e+10 
           1505     1.12505e+10 
           1512     1.10711e+10 
           1517     1.10772e+10 
           1525     1.08861e+10 
           1535     1.03731e+10 
           1545     1.03528e+10 
           1555      9.99663e+9 
           1565     1.00434e+10 
           1575       9.9837e+9 
           1585      9.78689e+9 
           1595      9.66663e+9 
           1605      9.35745e+9 
           1615        9.183e+9 
           1625      9.11412e+9 
           1635       9.0282e+9 
           1645      8.77886e+9 
           1655        8.679e+9 
           1665      8.60061e+9 
           1672      8.37418e+9 
           1677      8.46537e+9 
           1685       8.3329e+9 
           1695      8.13495e+9 
           1705      7.94196e+9 
           1715      7.73088e+9 
           1725      7.61188e+9 
           1735      7.54291e+9 
           1745      7.40277e+9 
           1755      7.33883e+9 
           1765      7.03617e+9 
           1775      7.00064e+9 
           1785      6.91059e+9 
           1795      6.87321e+9 
           1805      6.77888e+9 
           1815      6.59952e+9 
           1825       6.5378e+9 
           1835      6.41516e+9 
           1845      6.14106e+9 
           1855      6.00256e+9 
           1865       5.9806e+9 
           1875      5.99231e+9 
           1885      5.71961e+9 
           1895      5.51861e+9 
           1905      5.62557e+9 
           1915      5.43548e+9 
           1925      5.32649e+9 
           1935      5.34231e+9 
           1945      5.33701e+9 
           1955      5.09597e+9 
           1967      5.15306e+9 
           1976      5.17135e+9 
           1984      5.00168e+9 
           1995      4.85694e+9 
           2005      4.88742e+9 
           2015      4.85555e+9 
           2025      4.82875e+9 
           2035      4.69244e+9 
           2045      4.62765e+9 
           2055      4.48228e+9 
           2065      4.47051e+9 
           2074      4.49634e+9 
           2078      4.39259e+9 
           2085      4.38342e+9 
           2095      4.26837e+9 
           2105      4.27315e+9 
           2115      4.23275e+9 
           2125      4.20402e+9 
           2135      4.13374e+9 
           2145      4.05598e+9 
           2155      4.02362e+9 
           2165       3.9715e+9 
           2175       3.9111e+9 
           2185      3.86354e+9 
           2195      3.81888e+9 
           2205      3.76402e+9 
           2215      3.71437e+9 
           2225      3.65701e+9 
           2235       3.6095e+9 
           2245      3.56934e+9 
           2255      3.51598e+9 
           2265      3.47743e+9 
           2275      3.43099e+9 
           2285      3.39013e+9 
           2295       3.3118e+9 
           2305      3.29929e+9 
           2315      3.25124e+9 
           2325      3.21218e+9 
           2335      3.15833e+9 
           2345      3.11521e+9 
           2355      3.08997e+9 
           2365      3.04503e+9 
           2375      3.00856e+9 
           2385      2.96418e+9 
           2395      2.93074e+9 
           2405      2.89463e+9 
           2415       2.8554e+9 
           2425      2.83151e+9 
           2435      2.79045e+9 
           2445      2.75815e+9 
           2455       2.7286e+9 
           2465      2.69256e+9 
           2475      2.66101e+9 
           2485      2.62859e+9 
           2495      2.55776e+9 
           2505      2.56271e+9 
           2513      2.51534e+9 
           2518      2.52146e+9 
           2525      2.50035e+9 
           2535      2.46876e+9 
           2545      2.42707e+9 
           2555      2.41359e+9 
           2565      2.38244e+9 
           2575      2.36158e+9 
           2585      2.33427e+9 
           2595      2.30641e+9 
           2605      2.29396e+9 
           2615      2.26978e+9 
           2625      2.24525e+9 
           2635      2.21738e+9 
           2645      2.19505e+9 
           2655      2.16705e+9 
           2665      2.13369e+9 
           2675      2.10724e+9 
           2685      2.09967e+9 
           2695      2.05419e+9 
           2705      2.05149e+9 
           2715      2.02802e+9 
           2725      1.98419e+9 
           2735      1.98346e+9 
           2745      1.95174e+9 
           2755      1.93278e+9 
           2765      1.89626e+9 
           2775      1.89793e+9 
           2785      1.87602e+9 
           2795      1.81941e+9 
           2805      1.82168e+9 
           2815      1.81627e+9 
           2825      1.77153e+9 
           2835      1.75094e+9 
           2845      1.75704e+9 
           2855      1.73838e+9 
           2865      1.72052e+9 
           2875      1.70183e+9 
           2885      1.68394e+9 
           2895      1.66608e+9 
           2910      1.63916e+9 
           2930      1.60313e+9 
           2950      1.55571e+9 
           2970      1.53927e+9 
           2990      1.50656e+9 
           3010       1.4763e+9 
           3030      1.44694e+9 
           3050       1.4177e+9 
           3070      1.38926e+9 
           3090      1.35953e+9 
           3110       1.3342e+9 
           3130      1.30913e+9 
           3150      1.28356e+9 
           3170      1.25819e+9 
           3190      1.22021e+9 
           3210      1.20951e+9 
           3230      1.18584e+9 
           3250      1.16298e+9 
           3270      1.14239e+9 
           3290       1.1189e+9 
           3310      1.09982e+9 
           3330       1.0792e+9 
           3350      1.05692e+9 
           3370      1.03947e+9 
           3390      1.02039e+9 
           3410      1.00172e+9 
           3430      9.79089e+8 
           3450       9.5761e+8 
           3470      9.43255e+8 
           3490      9.26382e+8 
           3510      9.11085e+8 
           3530      8.96043e+8 
           3550      8.80983e+8 
           3570      8.71702e+8 
           3590       8.4895e+8 
           3610      8.38124e+8 
           3630      8.20137e+8 
           3640      8.20328e+8 
           3650      8.07017e+8 
           3670       7.9707e+8 
           3690      7.83971e+8 
           3710      7.57887e+8 
           3730      7.28038e+8 
           3750       7.2691e+8 
           3770      7.12062e+8 
           3790      7.54004e+8 
           3810      7.94121e+8 
           3830      6.81092e+8 
           3850      8.31512e+8 
           3870      8.60771e+8 
           3890      6.36766e+8 
           3910      8.51899e+8 
           3930      8.57007e+8 
           3950      8.27658e+8 
           3970      5.93841e+8 
           3990      7.87932e+8 
           4010      8.04012e+8 
           4030      7.39917e+8 
           4050      7.92343e+8 
           4070       7.6927e+8 
           4090      6.69204e+8 
           4110      5.71157e+8 
           4130       7.1532e+8 
           4150      7.18526e+8 
           4170      7.16438e+8 
           4190      7.08391e+8 
           4210      6.97362e+8 
           4230       6.8552e+8 
           4250      6.73431e+8 
           4270      6.58335e+8 
           4290      6.47789e+8 
           4310       6.2794e+8 
           4330      5.36092e+8 
           4350      4.84069e+8 
           4370      5.93751e+8 
           4390      5.70526e+8 
           4410      5.88259e+8 
           4430      5.77584e+8 
           4450      5.70825e+8 
           4470      5.22439e+8 
           4490      5.51057e+8 
           4510      5.46033e+8 
           4530      5.37385e+8 
           4550      5.28759e+8 
           4570      5.20479e+8 
           4590      5.12609e+8 
           4610      5.04768e+8 
           4630       4.9706e+8 
           4650       4.8842e+8 
           4670      4.81896e+8 
           4690      4.74849e+8 
           4710      4.59039e+8 
           4730      4.60116e+8 
           4750      4.52927e+8 
           4770      4.46935e+8 
           4790      4.39122e+8 
           4810      4.30821e+8 
           4830       4.1833e+8 
           4850      3.67176e+8 
           4870      3.23725e+8 
           4890      3.96421e+8 
           4910      3.98371e+8 
           4930       3.8073e+8 
           4950      3.90713e+8 
           4970      3.85882e+8 
           4990      3.80329e+8 
           5010      3.68173e+8 
           5030       3.6942e+8 
           5050      3.60798e+8 
           5070      3.59261e+8 
           5090      3.54189e+8 
           5110      3.49201e+8 
           5130      3.44293e+8 
           5150      3.39493e+8 
           5170       3.3487e+8 
           5190      3.30238e+8 
           5210      3.25432e+8 
           5230      3.21253e+8 
           5250       3.1687e+8 
           5270      3.12543e+8 
           5290      3.08326e+8 
           5310      3.04164e+8 
           5330      3.00029e+8 
           5350      2.95921e+8 
           5370      2.92075e+8 
           5390      2.88174e+8 
           5410      2.84348e+8 
           5430      2.80494e+8 
           5450      2.76841e+8 
           5470      2.73209e+8 
           5490      2.69672e+8 
           5510      2.66129e+8 
           5530      2.62668e+8 
           5550      2.59274e+8 
           5570       2.5591e+8 
           5590      2.52623e+8 
           5610      2.49341e+8 
           5630      2.46194e+8 
           5650      2.42896e+8 
           5670      2.39826e+8 
           5690      2.36817e+8 
           5710      2.33913e+8 
           5730      2.30975e+8 
           5750      2.28037e+8 
           5770      2.25226e+8 
           5790      2.22425e+8 
           5810      2.19647e+8 
           5830      2.16923e+8 
           5850      2.14242e+8 
           5870      2.02715e+8 
           5890      2.08041e+8 
           5910      2.06452e+8 
           5930      2.03937e+8 
           5950      2.01419e+8 
           5970      1.99025e+8 
           5990      1.96585e+8 
           6010      1.94257e+8 
           6030      1.91914e+8 
           6050      1.89628e+8 
           6070      1.87358e+8 
           6090      1.85124e+8 
           6110      1.82945e+8 
           6130      1.80781e+8 
           6150      1.78611e+8 
           6170      1.76544e+8 
           6190      1.74481e+8 
           6210      1.72441e+8 
           6230      1.70433e+8 
           6250      1.68437e+8 
           6270      1.66502e+8 
           6290      1.64578e+8 
           6310      1.62676e+8 
           6330      1.60822e+8 
           6350      1.58839e+8 
           6370        1.571e+8 
           6390      1.55371e+8 
           6410      1.53605e+8 
           6430      1.51886e+8 
           6450      1.50167e+8 
           6470      1.48448e+8 
           6490      1.46532e+8 
           6510      1.44487e+8 
           6530      1.41606e+8 
           6550       1.3147e+8 
           6570       1.1517e+8 
           6590      1.35006e+8 
           6610      1.36337e+8 
           6630      1.35387e+8 
           6650      1.34233e+8 
           6670      1.30847e+8 
           6690      1.29527e+8 
           6710      1.30053e+8 
           6730       1.2864e+8 
           6750      1.27267e+8 
           6770      1.25892e+8 
           6790      1.24506e+8 
           6810      1.23199e+8 
           6830      1.21889e+8 
           6850      1.20584e+8 
           6870      1.19308e+8 
           6890      1.18037e+8 
           6910      1.16795e+8 
           6930      1.15557e+8 
           6950      1.14347e+8 
           6970      1.13149e+8 
           6990      1.11962e+8 
           7010      1.10795e+8 
           7030       1.0964e+8 
           7050      1.08503e+8 
           7070       1.0535e+8 
           7090      1.06278e+8 
           7110      1.05182e+8 
           7130      1.04103e+8 
           7150      1.03028e+8 
           7170       1.0197e+8 
           7190      1.00945e+8 
           7210      9.99218e+7 
           7230      9.86995e+7 
           7250      9.79049e+7 
           7270      9.69179e+7 
           7290      9.50399e+7 
           7310      9.49718e+7 
           7330      9.40335e+7 
           7350      9.30901e+7 
           7370      9.21694e+7 
           7390      9.12504e+7 
           7410      9.03468e+7 
           7430      8.94516e+7 
           7450      8.85851e+7 
           7470      8.77063e+7 
           7490      8.68558e+7 
           7510       8.5973e+7 
           7530      8.51647e+7 
           7550      8.43374e+7 
           7570      8.35176e+7 
           7590      8.27119e+7 
           7610      8.19069e+7 
           7630      8.11221e+7 
           7650      8.03445e+7 
           7670      7.95738e+7 
           7690      7.88101e+7 
           7710      7.80595e+7 
           7730      7.73156e+7 
           7750      7.65784e+7 
           7770      7.57853e+7 
           7790      7.51421e+7 
           7810      7.43872e+7 
           7830      7.37312e+7 
           7850      7.30992e+7 
           7870      7.24118e+7 
           7890      7.16881e+7 
           7910      7.10912e+7 
           7930      7.04276e+7 
           7950      6.97458e+7 
           7970      6.90285e+7 
           7990      6.83765e+7 
           8010      6.77125e+7 
           8030      6.70777e+7 
           8050      6.64599e+7 
           8070      6.58533e+7 
           8090      6.51942e+7 
           8110      6.46497e+7 
           8130      6.41097e+7 
           8150      6.34892e+7 
           8170      6.29642e+7 
           8190       6.2337e+7 
           8210      6.16647e+7 
           8230      6.12486e+7 
           8250      6.07306e+7 
           8270      5.99304e+7 
           8290      5.96361e+7 
           8310      5.91421e+7 
           8330       5.8587e+7 
           8350      5.77988e+7 
           8370      5.74799e+7 
           8390       5.7067e+7 
           8410      5.65669e+7 
           8430      5.60337e+7 
           8450      5.51515e+7 
           8470      5.50594e+7 
           8490      5.44501e+7 
           8510       5.4054e+7 
           8530      5.34694e+7 
           8550      5.28692e+7 
           8570       5.2833e+7 
