# Kurucz ODFNEW /NOVER (2003)
# teff = 7250 K (value for the effective temperature for the model. Temperatures are given in K)
# logg = 4 log(cm/s2) (value for Log(G) for the model.)
# meta = -4  (value for the Metallicity for the model.)
# lh = 1.25  (l/Hp where l is the  mixing length of the convective element and Hp is the pressure scale height)
# vtur = 2 km/s (Microturbulence velocity)
# alpha = 0.4  (Alpha)
#
# column 1: WAVELENGTH (ANGSTROM), Wavelength in Angstrom
# column 2: FLUX (ERG/CM2/S/A), Flux in erg/cm2/s/A
          147.2     1.73866e-35 
            151     1.65225e-35 
          155.2     1.56403e-35 
          158.8     1.49392e-35 
            162     1.43549e-35 
            166     1.36714e-35 
          170.3     1.29897e-35 
          173.4     1.25294e-35 
          176.8     1.20522e-35 
          180.2     1.16017e-35 
          181.7     1.14109e-35 
          186.1     1.08777e-35 
            191     1.03267e-35 
          193.9     1.00201e-35 
          198.4     9.57076e-36 
          201.8     9.25097e-36 
            205     8.96441e-36 
          210.5     8.50208e-36 
          216.2     8.05969e-36 
          219.8     7.79784e-36 
            223     7.57565e-36 
          226.8     7.32392e-36 
            230     7.12154e-36 
            234     6.88015e-36 
            240     6.54044e-36 
          246.5     6.20006e-36 
          252.4     5.91358e-36 
          256.8     5.71267e-36 
            260     5.57292e-36 
            264     5.40532e-36 
          268.5     5.22566e-36 
          273.5     5.03634e-36 
          278.5     4.85712e-36 
            284     4.67082e-36 
            290     4.47954e-36 
            296     4.29978e-36 
            301     4.16352e-24 
            308     9.62911e-23 
            318     1.27193e-21 
            328     1.36273e-20 
            338     1.26073e-19 
            348      1.0218e-18 
            357     6.05639e-18 
            366      3.2789e-17 
            375       1.632e-16 
            385     8.86181e-16 
            395     4.40244e-15 
            405     2.01432e-14 
            414     7.41541e-14 
            422     2.24979e-13 
            430     6.53785e-13 
            441     2.65364e-12 
            451     8.91292e-12 
            460      2.5301e-11 
            470      7.6787e-11 
            480     2.22015e-10 
            490     6.13405e-10 
            500      1.62385e-9 
            506      2.71354e-9 
            512      4.87223e-9 
            520       1.0114e-8 
            530       2.3902e-8 
            540      5.46193e-8 
            550      1.20915e-7 
            560      2.59758e-7 
            570      5.42437e-7 
            580      1.10264e-6 
            590      2.18494e-6 
            600      4.22607e-6 
            610      7.98796e-6 
            620      1.47722e-5 
            630      2.67564e-5 
            640      4.75124e-5 
            650      8.27931e-5 
            658     0.000127437 
            665     0.000184171 
            675     0.000307287 
            685     0.000504535 
            695     0.000815815 
            705      0.00129992 
            716      0.00213535 
            726      0.00330602 
            735      0.00484614 
            745      0.00732587 
            755       0.0109445 
            765       0.0161648 
            775       0.0236171 
            785       0.0341451 
            795        0.048871 
            805       0.0692737 
            815       0.0972812 
            825        0.135398 
            835        0.186818 
            845        0.255634 
            855        0.347002 
            865        0.467392 
            875         0.62486 
            885        0.829384 
            895         1.09323 
            905         1.43139 
            915         2.01611 
            925         5.46761 
            935         8.25747 
            945         13.0459 
            955         18.0805 
            965         22.5805 
            975         20.8567 
            985         39.3377 
            995          48.848 
           1005         55.0198 
           1015          55.656 
           1025         55.2387 
           1035         88.1699 
           1045         124.218 
           1055         151.084 
           1065         189.051 
           1075         223.738 
           1085         268.912 
           1095         309.106 
           1105         354.631 
           1115         406.206 
           1125         464.354 
           1135         524.726 
           1145         581.836 
           1155         631.984 
           1165         673.837 
           1175         580.637 
           1185         1004.16 
           1195         897.408 
           1205         822.979 
           1215         658.436 
           1225         1027.31 
           1235         1466.56 
           1245          352.71 
           1255         776.911 
           1265         2184.68 
           1275         2619.41 
           1285         3059.28 
           1295         3645.48 
           1305         4239.75 
           1315          5013.4 
           1325         5826.82 
           1335         6729.33 
           1345         7783.13 
           1355         8958.28 
           1365         10264.5 
           1375         11578.3 
           1385         12954.8 
           1395           14604 
           1405           16244 
           1415           18611 
           1425         20255.5 
           1435         22663.5 
           1442         24761.2 
           1447         24991.6 
           1455         27436.7 
           1465         29134.7 
           1475           32147 
           1485         35147.6 
           1495         38790.1 
           1505         42347.9 
           1512         45155.2 
           1517         45008.7 
           1525           48210 
           1535         51472.4 
           1545         53584.3 
           1555         57100.9 
           1565         58889.9 
           1575         62869.1 
           1585         66521.6 
           1595         70579.8 
           1605         75217.9 
           1615         84049.1 
           1625         97962.1 
           1635          125993 
           1645          272089 
           1655          621316 
           1665      1.70072e+6 
           1672      2.54964e+6 
           1677      3.32721e+6 
           1685      4.42141e+6 
           1695      5.84496e+6 
           1705      7.04855e+6 
           1715      8.14421e+6 
           1725      8.83704e+6 
           1735      9.48298e+6 
           1745      9.69381e+6 
           1755      1.01113e+7 
           1765      1.02745e+7 
           1775       1.0548e+7 
           1785       1.0783e+7 
           1795      1.11539e+7 
           1805       1.1142e+7 
           1815      1.13507e+7 
           1825      1.14762e+7 
           1835      1.17777e+7 
           1845      1.16106e+7 
           1855      1.20101e+7 
           1865      1.23561e+7 
           1875         1.25e+7 
           1885      1.26668e+7 
           1895      1.28377e+7 
           1905      1.28527e+7 
           1915      1.31524e+7 
           1925      1.33333e+7 
           1935      1.32411e+7 
           1945      1.36191e+7 
           1955      1.37532e+7 
           1967      1.39296e+7 
           1976      1.38995e+7 
           1984      1.39197e+7 
           1995      1.42579e+7 
           2005        1.431e+7 
           2015      1.44207e+7 
           2025      1.43861e+7 
           2035      1.47272e+7 
           2045      1.48376e+7 
           2055      1.47729e+7 
           2065      1.48882e+7 
           2074      1.51822e+7 
           2078      1.52198e+7 
           2085       1.5246e+7 
           2095      1.53549e+7 
           2105       1.5433e+7 
           2115      1.55552e+7 
           2125      1.54726e+7 
           2135      1.56875e+7 
           2145      1.58322e+7 
           2155       1.5899e+7 
           2165      1.57782e+7 
           2175      1.59496e+7 
           2185      1.61306e+7 
           2195      1.62623e+7 
           2205      1.61562e+7 
           2215      1.58793e+7 
           2225      1.62833e+7 
           2235      1.65633e+7 
           2245      1.65797e+7 
           2255      1.64523e+7 
           2265       1.6383e+7 
           2275       1.6617e+7 
           2285      1.67511e+7 
           2295      1.67249e+7 
           2305      1.68942e+7 
           2315       1.6892e+7 
           2325      1.68906e+7 
           2335      1.68395e+7 
           2345      1.64242e+7 
           2355      1.69955e+7 
           2365      1.65537e+7 
           2375       1.6997e+7 
           2385      1.64375e+7 
           2395      1.69961e+7 
           2405      1.70622e+7 
           2415      1.70962e+7 
           2425      1.75218e+7 
           2435      1.74106e+7 
           2445      1.75004e+7 
           2455      1.76038e+7 
           2465      1.75238e+7 
           2475      1.75098e+7 
           2485      1.73722e+7 
           2495      1.73652e+7 
           2505      1.76489e+7 
           2513      1.73255e+7 
           2518       1.7258e+7 
           2525       1.7251e+7 
           2535      1.74365e+7 
           2545      1.76528e+7 
           2555      1.78888e+7 
           2565      1.77061e+7 
           2575      1.78114e+7 
           2585      1.78306e+7 
           2595      1.78137e+7 
           2605      1.77483e+7 
           2615      1.77169e+7 
           2625      1.77501e+7 
           2635      1.78597e+7 
           2645      1.82554e+7 
           2655      1.82662e+7 
           2665      1.81856e+7 
           2675      1.82178e+7 
           2685      1.83144e+7 
           2695      1.82939e+7 
           2705      1.83396e+7 
           2715      1.81362e+7 
           2725      1.81332e+7 
           2735      1.81913e+7 
           2745       1.7704e+7 
           2755      1.78854e+7 
           2765      1.81938e+7 
           2775      1.83858e+7 
           2785      1.83303e+7 
           2795      1.74471e+7 
           2805      1.79482e+7 
           2815      1.84822e+7 
           2825      1.84814e+7 
           2835      1.84099e+7 
           2845      1.84399e+7 
           2855      1.81505e+7 
           2865      1.83967e+7 
           2875       1.8454e+7 
           2885       1.8339e+7 
           2895      1.85029e+7 
           2910      1.85195e+7 
           2930      1.84334e+7 
           2950      1.84016e+7 
           2970      1.84566e+7 
           2990      1.84271e+7 
           3010      1.84612e+7 
           3030      1.84473e+7 
           3050      1.84564e+7 
           3070      1.84118e+7 
           3090      1.84267e+7 
           3110      1.84242e+7 
           3130      1.84087e+7 
           3150      1.83826e+7 
           3170      1.83725e+7 
           3190      1.82958e+7 
           3210      1.83175e+7 
           3230      1.82123e+7 
           3250      1.82603e+7 
           3270      1.82701e+7 
           3290      1.82519e+7 
           3310      1.82249e+7 
           3330      1.81714e+7 
           3350      1.81048e+7 
           3370      1.80883e+7 
           3390      1.80623e+7 
           3410      1.80669e+7 
           3430      1.80323e+7 
           3450      1.79858e+7 
           3470      1.79553e+7 
           3490      1.79248e+7 
           3510      1.78911e+7 
           3530      1.78553e+7 
           3550      1.78197e+7 
           3570      1.77645e+7 
           3590      1.77276e+7 
           3610      1.76884e+7 
           3630      1.76516e+7 
           3640      1.76326e+7 
           3650      1.76863e+7 
           3670      1.76294e+7 
           3690      1.70083e+7 
           3710      1.77963e+7 
           3730      1.82168e+7 
           3750      2.19828e+7 
           3770      2.27749e+7 
           3790       2.5695e+7 
           3810      2.88255e+7 
           3830       2.4433e+7 
           3850      3.09135e+7 
           3870      3.31757e+7 
           3890      2.26731e+7 
           3910      3.30893e+7 
           3930      3.41047e+7 
           3950      3.29368e+7 
           3970      2.22172e+7 
           3990      3.20407e+7 
           4010       3.4039e+7 
           4030      3.41288e+7 
           4050      3.38454e+7 
           4070      3.30268e+7 
           4090      2.84099e+7 
           4110      2.33392e+7 
           4130      3.19836e+7 
           4150      3.27151e+7 
           4170      3.27032e+7 
           4190      3.25441e+7 
           4210      3.23419e+7 
           4230      3.21105e+7 
           4250      3.18778e+7 
           4270      3.15964e+7 
           4290      3.12145e+7 
           4310      3.03394e+7 
           4330      2.54945e+7 
           4350      2.24773e+7 
           4370      2.95061e+7 
           4390      3.01077e+7 
           4410      3.00967e+7 
           4430      2.99581e+7 
           4450      2.98016e+7 
           4470      2.96204e+7 
           4490      2.94169e+7 
           4510      2.92121e+7 
           4530      2.90062e+7 
           4550      2.88027e+7 
           4570      2.86034e+7 
           4590       2.8403e+7 
           4610      2.82067e+7 
           4630      2.80092e+7 
           4650      2.78124e+7 
           4670      2.76196e+7 
           4690      2.74256e+7 
           4710      2.72323e+7 
           4730      2.70446e+7 
           4750       2.6814e+7 
           4770      2.65846e+7 
           4790      2.63384e+7 
           4810       2.6001e+7 
           4830      2.52855e+7 
           4850      2.19399e+7 
           4870      1.87103e+7 
           4890      2.44404e+7 
           4910      2.50402e+7 
           4930      2.50575e+7 
           4950      2.49539e+7 
           4970      2.48236e+7 
           4990       2.4687e+7 
           5010      2.45128e+7 
           5030      2.43436e+7 
           5050      2.41733e+7 
           5070      2.40035e+7 
           5090      2.38356e+7 
           5110      2.36696e+7 
           5130       2.3504e+7 
           5150      2.33403e+7 
           5170        2.316e+7 
           5190      2.30084e+7 
           5210      2.28543e+7 
           5230       2.2695e+7 
           5250      2.25388e+7 
           5270      2.23803e+7 
           5290      2.22262e+7 
           5310      2.20724e+7 
           5330      2.19177e+7 
           5350      2.17673e+7 
           5370      2.16159e+7 
           5390      2.14662e+7 
           5410      2.13168e+7 
           5430      2.11703e+7 
           5450      2.10228e+7 
           5470      2.08781e+7 
           5490       2.0735e+7 
           5510       2.0591e+7 
           5530      2.04497e+7 
           5550      2.03087e+7 
           5570      2.01692e+7 
           5590      2.00312e+7 
           5610      1.98934e+7 
           5630      1.97582e+7 
           5650      1.96221e+7 
           5670      1.94887e+7 
           5690      1.93554e+7 
           5710      1.92235e+7 
           5730       1.9093e+7 
           5750      1.89627e+7 
           5770      1.88337e+7 
           5790      1.87049e+7 
           5810      1.85775e+7 
           5830      1.84514e+7 
           5850      1.83254e+7 
           5870      1.82008e+7 
           5890      1.80752e+7 
           5910      1.79552e+7 
           5930      1.78343e+7 
           5950      1.77135e+7 
           5970      1.75929e+7 
           5990      1.74746e+7 
           6010      1.73564e+7 
           6030      1.72394e+7 
           6050      1.71235e+7 
           6070      1.70089e+7 
           6090      1.68943e+7 
           6110      1.67808e+7 
           6130      1.66685e+7 
           6150      1.65573e+7 
           6170      1.64461e+7 
           6190      1.63371e+7 
           6210      1.62281e+7 
           6230      1.61192e+7 
           6250      1.60124e+7 
           6270      1.59056e+7 
           6290      1.58008e+7 
           6310      1.56951e+7 
           6330      1.55914e+7 
           6350      1.54887e+7 
           6370       1.5386e+7 
           6390      1.52843e+7 
           6410      1.51836e+7 
           6430      1.50838e+7 
           6450      1.49723e+7 
           6470      1.48439e+7 
           6490      1.47167e+7 
           6510        1.455e+7 
           6530      1.42393e+7 
           6550      1.30478e+7 
           6570      1.09707e+7 
           6590      1.37044e+7 
           6610        1.402e+7 
           6630      1.40358e+7 
           6650      1.39839e+7 
           6670      1.39179e+7 
           6690      1.38491e+7 
           6710      1.37592e+7 
           6730        1.367e+7 
           6750      1.35817e+7 
           6770      1.34933e+7 
           6790      1.34066e+7 
           6810      1.33199e+7 
           6830      1.32339e+7 
           6850      1.31487e+7 
           6870      1.30643e+7 
           6890      1.29806e+7 
           6910      1.28969e+7 
           6930      1.28147e+7 
           6950      1.27325e+7 
           6970       1.2651e+7 
           6990      1.25702e+7 
           7010      1.24902e+7 
           7030      1.24108e+7 
           7050      1.23314e+7 
           7070      1.22534e+7 
           7090      1.21754e+7 
           7110      1.20981e+7 
           7130      1.20221e+7 
           7150      1.19454e+7 
           7170      1.18701e+7 
           7190      1.17954e+7 
           7210      1.17213e+7 
           7230      1.16472e+7 
           7250      1.15737e+7 
           7270      1.15016e+7 
           7290      1.14293e+7 
           7310      1.13577e+7 
           7330       1.1286e+7 
           7350      1.12156e+7 
           7370      1.11458e+7 
           7390      1.10759e+7 
           7410      1.10072e+7 
           7430      1.09385e+7 
           7450      1.08704e+7 
           7470      1.08028e+7 
           7490      1.07358e+7 
           7510      1.06693e+7 
           7530      1.06034e+7 
           7550       1.0538e+7 
           7570      1.04726e+7 
           7590      1.04083e+7 
           7610      1.03439e+7 
           7630      1.02807e+7 
           7650      1.02174e+7 
           7670      1.01545e+7 
           7690      1.00922e+7 
           7710      1.00304e+7 
           7730      9.96913e+6 
           7750      9.90834e+6 
           7770      9.84741e+6 
           7790      9.78822e+6 
           7810      9.72827e+6 
           7830      9.66942e+6 
           7850      9.61043e+6 
           7870      9.55252e+6 
           7890      9.49447e+6 
           7910      9.43689e+6 
           7930      9.38036e+6 
           7950      9.32368e+6 
           7970      9.26746e+6 
           7990      9.21168e+6 
           8010      9.15634e+6 
           8030      9.10144e+6 
           8050      9.04697e+6 
           8070      8.99235e+6 
           8090      8.93873e+6 
           8110      8.88496e+6 
           8130      8.83218e+6 
           8150      8.77925e+6 
           8170      8.72729e+6 
           8190      8.67517e+6 
           8210      8.62792e+6 
           8230      8.57881e+6 
           8250      8.52951e+6 
           8270       8.4817e+6 
           8290      8.43315e+6 
           8310      8.38497e+6 
           8330      8.33498e+6 
           8350      8.28591e+6 
           8370      8.23238e+6 
           8390      8.18194e+6 
           8410      8.12656e+6 
           8430      8.08433e+6 
           8450      8.03925e+6 
           8470      7.93464e+6 
           8490      7.97047e+6 
           8510      7.78375e+6 
           8530      7.90159e+6 
           8550      7.56267e+6 
           8570      7.85365e+6 
           8590      7.61239e+6 
