# Kurucz ODFNEW /NOVER (2003)
# teff = 28000 K (value for the effective temperature for the model. Temperatures are given in K)
# logg = 3.5 log(cm/s2) (value for Log(G) for the model.)
# meta = -1.5  (value for the Metallicity for the model.)
# lh = 1.25  (l/Hp where l is the  mixing length of the convective element and Hp is the pressure scale height)
# vtur = 2 km/s (Microturbulence velocity)
# alpha = 0.4  (Alpha)
#
# column 1: WAVELENGTH (ANGSTROM), Wavelength in Angstrom
# column 2: FLUX (ERG/CM2/S/A), Flux in erg/cm2/s/A
          147.2     1.34656e-10 
            151     4.92387e-10 
          155.2      1.91422e-9 
          158.8      5.78522e-9 
            162      1.48315e-8 
            166      4.56858e-8 
          170.3      1.44108e-7 
          173.4       3.1836e-7 
          176.8       7.3511e-7 
          180.2      1.64372e-6 
          181.7      2.32143e-6 
          186.1      6.19387e-6 
            191        1.751e-5 
          193.9      3.15875e-5 
          198.4      7.62626e-5 
          201.8     0.000144602 
            205     0.000258946 
          210.5     0.000676715 
          216.2      0.00174041 
          219.8      0.00308303 
            223      0.00504568 
          226.8      0.00889636 
            230         5.54042 
            234         14.4167 
            240         28.0827 
          246.5         57.6258 
          252.4         107.095 
          256.8         137.224 
            260         227.236 
            264         313.725 
          268.5         482.093 
          273.5         739.637 
          278.5         1089.36 
            284         1849.41 
            290         2870.85 
            296         4332.03 
            301         5649.22 
            308          8635.1 
            318         19485.4 
            328         33534.3 
            338         59689.6 
            348         98985.4 
            357          178295 
            366          282499 
            375          396674 
            385          603072 
            395          888770 
            405      1.24495e+6 
            414      1.70058e+6 
            422      2.12307e+6 
            430      2.70292e+6 
            441      3.68475e+6 
            451      4.85523e+6 
            460      6.00951e+6 
            470      7.71707e+6 
            480       9.6707e+6 
            490       1.2031e+7 
            500      1.50448e+7 
            506       1.0467e+8 
            512      4.04244e+8 
            520      4.00554e+8 
            530       4.1522e+8 
            540      3.88667e+8 
            550      4.68253e+8 
            560       5.1894e+8 
            570      5.57604e+8 
            580      5.22169e+8 
            590      6.02572e+8 
            600       6.1341e+8 
            610      6.66591e+8 
            620      7.20294e+8 
            630      7.54455e+8 
            640       7.5769e+8 
            650      8.05773e+8 
            658       8.3205e+8 
            665      8.71745e+8 
            675      8.91996e+8 
            685      8.94083e+8 
            695      1.00924e+9 
            705      9.92636e+8 
            716       1.0992e+9 
            726       1.1193e+9 
            735      1.16472e+9 
            745      1.22618e+9 
            755      1.26153e+9 
            765      1.31335e+9 
            775      1.36799e+9 
            785      1.43319e+9 
            795      1.46609e+9 
            805      1.50459e+9 
            815      1.53357e+9 
            825      1.60644e+9 
            835      1.52885e+9 
            845      1.67217e+9 
            855      1.71403e+9 
            865      1.77146e+9 
            875      1.82725e+9 
            885      1.88681e+9 
            895       1.9372e+9 
            905      1.95673e+9 
            915      3.12957e+9 
            925     2.07437e+10 
            935     3.28321e+10 
            945     4.53413e+10 
            955       4.823e+10 
            965     5.28265e+10 
            975     3.11782e+10 
            985     4.89013e+10 
            995     4.61425e+10 
           1005     4.72131e+10 
           1015     4.68395e+10 
           1025     3.56142e+10 
           1035     4.43646e+10 
           1045     4.81699e+10 
           1055     4.67906e+10 
           1065     4.27672e+10 
           1075     4.37846e+10 
           1085     4.13395e+10 
           1095     4.33937e+10 
           1105     4.17418e+10 
           1115     4.09479e+10 
           1125     3.72019e+10 
           1135     3.99474e+10 
           1145     3.77556e+10 
           1155     3.79603e+10 
           1165     3.76251e+10 
           1175     3.10688e+10 
           1185     3.54777e+10 
           1195     3.44274e+10 
           1205     3.18865e+10 
           1215     2.46156e+10 
           1225      3.2817e+10 
           1235     3.32066e+10 
           1245     3.21819e+10 
           1255      3.2049e+10 
           1265     3.16338e+10 
           1275     3.12971e+10 
           1285     3.07776e+10 
           1295     2.83632e+10 
           1305     2.87177e+10 
           1315     2.91279e+10 
           1325     2.82457e+10 
           1335     2.74373e+10 
           1345     2.72662e+10 
           1355     2.70827e+10 
           1365     2.62001e+10 
           1375     2.58303e+10 
           1385     2.54547e+10 
           1395     2.23131e+10 
           1405     2.25653e+10 
           1415     2.38807e+10 
           1425     2.30755e+10 
           1435     2.31209e+10 
           1442     2.30781e+10 
           1447     2.28019e+10 
           1455      2.2333e+10 
           1465     2.19309e+10 
           1475     2.15774e+10 
           1485      2.1298e+10 
           1495     2.07949e+10 
           1505     2.01935e+10 
           1512       2.003e+10 
           1517     1.98867e+10 
           1525     1.95328e+10 
           1535     1.83678e+10 
           1545     1.78262e+10 
           1555     1.73967e+10 
           1565     1.76196e+10 
           1575     1.77337e+10 
           1585     1.75436e+10 
           1595     1.73229e+10 
           1605      1.6549e+10 
           1615     1.61815e+10 
           1625     1.60671e+10 
           1635     1.59839e+10 
           1645     1.54059e+10 
           1655     1.56907e+10 
           1665     1.53628e+10 
           1672     1.50552e+10 
           1677     1.55028e+10 
           1685     1.51741e+10 
           1695     1.48501e+10 
           1705     1.45131e+10 
           1715     1.41202e+10 
           1725      1.3862e+10 
           1735     1.39392e+10 
           1745     1.36921e+10 
           1755       1.349e+10 
           1765     1.32094e+10 
           1775     1.30036e+10 
           1785     1.28701e+10 
           1795     1.27201e+10 
           1805     1.26142e+10 
           1815     1.23018e+10 
           1825     1.21402e+10 
           1835     1.20015e+10 
           1845     1.14899e+10 
           1855     1.12974e+10 
           1865     1.12632e+10 
           1875     1.11895e+10 
           1885     1.07265e+10 
           1895     1.04036e+10 
           1905     1.05751e+10 
           1915     1.02362e+10 
           1925      9.98292e+9 
           1935     1.00767e+10 
           1945      1.0059e+10 
           1955      9.56129e+9 
           1967      9.68169e+9 
           1976      9.71981e+9 
           1984      9.41533e+9 
           1995      9.13459e+9 
           2005      9.21238e+9 
           2015      9.16571e+9 
           2025      9.08864e+9 
           2035      8.83988e+9 
           2045      8.71274e+9 
           2055      7.87461e+9 
           2065      7.70823e+9 
           2074       7.9093e+9 
           2078      7.81083e+9 
           2085      8.02972e+9 
           2095      8.01659e+9 
           2105      8.02503e+9 
           2115      7.98747e+9 
           2125      7.89596e+9 
           2135       7.7891e+9 
           2145      7.65123e+9 
           2155      7.60001e+9 
           2165      7.45514e+9 
           2175      7.39375e+9 
           2185      7.26287e+9 
           2195      7.21342e+9 
           2205      7.11226e+9 
           2215      6.97678e+9 
           2225      6.91276e+9 
           2235      6.81175e+9 
           2245      6.73049e+9 
           2255      6.59847e+9 
           2265      6.54856e+9 
           2275      6.46208e+9 
           2285      6.36516e+9 
           2295      6.13794e+9 
           2305      6.16733e+9 
           2315      6.11163e+9 
           2325      6.03332e+9 
           2335      5.94575e+9 
           2345      5.87953e+9 
           2355      5.80199e+9 
           2365      5.72615e+9 
           2375      5.64684e+9 
           2385      5.53793e+9 
           2395      5.48948e+9 
           2405      5.43012e+9 
           2415      5.35449e+9 
           2425      5.29031e+9 
           2435       5.2127e+9 
           2445      5.15181e+9 
           2455      5.08723e+9 
           2465      5.02484e+9 
           2475      4.95762e+9 
           2485      4.89224e+9 
           2495      4.43111e+9 
           2505      4.75644e+9 
           2513      4.64179e+9 
           2518      4.66164e+9 
           2525      4.65332e+9 
           2535      4.59757e+9 
           2545      4.50585e+9 
           2555      4.46984e+9 
           2565      4.42303e+9 
           2575      4.37198e+9 
           2585      4.31837e+9 
           2595      4.26468e+9 
           2605      4.23028e+9 
           2615      4.17678e+9 
           2625      4.12517e+9 
           2635      4.06983e+9 
           2645      4.02037e+9 
           2655      3.96861e+9 
           2665      3.91368e+9 
           2675      3.86547e+9 
           2685      3.83689e+9 
           2695      3.76744e+9 
           2705      3.74185e+9 
           2715      3.69859e+9 
           2725      3.63431e+9 
           2735      3.59338e+9 
           2745      3.56949e+9 
           2755      3.52774e+9 
           2765      3.46418e+9 
           2775      3.44792e+9 
           2785      3.40557e+9 
           2795      3.33375e+9 
           2805      3.31821e+9 
           2815      3.29054e+9 
           2825      3.23046e+9 
           2835      3.19918e+9 
           2845      3.17883e+9 
           2855      3.13968e+9 
           2865      3.10444e+9 
           2875      3.06958e+9 
           2885      3.03625e+9 
           2895      3.00138e+9 
           2910      2.94876e+9 
           2930      2.88486e+9 
           2950      2.80557e+9 
           2970       2.7583e+9 
           2990      2.69687e+9 
           3010      2.63541e+9 
           3030      2.57973e+9 
           3050      2.52596e+9 
           3070      2.47381e+9 
           3090      2.40918e+9 
           3110      2.36848e+9 
           3130      2.31808e+9 
           3150      2.26892e+9 
           3170      2.22201e+9 
           3190      2.16303e+9 
           3210      2.12742e+9 
           3230      2.08628e+9 
           3250      2.04491e+9 
           3270      2.00384e+9 
           3290      1.96163e+9 
           3310      1.92475e+9 
           3330      1.88499e+9 
           3350      1.84533e+9 
           3370      1.81112e+9 
           3390       1.7767e+9 
           3410      1.74202e+9 
           3430      1.70185e+9 
           3450      1.66362e+9 
           3470      1.63521e+9 
           3490       1.6035e+9 
           3510      1.57876e+9 
           3530      1.55001e+9 
           3550       1.5207e+9 
           3570      1.49756e+9 
           3590      1.46183e+9 
           3610      1.43721e+9 
           3630      1.40784e+9 
           3640      1.40179e+9 
           3650      1.36895e+9 
           3670      1.34912e+9 
           3690      1.31539e+9 
           3710       1.2788e+9 
           3730      1.24257e+9 
           3750      1.30107e+9 
           3770      1.29135e+9 
           3790       1.3145e+9 
           3810       1.3454e+9 
           3830      1.21988e+9 
           3850      1.33983e+9 
           3870      1.31951e+9 
           3890      1.16309e+9 
           3910      1.28819e+9 
           3930      1.25869e+9 
           3950      1.24182e+9 
           3970      1.07665e+9 
           3990      1.19871e+9 
           4010      1.17737e+9 
           4030      1.13414e+9 
           4050      1.14384e+9 
           4070       1.1158e+9 
           4090      1.07142e+9 
           4110      9.75695e+8 
           4130      1.05609e+9 
           4150      1.04132e+9 
           4170       1.0298e+9 
           4190       1.0125e+9 
           4210      9.95934e+8 
           4230      9.80622e+8 
           4250      9.62362e+8 
           4270      9.44442e+8 
           4290      9.30232e+8 
           4310      9.13304e+8 
           4330       8.6904e+8 
           4350      8.05601e+8 
           4370      8.69479e+8 
           4390       8.4664e+8 
           4410      8.41845e+8 
           4430       8.2927e+8 
           4450      8.17514e+8 
           4470       7.8642e+8 
           4490      7.91595e+8 
           4510      7.79793e+8 
           4530      7.67709e+8 
           4550      7.53714e+8 
           4570      7.42603e+8 
           4590      7.30692e+8 
           4610      7.20023e+8 
           4630         7.09e+8 
           4650      6.91328e+8 
           4670      6.86335e+8 
           4690      6.73352e+8 
           4710      6.58849e+8 
           4730      6.57145e+8 
           4750      6.46898e+8 
           4770      6.37792e+8 
           4790      6.28208e+8 
           4810      6.18566e+8 
           4830      6.08254e+8 
           4850      5.84445e+8 
           4870      5.35575e+8 
           4890      5.81619e+8 
           4910       5.7414e+8 
           4930      5.57711e+8 
           4950      5.56903e+8 
           4970      5.49715e+8 
           4990      5.41732e+8 
           5010      5.28845e+8 
           5030      5.26167e+8 
           5050      5.16556e+8 
           5070      5.11346e+8 
           5090      5.04005e+8 
           5110      4.96894e+8 
           5130      4.89835e+8 
           5150      4.82927e+8 
           5170      4.76111e+8 
           5190      4.69567e+8 
           5210      4.63027e+8 
           5230      4.56641e+8 
           5250      4.50312e+8 
           5270      4.44093e+8 
           5290      4.38022e+8 
           5310      4.32016e+8 
           5330      4.26141e+8 
           5350      4.20329e+8 
           5370      4.14656e+8 
           5390      4.08991e+8 
           5410      4.02973e+8 
           5430      3.98132e+8 
           5450       3.9278e+8 
           5470      3.87559e+8 
           5490      3.82415e+8 
           5510      3.77373e+8 
           5530      3.72394e+8 
           5550      3.67502e+8 
           5570      3.62669e+8 
           5590      3.57909e+8 
           5610      3.53278e+8 
           5630      3.48693e+8 
           5650      3.44164e+8 
           5670      3.39654e+8 
           5690      3.34897e+8 
           5710      3.30209e+8 
           5730      3.26038e+8 
           5750      3.21723e+8 
           5770      3.17855e+8 
           5790      3.13843e+8 
           5810      3.09934e+8 
           5830      3.06459e+8 
           5850      3.02782e+8 
           5870      2.92434e+8 
           5890      2.95034e+8 
           5910      2.91596e+8 
           5930      2.87982e+8 
           5950      2.84432e+8 
           5970      2.80997e+8 
           5990      2.77517e+8 
           6010       2.7414e+8 
           6030      2.70781e+8 
           6050      2.67511e+8 
           6070      2.64279e+8 
           6090      2.61083e+8 
           6110      2.57934e+8 
           6130       2.5484e+8 
           6150      2.51761e+8 
           6170      2.48765e+8 
           6190      2.45823e+8 
           6210      2.42904e+8 
           6230      2.40027e+8 
           6250      2.37191e+8 
           6270      2.34406e+8 
           6290      2.31661e+8 
           6310      2.28936e+8 
           6330      2.26279e+8 
           6350      2.23632e+8 
           6370      2.21051e+8 
           6390      2.18488e+8 
           6410      2.15962e+8 
           6430      2.13491e+8 
           6450      2.11037e+8 
           6470      2.08601e+8 
           6490      2.06217e+8 
           6510      2.03903e+8 
           6530      2.01428e+8 
           6550      1.96441e+8 
           6570      1.79118e+8 
           6590      1.94202e+8 
           6610      1.92641e+8 
           6630      1.90512e+8 
           6650      1.88431e+8 
           6670      1.85041e+8 
           6690      1.83002e+8 
           6710      1.82248e+8 
           6730      1.80193e+8 
           6750      1.78275e+8 
           6770      1.76319e+8 
           6790      1.74351e+8 
           6810      1.72483e+8 
           6830      1.70594e+8 
           6850      1.68756e+8 
           6870      1.66929e+8 
           6890      1.65081e+8 
           6910      1.63306e+8 
           6930      1.61604e+8 
           6950      1.59872e+8 
           6970      1.58164e+8 
           6990      1.56474e+8 
           7010      1.54824e+8 
           7030      1.53174e+8 
           7050      1.51563e+8 
           7070      1.47956e+8 
           7090      1.48389e+8 
           7110      1.46825e+8 
           7130      1.45299e+8 
           7150      1.43787e+8 
           7170      1.42253e+8 
           7190      1.40814e+8 
           7210       1.3936e+8 
           7230      1.37725e+8 
           7250      1.36458e+8 
           7270      1.35102e+8 
           7290      1.32781e+8 
           7310      1.32337e+8 
           7330      1.31006e+8 
           7350      1.29673e+8 
           7370       1.2836e+8 
           7390      1.27059e+8 
           7410      1.25778e+8 
           7430      1.24514e+8 
           7450      1.23277e+8 
           7470      1.21989e+8 
           7490      1.20822e+8 
           7510      1.19585e+8 
           7530      1.18432e+8 
           7550      1.17257e+8 
           7570      1.16099e+8 
           7590      1.14939e+8 
           7610      1.13808e+8 
           7630      1.12708e+8 
           7650      1.11604e+8 
           7670      1.10517e+8 
           7690      1.09433e+8 
           7710      1.08372e+8 
           7730       1.0732e+8 
           7750      1.06278e+8 
           7770      1.05251e+8 
           7790      1.04245e+8 
           7810      1.03193e+8 
           7830      1.02261e+8 
           7850      1.01362e+8 
           7870      1.00367e+8 
           7890      9.93745e+7 
           7910      9.84933e+7 
           7930      9.75538e+7 
           7950      9.66225e+7 
           7970      9.55925e+7 
           7990      9.47251e+7 
           8010      9.37888e+7 
           8030      9.29307e+7 
           8050      9.21033e+7 
           8070      9.12598e+7 
           8090      9.02853e+7 
           8110      8.94281e+7 
           8130      8.87721e+7 
           8150      8.78038e+7 
           8170      8.71487e+7 
           8190      8.62462e+7 
           8210       8.5167e+7 
           8230        8.457e+7 
           8250       8.3856e+7 
           8270      8.27073e+7 
           8290      8.22484e+7 
           8310      8.15311e+7 
           8330      8.07709e+7 
           8350      7.97306e+7 
           8370      7.91726e+7 
           8390      7.85441e+7 
           8410      7.78141e+7 
           8430      7.70371e+7 
           8450      7.59975e+7 
           8470      7.54447e+7 
           8490      7.50322e+7 
           8510      7.38268e+7 
           8530      7.39004e+7 
           8550      7.16998e+7 
           8570      7.34122e+7 
