# Kurucz ODFNEW /NOVER (2003)
# teff = 25000 K (value for the effective temperature for the model. Temperatures are given in K)
# logg = 5 log(cm/s2) (value for Log(G) for the model.)
# meta = -0.5  (value for the Metallicity for the model.)
# lh = 1.25  (l/Hp where l is the  mixing length of the convective element and Hp is the pressure scale height)
# vtur = 2 km/s (Microturbulence velocity)
# alpha = 0  (Alpha)
#
# column 1: WAVELENGTH (ANGSTROM), Wavelength in Angstrom
# column 2: FLUX (ERG/CM2/S/A), Flux in erg/cm2/s/A
          147.2     1.04785e-13 
            151      4.3973e-13 
          155.2     1.98648e-12 
          158.8     6.81648e-12 
            162     1.95284e-11 
            166     6.89982e-11 
          170.3     2.51741e-10 
          173.4     6.17024e-10 
          176.8      1.59378e-9 
          180.2       3.9818e-9 
          181.7       5.9024e-9 
          186.1      1.81168e-8 
            191      5.96637e-8 
          193.9      1.17586e-7 
          198.4      3.24697e-7 
          201.8      6.79881e-7 
            205      1.33444e-6 
          210.5      4.06451e-6 
          216.2      1.21725e-5 
          219.8      2.36586e-5 
            223      4.19714e-5 
          226.8      8.12296e-5 
            230      0.00221893 
            234      0.00505202 
            240        0.011933 
          246.5       0.0288154 
          252.4       0.0624061 
          256.8        0.103959 
            260        0.158416 
            264        0.251558 
          268.5        0.416516 
          273.5        0.713448 
          278.5          1.2034 
            284         2.10327 
            290         3.73258 
            296         6.46257 
            301         10.0198 
            308         17.6717 
            318         40.6779 
            328         84.7452 
            338         173.024 
            348         333.819 
            357         607.413 
            366         1046.41 
            375         1699.43 
            385         2886.25 
            395         4744.34 
            405         7568.35 
            414         11375.1 
            422         15839.9 
            430         21984.4 
            441         33817.9 
            451         49098.7 
            460         67042.2 
            470         94330.7 
            480          129800 
            490          176926 
            500          237701 
            506      1.31208e+6 
            512      5.58705e+6 
            520      6.70548e+6 
            530      8.60724e+6 
            540      9.38142e+6 
            550      1.26718e+7 
            560      1.44625e+7 
            570      1.74532e+7 
            580       1.7534e+7 
            590      2.22683e+7 
            600      2.55789e+7 
            610       2.9782e+7 
            620      3.29501e+7 
            630      3.68937e+7 
            640       3.8406e+7 
            650      4.10256e+7 
            658      4.78112e+7 
            665      5.24376e+7 
            675       5.6479e+7 
            685      6.07697e+7 
            695      7.16209e+7 
            705      7.64184e+7 
            716      8.51701e+7 
            726      9.09881e+7 
            735      9.72812e+7 
            745       1.0759e+8 
            755       1.1612e+8 
            765      1.24917e+8 
            775      1.34873e+8 
            785      1.45122e+8 
            795      1.52832e+8 
            805      1.62104e+8 
            815      1.70804e+8 
            825       1.8383e+8 
            835      1.86224e+8 
            845      2.00836e+8 
            855      2.10848e+8 
            865      2.24384e+8 
            875      2.38765e+8 
            885      2.53779e+8 
            895      2.66134e+8 
            905      2.71885e+8 
            915      3.37539e+8 
            925      1.30693e+9 
            935      3.36978e+9 
            945     1.08316e+10 
            955     1.90028e+10 
            965     2.64998e+10 
            975      6.05383e+9 
            985     3.30952e+10 
            995     3.17533e+10 
           1005     3.48429e+10 
           1015     2.93053e+10 
           1025       6.6645e+9 
           1035     2.26799e+10 
           1045     3.73995e+10 
           1055     3.58883e+10 
           1065     3.02463e+10 
           1075     3.38678e+10 
           1085     3.02708e+10 
           1095     3.32703e+10 
           1105     3.05515e+10 
           1115     2.99956e+10 
           1125     2.62595e+10 
           1135     2.97412e+10 
           1145     2.65507e+10 
           1155     2.77845e+10 
           1165     2.75028e+10 
           1175     2.00089e+10 
           1185     2.59902e+10 
           1195     2.29928e+10 
           1205     1.60442e+10 
           1215      5.44567e+9 
           1225     1.66817e+10 
           1235      2.2512e+10 
           1245     2.27854e+10 
           1255     2.22972e+10 
           1265     2.20584e+10 
           1275     2.24382e+10 
           1285     2.19988e+10 
           1295     1.77734e+10 
           1305     1.79447e+10 
           1315     2.07076e+10 
           1325     1.94817e+10 
           1335     1.85948e+10 
           1345      1.8765e+10 
           1355     1.86881e+10 
           1365     1.74593e+10 
           1375     1.71335e+10 
           1385      1.6983e+10 
           1395     1.45355e+10 
           1405     1.50224e+10 
           1415     1.54658e+10 
           1425     1.51259e+10 
           1435     1.51478e+10 
           1442     1.53715e+10 
           1447     1.50585e+10 
           1455      1.4732e+10 
           1465     1.39758e+10 
           1475     1.38501e+10 
           1485     1.34642e+10 
           1495     1.32769e+10 
           1505      1.2328e+10 
           1512     1.14277e+10 
           1517     1.16744e+10 
           1525     1.17979e+10 
           1535      1.0621e+10 
           1545     1.06552e+10 
           1555     1.01583e+10 
           1565     1.05541e+10 
           1575     1.08472e+10 
           1585     1.06646e+10 
           1595     1.06249e+10 
           1605     1.04012e+10 
           1615     1.01637e+10 
           1625     1.00656e+10 
           1635     1.02599e+10 
           1645     1.00374e+10 
           1655      9.86406e+9 
           1665      9.96635e+9 
           1672       9.6176e+9 
           1677      9.95122e+9 
           1685      9.74762e+9 
           1695      9.38695e+9 
           1705      9.03262e+9 
           1715      8.68743e+9 
           1725      8.50533e+9 
           1735      8.63359e+9 
           1745      8.43038e+9 
           1755      8.46485e+9 
           1765       8.0815e+9 
           1775      7.91668e+9 
           1785      7.90449e+9 
           1795      7.98971e+9 
           1805      7.94317e+9 
           1815      7.43584e+9 
           1825      7.53985e+9 
           1835      7.31793e+9 
           1845      6.77344e+9 
           1855      6.71079e+9 
           1865      6.77625e+9 
           1875      6.93766e+9 
           1885      6.33677e+9 
           1895      5.95933e+9 
           1905      6.28892e+9 
           1915      6.00121e+9 
           1925       5.7849e+9 
           1935      5.96976e+9 
           1945      6.06617e+9 
           1955      5.59334e+9 
           1967      5.86473e+9 
           1976      6.05785e+9 
           1984       5.6566e+9 
           1995      5.52908e+9 
           2005      5.60902e+9 
           2015      5.57315e+9 
           2025      5.66524e+9 
           2035      5.30649e+9 
           2045      5.29598e+9 
           2055       5.1401e+9 
           2065      5.17437e+9 
           2074      5.29806e+9 
           2078      5.00068e+9 
           2085      5.07038e+9 
           2095      4.85145e+9 
           2105      4.95459e+9 
           2115      4.91223e+9 
           2125      4.95704e+9 
           2135      4.84145e+9 
           2145      4.66508e+9 
           2155      4.74195e+9 
           2165      4.68699e+9 
           2175      4.60919e+9 
           2185      4.53143e+9 
           2195      4.51846e+9 
           2205      4.45146e+9 
           2215      4.39131e+9 
           2225      4.29379e+9 
           2235      4.23954e+9 
           2245      4.22428e+9 
           2255      4.12689e+9 
           2265      4.12196e+9 
           2275      4.06207e+9 
           2285      4.03489e+9 
           2295      3.87299e+9 
           2305      3.91022e+9 
           2315      3.82267e+9 
           2325      3.77968e+9 
           2335       3.6874e+9 
           2345      3.65068e+9 
           2355      3.64249e+9 
           2365      3.57949e+9 
           2375      3.53071e+9 
           2385      3.48322e+9 
           2395      3.45248e+9 
           2405      3.39348e+9 
           2415       3.3511e+9 
           2425      3.34357e+9 
           2435      3.26965e+9 
           2445      3.24586e+9 
           2455      3.22666e+9 
           2465       3.1722e+9 
           2475      3.13481e+9 
           2485      3.09676e+9 
           2495      2.96492e+9 
           2505      3.01544e+9 
           2513        2.905e+9 
           2518      2.97078e+9 
           2525      2.93383e+9 
           2535      2.88892e+9 
           2545      2.83288e+9 
           2555      2.83775e+9 
           2565       2.7982e+9 
           2575      2.78242e+9 
           2585      2.75304e+9 
           2595      2.72006e+9 
           2605      2.69761e+9 
           2615      2.66897e+9 
           2625      2.64244e+9 
           2635      2.61174e+9 
           2645      2.59332e+9 
           2655      2.56559e+9 
           2665      2.51062e+9 
           2675       2.4903e+9 
           2685       2.4801e+9 
           2695      2.41416e+9 
           2705      2.40875e+9 
           2715      2.38353e+9 
           2725      2.33832e+9 
           2735      2.33832e+9 
           2745      2.27552e+9 
           2755      2.26489e+9 
           2765      2.23148e+9 
           2775      2.23974e+9 
           2785      2.20907e+9 
           2795      2.13518e+9 
           2805      2.14613e+9 
           2815       2.1425e+9 
           2825      2.09201e+9 
           2835      2.04104e+9 
           2845      2.06675e+9 
           2855      2.04379e+9 
           2865      2.02757e+9 
           2875      2.00415e+9 
           2885      1.98277e+9 
           2895      1.96073e+9 
           2910      1.92713e+9 
           2930      1.88442e+9 
           2950      1.82804e+9 
           2970      1.80901e+9 
           2990      1.76585e+9 
           3010      1.72832e+9 
           3030       1.7002e+9 
           3050      1.66518e+9 
           3070      1.63165e+9 
           3090      1.58996e+9 
           3110      1.56467e+9 
           3130      1.53412e+9 
           3150      1.50399e+9 
           3170      1.47136e+9 
           3190      1.42842e+9 
           3210      1.41576e+9 
           3230      1.38698e+9 
           3250      1.36051e+9 
           3270      1.33539e+9 
           3290      1.30754e+9 
           3310      1.28515e+9 
           3330      1.26015e+9 
           3350      1.23397e+9 
           3370      1.21273e+9 
           3390      1.19059e+9 
           3410      1.16844e+9 
           3430      1.14118e+9 
           3450      1.11574e+9 
           3470      1.09844e+9 
           3490      1.07822e+9 
           3510         1.06e+9 
           3530      1.04252e+9 
           3550      1.02459e+9 
           3570      1.01359e+9 
           3590      9.85166e+8 
           3610       9.7188e+8 
           3630       9.5208e+8 
           3640      9.52713e+8 
           3650      9.35511e+8 
           3670      9.23971e+8 
           3690      9.08643e+8 
           3710      8.78208e+8 
           3730      8.46151e+8 
           3750      8.40873e+8 
           3770      8.20578e+8 
           3790      8.61037e+8 
           3810       9.0089e+8 
           3830      7.79403e+8 
           3850      9.36124e+8 
           3870      9.61563e+8 
           3890      7.29703e+8 
           3910      9.52537e+8 
           3930      9.48013e+8 
           3950      9.23588e+8 
           3970      6.79556e+8 
           3990      8.79984e+8 
           4010      8.95266e+8 
           4030      8.26277e+8 
           4050       8.7907e+8 
           4070      8.49005e+8 
           4090      7.50617e+8 
           4110      6.48166e+8 
           4130      7.93661e+8 
           4150      7.96245e+8 
           4170      7.93587e+8 
           4190      7.84655e+8 
           4210      7.73966e+8 
           4230      7.59611e+8 
           4250      7.44511e+8 
           4270      7.23792e+8 
           4290       7.1665e+8 
           4310       6.9454e+8 
           4330      6.01938e+8 
           4350      5.46225e+8 
           4370      6.56484e+8 
           4390      6.34174e+8 
           4410      6.49529e+8 
           4430      6.39551e+8 
           4450      6.31665e+8 
           4470      5.81378e+8 
           4490      6.08968e+8 
           4510      6.04746e+8 
           4530      5.94479e+8 
           4550      5.85043e+8 
           4570      5.75658e+8 
           4590      5.66987e+8 
           4610      5.57239e+8 
           4630      5.48235e+8 
           4650      5.37431e+8 
           4670      5.32371e+8 
           4690      5.25528e+8 
           4710      5.06674e+8 
           4730      5.06827e+8 
           4750      4.98877e+8 
           4770      4.94984e+8 
           4790      4.86032e+8 
           4810      4.76283e+8 
           4830      4.63288e+8 
           4850      4.11652e+8 
           4870      3.64977e+8 
           4890      4.40078e+8 
           4910      4.41063e+8 
           4930      4.21759e+8 
           4950       4.3178e+8 
           4970      4.26787e+8 
           4990      4.20392e+8 
           5010        4.052e+8 
           5030      4.08074e+8 
           5050      3.97905e+8 
           5070      3.97029e+8 
           5090      3.91298e+8 
           5110      3.85529e+8 
           5130      3.79179e+8 
           5150      3.73867e+8 
           5170      3.69796e+8 
           5190      3.64714e+8 
           5210      3.58866e+8 
           5230       3.5468e+8 
           5250      3.49824e+8 
           5270      3.44949e+8 
           5290      3.40393e+8 
           5310      3.35723e+8 
           5330      3.31047e+8 
           5350      3.26273e+8 
           5370      3.22397e+8 
           5390      3.18038e+8 
           5410      3.13799e+8 
           5430      3.09357e+8 
           5450      3.05303e+8 
           5470      3.01286e+8 
           5490      2.97408e+8 
           5510      2.93565e+8 
           5530      2.89647e+8 
           5550      2.85985e+8 
           5570      2.82199e+8 
           5590      2.78616e+8 
           5610      2.74909e+8 
           5630      2.71498e+8 
           5650      2.67419e+8 
           5670      2.63731e+8 
           5690      2.60298e+8 
           5710      2.57669e+8 
           5730      2.54474e+8 
           5750        2.511e+8 
           5770      2.48219e+8 
           5790       2.4508e+8 
           5810      2.42001e+8 
           5830      2.38913e+8 
           5850      2.35995e+8 
           5870      2.23642e+8 
           5890      2.28467e+8 
           5910      2.27247e+8 
           5930      2.24399e+8 
           5950       2.2152e+8 
           5970      2.19172e+8 
           5990      2.16304e+8 
           6010      2.13855e+8 
           6030      2.11226e+8 
           6050      2.08721e+8 
           6070      2.06243e+8 
           6090      2.03753e+8 
           6110      2.01342e+8 
           6130      1.98967e+8 
           6150      1.96281e+8 
           6170      1.94189e+8 
           6190      1.91982e+8 
           6210      1.89732e+8 
           6230      1.87506e+8 
           6250      1.85189e+8 
           6270      1.83119e+8 
           6290      1.81023e+8 
           6310      1.78874e+8 
           6330      1.76871e+8 
           6350      1.74469e+8 
           6370      1.72661e+8 
           6390      1.70807e+8 
           6410      1.68853e+8 
           6430      1.66993e+8 
           6450      1.65063e+8 
           6470      1.62982e+8 
           6490      1.61076e+8 
           6510      1.58878e+8 
           6530      1.55866e+8 
           6550      1.45555e+8 
           6570      1.27773e+8 
           6590      1.48321e+8 
           6610      1.49865e+8 
           6630      1.48783e+8 
           6650       1.4754e+8 
           6670      1.43811e+8 
           6690      1.42355e+8 
           6710      1.42838e+8 
           6730      1.41233e+8 
           6750      1.39761e+8 
           6770      1.38246e+8 
           6790       1.3637e+8 
           6810      1.35221e+8 
           6830      1.33784e+8 
           6850      1.32378e+8 
           6870      1.30962e+8 
           6890      1.29552e+8 
           6910      1.28164e+8 
           6930      1.26806e+8 
           6950      1.25492e+8 
           6970      1.24168e+8 
           6990      1.22849e+8 
           7010      1.21567e+8 
           7030      1.20289e+8 
           7050      1.19024e+8 
           7070      1.15593e+8 
           7090      1.16583e+8 
           7110      1.15362e+8 
           7130      1.14174e+8 
           7150      1.12991e+8 
           7170      1.11827e+8 
           7190      1.10695e+8 
           7210      1.09568e+8 
           7230      1.07492e+8 
           7250      1.07323e+8 
           7270      1.06255e+8 
           7290      1.04199e+8 
           7310      1.04109e+8 
           7330      1.03072e+8 
           7350      1.02037e+8 
           7370      1.01019e+8 
           7390      1.00011e+8 
           7410      9.90124e+7 
           7430      9.80092e+7 
           7450      9.70628e+7 
           7470      9.60509e+7 
           7490      9.51492e+7 
           7510      9.41822e+7 
           7530      9.32839e+7 
           7550      9.23872e+7 
           7570      9.14855e+7 
           7590       9.0592e+7 
           7610      8.97066e+7 
           7630      8.88422e+7 
           7650      8.79856e+7 
           7670      8.71367e+7 
           7690      8.62955e+7 
           7710      8.54681e+7 
           7730      8.46481e+7 
           7750      8.38417e+7 
           7770      8.28428e+7 
           7790      8.22566e+7 
           7810      8.14282e+7 
           7830      8.07055e+7 
           7850      7.99707e+7 
           7870      7.92059e+7 
           7890      7.83752e+7 
           7910      7.77807e+7 
           7930      7.70534e+7 
           7950      7.62787e+7 
           7970       7.5499e+7 
           7990       7.4732e+7 
           8010      7.40657e+7 
           8030      7.33701e+7 
           8050      7.26862e+7 
           8070      7.20198e+7 
           8090      7.12957e+7 
           8110      7.06581e+7 
           8130      7.00943e+7 
           8150      6.94218e+7 
           8170      6.88453e+7 
           8190      6.81387e+7 
           8210      6.73824e+7 
           8230       6.6894e+7 
           8250      6.63653e+7 
           8270      6.54498e+7 
           8290      6.51563e+7 
           8310      6.46139e+7 
           8330          6.4e+7 
           8350      6.31372e+7 
           8370      6.27767e+7 
           8390      6.23332e+7 
           8410      6.17814e+7 
           8430      6.11971e+7 
           8450      6.01744e+7 
           8470      6.01373e+7 
           8490      5.94571e+7 
           8510      5.90427e+7 
           8530      5.83934e+7 
           8550      5.77752e+7 
           8570      5.76751e+7 
           8590      5.59824e+7 
