# Kurucz ODFNEW /NOVER (2003)
# teff = 26000 K (value for the effective temperature for the model. Temperatures are given in K)
# logg = 5 log(cm/s2) (value for Log(G) for the model.)
# meta = -0.5  (value for the Metallicity for the model.)
# lh = 1.25  (l/Hp where l is the  mixing length of the convective element and Hp is the pressure scale height)
# vtur = 2 km/s (Microturbulence velocity)
# alpha = 0  (Alpha)
#
# column 1: WAVELENGTH (ANGSTROM), Wavelength in Angstrom
# column 2: FLUX (ERG/CM2/S/A), Flux in erg/cm2/s/A
          147.2     9.79455e-13 
            151     3.87601e-12 
          155.2     1.64912e-11 
          158.8     5.39262e-11 
            162     1.48386e-10 
            166     4.99881e-10 
          170.3      1.73816e-9 
          173.4      4.12256e-9 
          176.8      1.02882e-8 
          180.2      2.48681e-8 
          181.7       3.6346e-8 
          186.1       1.0719e-7 
            191      3.38428e-7 
          193.9      6.51229e-7 
          198.4      1.73499e-6 
          201.8      3.53961e-6 
            205      6.78373e-6 
          210.5      1.98617e-5 
          216.2       5.7194e-5 
          219.8      0.00010853 
            223     0.000188581 
          226.8     0.000356331 
            230       0.0158711 
            234       0.0359852 
            240       0.0808137 
          246.5        0.185648 
          252.4        0.385442 
          256.8        0.616855 
            260        0.931904 
            264         1.43457 
          268.5         2.31079 
          273.5         3.83663 
          278.5         6.28123 
            284         10.6896 
            290         18.3195 
            296         30.7245 
            301         46.3006 
            308         78.5356 
            318         174.305 
            328          346.32 
            338         681.182 
            348         1263.29 
            357         2294.48 
            366         3850.09 
            375         6025.26 
            385         9909.46 
            395         15829.5 
            405         24442.3 
            414         35836.3 
            422         48623.8 
            430         66242.4 
            441         98918.1 
            451          140021 
            460          186691 
            470          257213 
            480          346071 
            490          462274 
            500          609307 
            506      3.16555e+6 
            512      1.39116e+7 
            520      1.62827e+7 
            530      2.02849e+7 
            540      2.16917e+7 
            550      2.88232e+7 
            560      3.24461e+7 
            570      3.85032e+7 
            580      3.82497e+7 
            590      4.77714e+7 
            600      5.36442e+7 
            610      6.15564e+7 
            620      6.72546e+7 
            630      7.40844e+7 
            640      7.57938e+7 
            650      8.09322e+7 
            658      9.25283e+7 
            665      1.00941e+8 
            675        1.072e+8 
            685      1.13599e+8 
            695      1.34024e+8 
            705      1.40778e+8 
            716      1.56143e+8 
            726      1.65051e+8 
            735      1.74702e+8 
            745      1.92117e+8 
            755      2.05434e+8 
            765      2.19295e+8 
            775      2.34973e+8 
            785       2.5121e+8 
            795      2.62389e+8 
            805      2.76106e+8 
            815      2.88418e+8 
            825      3.08856e+8 
            835      3.07716e+8 
            845      3.32122e+8 
            855      3.46172e+8 
            865      3.66435e+8 
            875      3.87946e+8 
            885      4.10517e+8 
            895       4.2824e+8 
            905      4.35318e+8 
            915      5.23725e+8 
            925      2.06156e+9 
            935      5.21339e+9 
            945     1.55007e+10 
            955     2.50155e+10 
            965      3.4554e+10 
            975      8.20928e+9 
            985     4.05919e+10 
            995     3.82961e+10 
           1005     4.19278e+10 
           1015     3.64821e+10 
           1025      9.61415e+9 
           1035     2.90253e+10 
           1045     4.49443e+10 
           1055     4.29015e+10 
           1065     3.62406e+10 
           1075     4.02149e+10 
           1085     3.59153e+10 
           1095     3.95039e+10 
           1105     3.64349e+10 
           1115     3.58055e+10 
           1125     3.10998e+10 
           1135     3.52596e+10 
           1145     3.15975e+10 
           1155     3.28658e+10 
           1165     3.24095e+10 
           1175     2.33527e+10 
           1185     3.04662e+10 
           1195     2.75023e+10 
           1205     2.00735e+10 
           1215      7.54212e+9 
           1225     2.09645e+10 
           1235     2.67599e+10 
           1245     2.67765e+10 
           1255     2.62439e+10 
           1265     2.60613e+10 
           1275     2.63957e+10 
           1285     2.58541e+10 
           1295     2.11478e+10 
           1305     2.15102e+10 
           1315     2.43437e+10 
           1325     2.29219e+10 
           1335       2.199e+10 
           1345     2.20099e+10 
           1355     2.19592e+10 
           1365     2.05286e+10 
           1375     2.01274e+10 
           1385      1.9883e+10 
           1395     1.68293e+10 
           1405     1.74028e+10 
           1415     1.80864e+10 
           1425     1.75773e+10 
           1435     1.76595e+10 
           1442     1.79123e+10 
           1447     1.75433e+10 
           1455     1.71469e+10 
           1465     1.62721e+10 
           1475      1.6131e+10 
           1485     1.57195e+10 
           1495     1.54612e+10 
           1505     1.43458e+10 
           1512     1.32994e+10 
           1517     1.35687e+10 
           1525     1.36974e+10 
           1535     1.22627e+10 
           1545      1.2237e+10 
           1555     1.16832e+10 
           1565      1.2195e+10 
           1575     1.25343e+10 
           1585     1.23338e+10 
           1595     1.22704e+10 
           1605     1.20011e+10 
           1615     1.16954e+10 
           1625     1.16145e+10 
           1635     1.18421e+10 
           1645     1.15673e+10 
           1655     1.14362e+10 
           1665     1.14878e+10 
           1672      1.1091e+10 
           1677     1.15288e+10 
           1685      1.1254e+10 
           1695     1.08356e+10 
           1705     1.04388e+10 
           1715     1.00424e+10 
           1725      9.82494e+9 
           1735      9.96431e+9 
           1745      9.74317e+9 
           1755      9.75819e+9 
           1765      9.36882e+9 
           1775      9.11983e+9 
           1785      9.11595e+9 
           1795      9.19788e+9 
           1805      9.14828e+9 
           1815      8.55977e+9 
           1825      8.67062e+9 
           1835      8.42388e+9 
           1845      7.78122e+9 
           1855      7.73664e+9 
           1865      7.81528e+9 
           1875      7.97099e+9 
           1885      7.27159e+9 
           1895      6.82882e+9 
           1905      7.20764e+9 
           1915      6.88128e+9 
           1925      6.61519e+9 
           1935      6.84451e+9 
           1945      6.95844e+9 
           1955      6.39746e+9 
           1967      6.71009e+9 
           1976      6.94116e+9 
           1984      6.47442e+9 
           1995       6.3311e+9 
           2005       6.4201e+9 
           2015      6.38846e+9 
           2025      6.48363e+9 
           2035      6.06455e+9 
           2045      6.05286e+9 
           2055      5.86305e+9 
           2065      5.89227e+9 
           2074      6.04172e+9 
           2078      5.69149e+9 
           2085      5.77093e+9 
           2095      5.52473e+9 
           2105      5.65627e+9 
           2115      5.61015e+9 
           2125      5.65783e+9 
           2135      5.52743e+9 
           2145      5.32176e+9 
           2155      5.40901e+9 
           2165      5.34943e+9 
           2175      5.25838e+9 
           2185      5.16862e+9 
           2195      5.15119e+9 
           2205      5.07885e+9 
           2215       5.0119e+9 
           2225      4.90143e+9 
           2235      4.82848e+9 
           2245      4.81374e+9 
           2255      4.70454e+9 
           2265       4.6929e+9 
           2275      4.62561e+9 
           2285      4.58925e+9 
           2295       4.3922e+9 
           2305      4.44798e+9 
           2315      4.34996e+9 
           2325      4.29882e+9 
           2335      4.19989e+9 
           2345      4.16833e+9 
           2355      4.14706e+9 
           2365      4.08283e+9 
           2375      4.01874e+9 
           2385      3.96875e+9 
           2395      3.92497e+9 
           2405      3.86302e+9 
           2415       3.8123e+9 
           2425      3.79771e+9 
           2435      3.71562e+9 
           2445      3.68661e+9 
           2455      3.66095e+9 
           2465      3.60397e+9 
           2475      3.55818e+9 
           2485      3.51178e+9 
           2495      3.33941e+9 
           2505      3.41523e+9 
           2513      3.28972e+9 
           2518      3.36401e+9 
           2525      3.32884e+9 
           2535      3.28146e+9 
           2545      3.21094e+9 
           2555      3.20963e+9 
           2565      3.16834e+9 
           2575      3.14645e+9 
           2585      3.11166e+9 
           2595      3.07402e+9 
           2605      3.04824e+9 
           2615      3.01511e+9 
           2625      2.98464e+9 
           2635      2.94982e+9 
           2645      2.92142e+9 
           2655       2.8901e+9 
           2665       2.8283e+9 
           2675      2.80366e+9 
           2685      2.79186e+9 
           2695      2.71563e+9 
           2705      2.70696e+9 
           2715      2.68072e+9 
           2725      2.63176e+9 
           2735      2.62806e+9 
           2745       2.5647e+9 
           2755      2.55063e+9 
           2765      2.50945e+9 
           2775      2.51645e+9 
           2785      2.48204e+9 
           2795      2.40094e+9 
           2805      2.41009e+9 
           2815      2.40503e+9 
           2825       2.3489e+9 
           2835      2.29223e+9 
           2845      2.32064e+9 
           2855      2.29235e+9 
           2865      2.27307e+9 
           2875      2.24708e+9 
           2885      2.22243e+9 
           2895      2.19699e+9 
           2910      2.15794e+9 
           2930      2.11125e+9 
           2950      2.04674e+9 
           2970      2.02409e+9 
           2990      1.97566e+9 
           3010       1.9307e+9 
           3030      1.89975e+9 
           3050      1.86042e+9 
           3070      1.82283e+9 
           3090      1.77339e+9 
           3110      1.74672e+9 
           3130      1.71116e+9 
           3150      1.67709e+9 
           3170      1.64032e+9 
           3190      1.59257e+9 
           3210      1.57765e+9 
           3230      1.54463e+9 
           3250      1.51498e+9 
           3270      1.48611e+9 
           3290      1.45484e+9 
           3310      1.42936e+9 
           3330       1.4011e+9 
           3350      1.37184e+9 
           3370      1.34761e+9 
           3390      1.32277e+9 
           3410      1.29777e+9 
           3430      1.26712e+9 
           3450      1.23851e+9 
           3470       1.2188e+9 
           3490      1.19594e+9 
           3510       1.1754e+9 
           3530      1.15568e+9 
           3550      1.13543e+9 
           3570       1.1229e+9 
           3590      1.09078e+9 
           3610      1.07583e+9 
           3630      1.05366e+9 
           3640      1.05442e+9 
           3650      1.03457e+9 
           3670      1.02162e+9 
           3690      1.00446e+9 
           3710       9.7072e+8 
           3730      9.36564e+8 
           3750      9.28235e+8 
           3770      9.03781e+8 
           3790      9.43784e+8 
           3810      9.84665e+8 
           3830      8.55011e+8 
           3850      1.01934e+9 
           3870      1.04354e+9 
           3890      8.00607e+8 
           3910      1.03245e+9 
           3930       1.0258e+9 
           3950       1.0001e+9 
           3970      7.44811e+8 
           3990      9.53744e+8 
           4010      9.67823e+8 
           4030      8.95518e+8 
           4050        9.488e+8 
           4070      9.15527e+8 
           4090      8.14733e+8 
           4110      7.06888e+8 
           4130      8.57756e+8 
           4150      8.59199e+8 
           4170      8.55917e+8 
           4190      8.45619e+8 
           4210      8.34416e+8 
           4230       8.1869e+8 
           4250      8.01847e+8 
           4270      7.79704e+8 
           4290      7.71837e+8 
           4310      7.48324e+8 
           4330      6.53237e+8 
           4350      5.93728e+8 
           4370      7.07636e+8 
           4390      6.84568e+8 
           4410      6.99042e+8 
           4430      6.89039e+8 
           4450      6.79968e+8 
           4470      6.27741e+8 
           4490      6.55947e+8 
           4510      6.50827e+8 
           4530      6.39806e+8 
           4550      6.29481e+8 
           4570      6.19203e+8 
           4590      6.09759e+8 
           4610      5.99127e+8 
           4630      5.89516e+8 
           4650      5.76929e+8 
           4670      5.72153e+8 
           4690      5.64886e+8 
           4710      5.44679e+8 
           4730       5.4505e+8 
           4750      5.36396e+8 
           4770      5.32156e+8 
           4790       5.2268e+8 
           4810      5.12171e+8 
           4830      4.98508e+8 
           4850      4.45557e+8 
           4870      3.95808e+8 
           4890      4.73872e+8 
           4910      4.74238e+8 
           4930      4.53798e+8 
           4950      4.63745e+8 
           4970      4.58434e+8 
           4990      4.51514e+8 
           5010      4.35233e+8 
           5030      4.38256e+8 
           5050      4.27657e+8 
           5070      4.26283e+8 
           5090      4.20075e+8 
           5110      4.13864e+8 
           5130      4.06993e+8 
           5150      4.01267e+8 
           5170      3.96844e+8 
           5190      3.91385e+8 
           5210      3.85291e+8 
           5230       3.8056e+8 
           5250      3.75356e+8 
           5270      3.70057e+8 
           5290      3.65124e+8 
           5310       3.6008e+8 
           5330      3.55089e+8 
           5350      3.49978e+8 
           5370       3.4573e+8 
           5390      3.41003e+8 
           5410      3.36466e+8 
           5430      3.31704e+8 
           5450      3.27308e+8 
           5470      3.22968e+8 
           5490      3.18769e+8 
           5510      3.14647e+8 
           5530      3.10405e+8 
           5550      3.06471e+8 
           5570      3.02392e+8 
           5590      2.98533e+8 
           5610      2.94552e+8 
           5630      2.90847e+8 
           5650      2.86549e+8 
           5670      2.82481e+8 
           5690      2.78671e+8 
           5710      2.75925e+8 
           5730      2.72499e+8 
           5750      2.68795e+8 
           5770      2.65781e+8 
           5790      2.62397e+8 
           5810      2.59087e+8 
           5830      2.55728e+8 
           5850      2.52617e+8 
           5870      2.39637e+8 
           5890      2.44572e+8 
           5910      2.43178e+8 
           5930      2.40083e+8 
           5950      2.37014e+8 
           5970       2.3452e+8 
           5990      2.31402e+8 
           6010       2.2878e+8 
           6030      2.25939e+8 
           6050      2.23254e+8 
           6070      2.20609e+8 
           6090      2.17923e+8 
           6110      2.15328e+8 
           6130      2.12782e+8 
           6150      2.09887e+8 
           6170      2.07628e+8 
           6190      2.05266e+8 
           6210      2.02861e+8 
           6230      2.00464e+8 
           6250      1.97987e+8 
           6270      1.95749e+8 
           6290      1.93497e+8 
           6310      1.91193e+8 
           6330      1.89028e+8 
           6350      1.86512e+8 
           6370      1.84554e+8 
           6390      1.82515e+8 
           6410      1.80424e+8 
           6430       1.7842e+8 
           6450      1.76346e+8 
           6470      1.74096e+8 
           6490      1.72095e+8 
           6510      1.69768e+8 
           6530      1.66636e+8 
           6550      1.56075e+8 
           6570      1.37138e+8 
           6590       1.5867e+8 
           6610      1.60109e+8 
           6630      1.58904e+8 
           6650       1.5755e+8 
           6670      1.53625e+8 
           6690      1.52018e+8 
           6710      1.52477e+8 
           6730      1.50732e+8 
           6750      1.49179e+8 
           6770      1.47551e+8 
           6790      1.45514e+8 
           6810      1.44303e+8 
           6830      1.42765e+8 
           6850      1.41258e+8 
           6870      1.39734e+8 
           6890      1.38218e+8 
           6910      1.36725e+8 
           6930      1.35286e+8 
           6950      1.33869e+8 
           6970       1.3245e+8 
           6990      1.31038e+8 
           7010      1.29662e+8 
           7030      1.28293e+8 
           7050      1.26937e+8 
           7070      1.23296e+8 
           7090      1.24317e+8 
           7110      1.23008e+8 
           7130      1.21733e+8 
           7150      1.20471e+8 
           7170      1.19228e+8 
           7190      1.18012e+8 
           7210        1.168e+8 
           7230      1.14562e+8 
           7250       1.1439e+8 
           7270      1.13255e+8 
           7290      1.11054e+8 
           7310      1.10947e+8 
           7330      1.09838e+8 
           7350      1.08732e+8 
           7370      1.07643e+8 
           7390      1.06558e+8 
           7410      1.05489e+8 
           7430      1.04424e+8 
           7450      1.03402e+8 
           7470      1.02303e+8 
           7490      1.01361e+8 
           7510      1.00321e+8 
           7530      9.93567e+7 
           7550      9.83948e+7 
           7570      9.74351e+7 
           7590      9.64776e+7 
           7610      9.55158e+7 
           7630      9.46015e+7 
           7650      9.36827e+7 
           7670      9.27785e+7 
           7690      9.18761e+7 
           7710      9.09944e+7 
           7730      9.01143e+7 
           7750      8.92484e+7 
           7770      8.82092e+7 
           7790       8.7552e+7 
           7810      8.66718e+7 
           7830      8.58917e+7 
           7850      8.51122e+7 
           7870       8.4297e+7 
           7890      8.34102e+7 
           7910      8.27662e+7 
           7930      8.19838e+7 
           7950      8.11665e+7 
           7970      8.03267e+7 
           7990      7.95179e+7 
           8010      7.87925e+7 
           8030      7.80499e+7 
           8050      7.73196e+7 
           8070      7.66129e+7 
           8090      7.58373e+7 
           8110      7.51315e+7 
           8130      7.45629e+7 
           8150      7.38344e+7 
           8170      7.32193e+7 
           8190      7.24578e+7 
           8210      7.16469e+7 
           8230      7.11211e+7 
           8250      7.05498e+7 
           8270      6.95645e+7 
           8290      6.92676e+7 
           8310      6.86836e+7 
           8330      6.80285e+7 
           8350      6.71086e+7 
           8370      6.67237e+7 
           8390      6.62455e+7 
           8410      6.56538e+7 
           8430      6.50352e+7 
           8450      6.39573e+7 
           8470      6.39025e+7 
           8490      6.31784e+7 
           8510      6.27361e+7 
           8530      6.20488e+7 
           8550      6.14084e+7 
           8570      6.12657e+7 
           8590      5.95002e+7 
