# Kurucz ODFNEW /NOVER (2003)
# teff = 19000 K (value for the effective temperature for the model. Temperatures are given in K)
# logg = 2.5 log(cm/s2) (value for Log(G) for the model.)
# meta = -2  (value for the Metallicity for the model.)
# lh = 1.25  (l/Hp where l is the  mixing length of the convective element and Hp is the pressure scale height)
# vtur = 2 km/s (Microturbulence velocity)
# alpha = 0.4  (Alpha)
#
# column 1: WAVELENGTH (ANGSTROM), Wavelength in Angstrom
# column 2: FLUX (ERG/CM2/S/A), Flux in erg/cm2/s/A
          147.2     3.64544e-21 
            151     2.74488e-20 
          155.2     2.26644e-19 
          158.8     1.26471e-18 
            162     5.46174e-18 
            166     3.13595e-17 
          170.3     1.86909e-16 
          173.4      6.3984e-16 
          176.8     2.34475e-15 
          180.2     8.16977e-15 
          181.7     1.39544e-14 
          186.1     6.37433e-14 
            191     3.17784e-13 
          193.9     7.90379e-13 
          198.4      3.0769e-12 
          201.8     8.24067e-12 
            205     2.01914e-11 
          210.5     8.81666e-11 
          216.2     3.74026e-10 
          219.8      8.9488e-10 
            223      1.89581e-9 
          226.8      4.49198e-9 
            230      1.74691e-8 
            234      4.39428e-8 
            240      1.41574e-7 
          246.5      4.71359e-7 
          252.4      1.33813e-6 
          256.8      2.75979e-6 
            260      4.73598e-6 
            264      8.93932e-6 
          268.5      1.78279e-5 
          273.5      3.73429e-5 
          278.5      7.62277e-5 
            284     0.000162124 
            290     0.000356778 
            296     0.000758782 
            301      0.00139014 
            308      0.00310032 
            318      0.00940594 
            328         0.02625 
            338       0.0688404 
            348        0.170195 
            357        0.367273 
            366        0.761918 
            375          1.5197 
            385         3.14625 
            395         6.25705 
            405         12.0025 
            414         20.9617 
            422         33.6485 
            430         52.9642 
            441         96.2003 
            451         160.907 
            460         250.269 
            470         400.128 
            480         625.953 
            490         959.993 
            500         1444.37 
            506         11619.6 
            512         35515.3 
            520         46908.7 
            530         73130.3 
            540         80615.7 
            550          127926 
            560          161552 
            570          206430 
            580          205253 
            590          287271 
            600          390951 
            610          485121 
            620          582059 
            630          705193 
            640          821704 
            650          982796 
            658      1.14229e+6 
            665       1.2689e+6 
            675      1.45011e+6 
            685      1.68042e+6 
            695      2.00233e+6 
            705      2.28475e+6 
            716      2.66408e+6 
            726      3.01397e+6 
            735      3.40129e+6 
            745      3.88964e+6 
            755      4.39287e+6 
            765      4.92296e+6 
            775      5.54765e+6 
            785       6.1997e+6 
            795      6.86014e+6 
            805      7.61685e+6 
            815      8.36861e+6 
            825      9.27509e+6 
            835      1.00063e+7 
            845      1.10873e+7 
            855      1.20797e+7 
            865       1.3241e+7 
            875      1.44639e+7 
            885      1.57738e+7 
            895      1.70718e+7 
            905      1.81561e+7 
            915      5.00281e+7 
            925      1.29694e+9 
            935      2.88158e+9 
            945      4.77163e+9 
            955      5.30918e+9 
            965      6.01165e+9 
            975      2.93949e+9 
            985      5.92726e+9 
            995      5.66906e+9 
           1005        5.938e+9 
           1015      5.83364e+9 
           1025      3.67075e+9 
           1035      5.18765e+9 
           1045       6.3494e+9 
           1055      6.15683e+9 
           1065      5.62923e+9 
           1075       6.0531e+9 
           1085      5.69818e+9 
           1095       6.1306e+9 
           1105      5.75141e+9 
           1115      5.78355e+9 
           1125      5.48682e+9 
           1135      5.87952e+9 
           1145      5.58273e+9 
           1155      5.79034e+9 
           1165      5.80878e+9 
           1175      5.06117e+9 
           1185      5.72435e+9 
           1195      5.29127e+9 
           1205      4.15148e+9 
           1215       2.5471e+9 
           1225      5.02072e+9 
           1235      5.36013e+9 
           1245      5.38398e+9 
           1255       5.2581e+9 
           1265       5.1979e+9 
           1275      5.28933e+9 
           1285       5.1941e+9 
           1295      4.55753e+9 
           1305      4.68328e+9 
           1315      5.04891e+9 
           1325      4.91226e+9 
           1335      4.71888e+9 
           1345      4.82244e+9 
           1355      4.85925e+9 
           1365      4.71775e+9 
           1375      4.66412e+9 
           1385      4.65848e+9 
           1395      4.30988e+9 
           1405      4.38596e+9 
           1415      4.48675e+9 
           1425      4.43068e+9 
           1435      4.43738e+9 
           1442       4.4359e+9 
           1447      4.39918e+9 
           1455      4.34132e+9 
           1465      4.27822e+9 
           1475      4.23201e+9 
           1485      4.17691e+9 
           1495      4.11448e+9 
           1505      4.01341e+9 
           1512      3.95459e+9 
           1517      3.97587e+9 
           1525      3.93346e+9 
           1535      3.77845e+9 
           1545      3.80971e+9 
           1555      3.70416e+9 
           1565      3.75418e+9 
           1575      3.75131e+9 
           1585      3.70697e+9 
           1595      3.68403e+9 
           1605      3.57655e+9 
           1615      3.53659e+9 
           1625      3.53015e+9 
           1635      3.52782e+9 
           1645      3.46613e+9 
           1655      3.43977e+9 
           1665      3.41924e+9 
           1672      3.35226e+9 
           1677      3.40021e+9 
           1685      3.36084e+9 
           1695      3.29311e+9 
           1705      3.23386e+9 
           1715      3.15796e+9 
           1725      3.14209e+9 
           1735      3.12499e+9 
           1745      3.08248e+9 
           1755      3.08206e+9 
           1765       2.9754e+9 
           1775      2.96314e+9 
           1785      2.95143e+9 
           1795      2.94588e+9 
           1805      2.92582e+9 
           1815      2.84998e+9 
           1825       2.8427e+9 
           1835      2.80979e+9 
           1845      2.69143e+9 
           1855      2.63577e+9 
           1865      2.65004e+9 
           1875      2.67382e+9 
           1885      2.54406e+9 
           1895      2.45161e+9 
           1905      2.53556e+9 
           1915      2.45327e+9 
           1925      2.41046e+9 
           1935      2.44527e+9 
           1945      2.45077e+9 
           1955      2.33508e+9 
           1967      2.38885e+9 
           1976      2.41394e+9 
           1984      2.33124e+9 
           1995      2.27106e+9 
           2005      2.29747e+9 
           2015      2.30061e+9 
           2025      2.30027e+9 
           2035      2.23087e+9 
           2045      2.21037e+9 
           2055      2.14885e+9 
           2065      2.15247e+9 
           2074       2.1919e+9 
           2078      2.12362e+9 
           2085      2.12966e+9 
           2095      2.07427e+9 
           2105      2.08879e+9 
           2115      2.07448e+9 
           2125      2.07677e+9 
           2135      2.04786e+9 
           2145      2.00351e+9 
           2155      2.00645e+9 
           2165      1.98756e+9 
           2175      1.96224e+9 
           2185      1.94432e+9 
           2195      1.92985e+9 
           2205      1.90804e+9 
           2215      1.88871e+9 
           2225      1.86256e+9 
           2235      1.84314e+9 
           2245      1.83139e+9 
           2255      1.80622e+9 
           2265      1.79383e+9 
           2275      1.77489e+9 
           2285      1.75975e+9 
           2295      1.72185e+9 
           2305      1.72211e+9 
           2315      1.69904e+9 
           2325      1.68348e+9 
           2335      1.65631e+9 
           2345      1.64016e+9 
           2355      1.63428e+9 
           2365      1.61375e+9 
           2375      1.59772e+9 
           2385      1.57753e+9 
           2395      1.56346e+9 
           2405      1.54892e+9 
           2415      1.52818e+9 
           2425      1.52271e+9 
           2435      1.50394e+9 
           2445      1.49046e+9 
           2455      1.47797e+9 
           2465      1.46154e+9 
           2475      1.44723e+9 
           2485      1.43207e+9 
           2495      1.38999e+9 
           2505      1.40347e+9 
           2513      1.38136e+9 
           2518      1.38111e+9 
           2525      1.37347e+9 
           2535      1.35966e+9 
           2545      1.33568e+9 
           2555      1.33453e+9 
           2565      1.31693e+9 
           2575      1.31093e+9 
           2585      1.29759e+9 
           2595      1.28481e+9 
           2605      1.27963e+9 
           2615      1.26783e+9 
           2625       1.2549e+9 
           2635       1.2391e+9 
           2645      1.23239e+9 
           2655      1.22008e+9 
           2665      1.20622e+9 
           2675        1.195e+9 
           2685      1.18967e+9 
           2695      1.17002e+9 
           2705      1.16643e+9 
           2715      1.15515e+9 
           2725      1.13608e+9 
           2735      1.13348e+9 
           2745      1.11699e+9 
           2755      1.10775e+9 
           2765      1.09261e+9 
           2775      1.09164e+9 
           2785      1.08081e+9 
           2795      1.05298e+9 
           2805      1.05305e+9 
           2815      1.05128e+9 
           2825      1.03361e+9 
           2835      1.02427e+9 
           2845      1.02188e+9 
           2855      1.01242e+9 
           2865      1.00353e+9 
           2875      9.94144e+8 
           2885      9.85182e+8 
           2895      9.76005e+8 
           2910      9.62455e+8 
           2930      9.44314e+8 
           2950      9.22679e+8 
           2970      9.11276e+8 
           2990      8.94448e+8 
           3010      8.78568e+8 
           3030       8.6352e+8 
           3050      8.48264e+8 
           3070       8.3333e+8 
           3090      8.17527e+8 
           3110       8.0432e+8 
           3130      7.91151e+8 
           3150       7.7715e+8 
           3170      7.63476e+8 
           3190      7.45196e+8 
           3210      7.37657e+8 
           3230      7.24939e+8 
           3250      7.12585e+8 
           3270      7.01252e+8 
           3290      6.88541e+8 
           3310      6.77976e+8 
           3330      6.66629e+8 
           3350       6.5443e+8 
           3370      6.44728e+8 
           3390      6.34127e+8 
           3410      6.23762e+8 
           3430       6.1081e+8 
           3450      5.98937e+8 
           3470      5.91114e+8 
           3490      5.82812e+8 
           3510      5.75975e+8 
           3530      5.66988e+8 
           3550      5.57987e+8 
           3570      5.50954e+8 
           3590       5.3998e+8 
           3610      5.31643e+8 
           3630      5.22999e+8 
           3640      5.21523e+8 
           3650      5.16492e+8 
           3670      5.08556e+8 
           3690      4.90663e+8 
           3710       5.0857e+8 
           3730       5.2325e+8 
           3750      5.71691e+8 
           3770      5.67735e+8 
           3790      5.70545e+8 
           3810       5.8689e+8 
           3830      5.35422e+8 
           3850      5.83985e+8 
           3870      5.71676e+8 
           3890      5.16941e+8 
           3910       5.6068e+8 
           3930      5.47645e+8 
           3950      5.43418e+8 
           3970      4.81737e+8 
           3990        5.264e+8 
           4010      5.16243e+8 
           4030      5.00484e+8 
           4050      5.03615e+8 
           4070       4.9513e+8 
           4090       4.8235e+8 
           4110      4.40355e+8 
           4130      4.69584e+8 
           4150      4.63297e+8 
           4170      4.58538e+8 
           4190      4.52755e+8 
           4210      4.46189e+8 
           4230      4.39538e+8 
           4250      4.32887e+8 
           4270       4.2568e+8 
           4290      4.20246e+8 
           4310      4.13962e+8 
           4330      3.99618e+8 
           4350      3.70906e+8 
           4370      3.96182e+8 
           4390      3.86345e+8 
           4410      3.84805e+8 
           4430      3.78267e+8 
           4450      3.74152e+8 
           4470      3.61497e+8 
           4490      3.63292e+8 
           4510      3.58521e+8 
           4530      3.53435e+8 
           4550      3.48333e+8 
           4570      3.43342e+8 
           4590      3.38694e+8 
           4610      3.34042e+8 
           4630      3.29422e+8 
           4650       3.2426e+8 
           4670      3.20262e+8 
           4690      3.15978e+8 
           4710      3.08528e+8 
           4730      3.07221e+8 
           4750      3.02853e+8 
           4770      2.99176e+8 
           4790      2.95123e+8 
           4810      2.91062e+8 
           4830       2.8709e+8 
           4850      2.78978e+8 
           4870       2.5593e+8 
           4890      2.75756e+8 
           4910      2.72185e+8 
           4930      2.65362e+8 
           4950      2.65006e+8 
           4970      2.61596e+8 
           4990      2.58142e+8 
           5010      2.52438e+8 
           5030      2.51447e+8 
           5050      2.46785e+8 
           5070      2.44974e+8 
           5090      2.41802e+8 
           5110      2.38687e+8 
           5130      2.35612e+8 
           5150      2.32593e+8 
           5170      2.29655e+8 
           5190      2.26728e+8 
           5210      2.23783e+8 
           5230      2.21028e+8 
           5250       2.1824e+8 
           5270      2.15501e+8 
           5290      2.12798e+8 
           5310      2.10143e+8 
           5330      2.07521e+8 
           5350      2.04919e+8 
           5370      2.02416e+8 
           5390      1.99905e+8 
           5410      1.97451e+8 
           5430       1.9499e+8 
           5450      1.92623e+8 
           5470      1.90273e+8 
           5490      1.87977e+8 
           5510      1.85696e+8 
           5530      1.83444e+8 
           5550      1.81231e+8 
           5570      1.79046e+8 
           5590      1.76911e+8 
           5610      1.74778e+8 
           5630      1.72706e+8 
           5650      1.70601e+8 
           5670      1.68579e+8 
           5690      1.66581e+8 
           5710      1.64666e+8 
           5730      1.62726e+8 
           5750      1.60799e+8 
           5770       1.5895e+8 
           5790       1.5709e+8 
           5810      1.55263e+8 
           5830      1.53468e+8 
           5850      1.51694e+8 
           5870       1.4689e+8 
           5890      1.48174e+8 
           5910      1.46526e+8 
           5930      1.44843e+8 
           5950      1.43179e+8 
           5970      1.41566e+8 
           5990       1.3995e+8 
           6010      1.38384e+8 
           6030      1.36815e+8 
           6050      1.35284e+8 
           6070       1.3376e+8 
           6090      1.32263e+8 
           6110      1.30793e+8 
           6130       1.2934e+8 
           6150      1.27892e+8 
           6170      1.26491e+8 
           6190      1.25094e+8 
           6210      1.23723e+8 
           6230      1.22367e+8 
           6250      1.21026e+8 
           6270      1.19699e+8 
           6290      1.18397e+8 
           6310      1.17108e+8 
           6330      1.15843e+8 
           6350      1.14553e+8 
           6370      1.13343e+8 
           6390      1.12146e+8 
           6410      1.10943e+8 
           6430      1.09752e+8 
           6450      1.08584e+8 
           6470      1.07428e+8 
           6490      1.06293e+8 
           6510      1.05169e+8 
           6530      1.04058e+8 
           6550      1.01922e+8 
           6570      9.30545e+7 
           6590      1.00558e+8 
           6610      9.97608e+7 
           6630      9.87313e+7 
           6650      9.77635e+7 
           6670      9.61535e+7 
           6690       9.5167e+7 
           6710      9.47679e+7 
           6730      9.37896e+7 
           6750      9.28294e+7 
           6770       9.1879e+7 
           6790        9.093e+7 
           6810      9.00149e+7 
           6830      8.91008e+7 
           6850      8.81959e+7 
           6870       8.7308e+7 
           6890      8.64209e+7 
           6910      8.55585e+7 
           6930      8.46888e+7 
           6950      8.38511e+7 
           6970      8.30139e+7 
           6990      8.21771e+7 
           7010      8.13715e+7 
           7030      8.05662e+7 
           7050      7.97686e+7 
           7070       7.7886e+7 
           7090      7.82041e+7 
           7110      7.74369e+7 
           7130       7.6677e+7 
           7150      7.59317e+7 
           7170      7.51789e+7 
           7190      7.44625e+7 
           7210      7.37384e+7 
           7230       7.2913e+7 
           7250      7.23177e+7 
           7270       7.1621e+7 
           7290      7.04346e+7 
           7310       7.0245e+7 
           7330      6.95845e+7 
           7350      6.89211e+7 
           7370      6.82653e+7 
           7390      6.76176e+7 
           7410      6.69773e+7 
           7430      6.63435e+7 
           7450      6.57278e+7 
           7470      6.51083e+7 
           7490      6.44992e+7 
           7510      6.38729e+7 
           7530      6.32988e+7 
           7550      6.27095e+7 
           7570      6.21261e+7 
           7590      6.15493e+7 
           7610      6.09797e+7 
           7630      6.04165e+7 
           7650      5.98576e+7 
           7670      5.93115e+7 
           7690      5.87626e+7 
           7710       5.8223e+7 
           7730      5.76989e+7 
           7750      5.71657e+7 
           7770      5.66321e+7 
           7790      5.61406e+7 
           7810      5.55915e+7 
           7830      5.51309e+7 
           7850      5.46859e+7 
           7870      5.41942e+7 
           7890      5.36723e+7 
           7910      5.31664e+7 
           7930      5.26302e+7 
           7950      5.21499e+7 
           7970      5.16703e+7 
           7990      5.12732e+7 
           8010      5.07785e+7 
           8030      5.03699e+7 
           8050      4.99461e+7 
           8070      4.95299e+7 
           8090      4.90027e+7 
           8110      4.86032e+7 
           8130      4.82641e+7 
           8150      4.77439e+7 
           8170      4.74337e+7 
           8190      4.70041e+7 
           8210      4.64735e+7 
           8230      4.62023e+7 
           8250       4.5797e+7 
           8270      4.51957e+7 
           8290      4.49516e+7 
           8310      4.45778e+7 
           8330      4.41713e+7 
           8350      4.36217e+7 
           8370      4.31935e+7 
           8390       4.2891e+7 
           8410      4.24763e+7 
           8430      4.21997e+7 
           8450        4.171e+7 
           8470      4.10018e+7 
           8490      4.16712e+7 
           8510      4.01652e+7 
           8530      4.12502e+7 
           8550      3.90538e+7 
           8570      4.11789e+7 
