# Kurucz ODFNEW /NOVER (2003)
# teff = 22000 K (value for the effective temperature for the model. Temperatures are given in K)
# logg = 4.5 log(cm/s2) (value for Log(G) for the model.)
# meta = -2.5  (value for the Metallicity for the model.)
# lh = 1.25  (l/Hp where l is the  mixing length of the convective element and Hp is the pressure scale height)
# vtur = 2 km/s (Microturbulence velocity)
# alpha = 0  (Alpha)
#
# column 1: WAVELENGTH (ANGSTROM), Wavelength in Angstrom
# column 2: FLUX (ERG/CM2/S/A), Flux in erg/cm2/s/A
          147.2     4.80321e-18 
            151     2.91886e-17 
          155.2     1.93925e-16 
          158.8     9.08948e-16 
            162     3.39077e-15 
            166     1.63715e-14 
          170.3     8.18925e-14 
          173.4     2.48784e-13 
          176.8     8.04434e-13 
          180.2     2.48693e-12 
          181.7     4.03615e-12 
          186.1      1.5963e-11 
            191     6.84228e-11 
          193.9     1.56254e-10 
          198.4       5.358e-10 
          201.8      1.30984e-9 
            205      2.95431e-9 
          210.5      1.12619e-8 
          216.2      4.18411e-8 
          219.8      9.24278e-8 
            223      1.82831e-7 
          226.8      4.00399e-7 
            230      1.00606e-6 
            234      2.26591e-6 
            240      6.72554e-6 
          246.5      2.05203e-5 
          252.4      5.37628e-5 
          256.8     0.000106296 
            260     0.000173379 
            264      0.00031219 
          268.5     0.000591544 
          273.5      0.00117271 
          278.5      0.00226731 
            284      0.00455092 
            290      0.00942675 
            296       0.0189177 
            301        0.033072 
            308       0.0697551 
            318        0.192112 
            328        0.494023 
            338          1.1966 
            348         2.74515 
            357         5.55181 
            366         10.8199 
            375         20.3639 
            385         39.6007 
            395           74.24 
            405          134.55 
            414         223.691 
            422          344.46 
            430         521.125 
            441         896.336 
            451         1430.53 
            460         2137.17 
            470         3272.38 
            480         4911.87 
            490         7237.57 
            500         10478.8 
            506         61152.5 
            512          186609 
            520          239761 
            530          347828 
            540          388292 
            550          552777 
            560          679879 
            570          835773 
            580          869042 
            590      1.15584e+6 
            600       1.4615e+6 
            610      1.74272e+6 
            620      2.05565e+6 
            630      2.41528e+6 
            640      2.80294e+6 
            650      3.27117e+6 
            658      3.67598e+6 
            665        4.054e+6 
            675      4.62485e+6 
            685      5.25498e+6 
            695      6.03079e+6 
            705      6.81694e+6 
            716      7.76378e+6 
            726      8.70427e+6 
            735      9.64723e+6 
            745      1.07604e+7 
            755       1.1957e+7 
            765      1.32332e+7 
            775      1.46151e+7 
            785      1.60846e+7 
            795      1.76412e+7 
            805      1.93014e+7 
            815      2.10528e+7 
            825      2.29267e+7 
            835      2.46611e+7 
            845      2.69426e+7 
            855      2.90566e+7 
            865      3.14021e+7 
            875      3.37963e+7 
            885      3.63067e+7 
            895       3.8904e+7 
            905      4.12642e+7 
            915      6.66411e+7 
            925      3.19907e+8 
            935      1.02971e+9 
            945      4.85389e+9 
            955      9.71663e+9 
            965     1.36075e+10 
            975      4.55147e+9 
            985     1.90686e+10 
            995     1.97131e+10 
           1005     2.00889e+10 
           1015     1.58503e+10 
           1025      2.72117e+9 
           1035     1.35394e+10 
           1045     1.90323e+10 
           1055     1.90256e+10 
           1065     1.79502e+10 
           1075     1.82343e+10 
           1085      1.7036e+10 
           1095     1.76534e+10 
           1105      1.6913e+10 
           1115     1.66255e+10 
           1125     1.58413e+10 
           1135     1.59535e+10 
           1145     1.53338e+10 
           1155     1.53394e+10 
           1165     1.50109e+10 
           1175     1.35337e+10 
           1185     1.41742e+10 
           1195     1.29553e+10 
           1205      9.99094e+9 
           1215      1.98835e+9 
           1225      9.07088e+9 
           1235     1.21551e+10 
           1245     1.23395e+10 
           1255     1.22101e+10 
           1265     1.19171e+10 
           1275     1.18841e+10 
           1285     1.16551e+10 
           1295      1.1011e+10 
           1305     1.08923e+10 
           1315     1.09736e+10 
           1325     1.06208e+10 
           1335     1.02442e+10 
           1345     1.03121e+10 
           1355     1.01459e+10 
           1365      9.92096e+9 
           1375      9.73633e+9 
           1385      9.55952e+9 
           1395      9.23982e+9 
           1405      9.11563e+9 
           1415      9.01622e+9 
           1425       8.8673e+9 
           1435      8.70847e+9 
           1442      8.60655e+9 
           1447      8.52361e+9 
           1455      8.39721e+9 
           1465      8.23785e+9 
           1475      8.09259e+9 
           1485      7.94177e+9 
           1495      7.80217e+9 
           1505       7.6358e+9 
           1512      7.54005e+9 
           1517      7.48486e+9 
           1525      7.37284e+9 
           1535      7.18212e+9 
           1545       7.0956e+9 
           1555      6.94449e+9 
           1565      6.87972e+9 
           1575      6.77593e+9 
           1585      6.66146e+9 
           1595      6.55509e+9 
           1605      6.40288e+9 
           1615      6.29364e+9 
           1625      6.22755e+9 
           1635      6.13272e+9 
           1645      5.98947e+9 
           1655      5.92941e+9 
           1665      5.84631e+9 
           1672      5.71943e+9 
           1677      5.73615e+9 
           1685       5.6619e+9 
           1695      5.56448e+9 
           1705      5.46894e+9 
           1715      5.37333e+9 
           1725      5.29222e+9 
           1735       5.2185e+9 
           1745      5.13338e+9 
           1755      5.06538e+9 
           1765      4.93353e+9 
           1775      4.89663e+9 
           1785      4.83081e+9 
           1795      4.76415e+9 
           1805      4.69555e+9 
           1815      4.61811e+9 
           1825      4.55327e+9 
           1835      4.48465e+9 
           1845      4.39422e+9 
           1855      4.27822e+9 
           1865        4.233e+9 
           1875      4.22066e+9 
           1885      4.12446e+9 
           1895       4.0329e+9 
           1905      4.02856e+9 
           1915      3.92958e+9 
           1925      3.87534e+9 
           1935      3.84263e+9 
           1945      3.80999e+9 
           1955      3.71799e+9 
           1967      3.69506e+9 
           1976      3.66138e+9 
           1984      3.60148e+9 
           1995      3.52145e+9 
           2005      3.51087e+9 
           2015      3.47147e+9 
           2025      3.42937e+9 
           2035      3.37537e+9 
           2045      3.32965e+9 
           2055      3.26244e+9 
           2065      3.22306e+9 
           2074      3.21319e+9 
           2078      3.16148e+9 
           2085      3.15693e+9 
           2095      3.10171e+9 
           2105      3.07699e+9 
           2115      3.04139e+9 
           2125      3.00583e+9 
           2135      2.96567e+9 
           2145      2.92523e+9 
           2155      2.89035e+9 
           2165      2.85351e+9 
           2175      2.81658e+9 
           2185      2.78178e+9 
           2195      2.74773e+9 
           2205      2.71272e+9 
           2215      2.67876e+9 
           2225      2.64431e+9 
           2235       2.6121e+9 
           2245      2.58051e+9 
           2255      2.54782e+9 
           2265      2.51759e+9 
           2275      2.48648e+9 
           2285      2.45683e+9 
           2295      2.41851e+9 
           2305      2.39722e+9 
           2315      2.36769e+9 
           2325      2.33977e+9 
           2335      2.31003e+9 
           2345      2.28078e+9 
           2355      2.25683e+9 
           2365      2.22856e+9 
           2375      2.20309e+9 
           2385      2.17492e+9 
           2395      2.15042e+9 
           2405      2.12574e+9 
           2415      2.10068e+9 
           2425      2.07833e+9 
           2435      2.05354e+9 
           2445      2.02997e+9 
           2455      2.00759e+9 
           2465      1.98389e+9 
           2475      1.96162e+9 
           2485      1.93934e+9 
           2495      1.90791e+9 
           2505      1.89553e+9 
           2513      1.87536e+9 
           2518      1.86804e+9 
           2525      1.85285e+9 
           2535      1.83152e+9 
           2545      1.81093e+9 
           2555      1.79257e+9 
           2565      1.77221e+9 
           2575      1.75342e+9 
           2585      1.73407e+9 
           2595      1.71491e+9 
           2605      1.70916e+9 
           2615      1.69109e+9 
           2625      1.67277e+9 
           2635      1.65212e+9 
           2645      1.63475e+9 
           2655      1.61466e+9 
           2665      1.59354e+9 
           2675      1.57486e+9 
           2685      1.56869e+9 
           2695      1.53964e+9 
           2705      1.53544e+9 
           2715      1.51909e+9 
           2725         1.49e+9 
           2735      1.48728e+9 
           2745      1.46976e+9 
           2755      1.45475e+9 
           2765      1.42793e+9 
           2775      1.42627e+9 
           2785      1.41133e+9 
           2795      1.38775e+9 
           2805      1.37936e+9 
           2815      1.36834e+9 
           2825      1.33861e+9 
           2835      1.33138e+9 
           2845      1.32674e+9 
           2855       1.3134e+9 
           2865      1.30011e+9 
           2875      1.28698e+9 
           2885      1.27405e+9 
           2895      1.26126e+9 
           2910      1.24237e+9 
           2930      1.21766e+9 
           2950      1.18463e+9 
           2970      1.17052e+9 
           2990      1.14762e+9 
           3010      1.12548e+9 
           3030       1.1039e+9 
           3050      1.08279e+9 
           3070      1.06221e+9 
           3090      1.04203e+9 
           3110      1.02248e+9 
           3130      1.00449e+9 
           3150      9.85742e+8 
           3170      9.67345e+8 
           3190      9.41222e+8 
           3210       9.3176e+8 
           3230      9.14552e+8 
           3250      8.97802e+8 
           3270       8.8259e+8 
           3290      8.65558e+8 
           3310      8.51278e+8 
           3330      8.36157e+8 
           3350      8.19959e+8 
           3370      8.06905e+8 
           3390       7.9279e+8 
           3410      7.79015e+8 
           3430      7.62783e+8 
           3450      7.47192e+8 
           3470      7.36382e+8 
           3490       7.2376e+8 
           3510      7.12814e+8 
           3530      7.02069e+8 
           3550      6.90354e+8 
           3570      6.82345e+8 
           3590      6.66871e+8 
           3610      6.57653e+8 
           3630      6.45022e+8 
           3640      6.43871e+8 
           3650      6.38058e+8 
           3670      6.30451e+8 
           3690      6.18489e+8 
           3710      5.97141e+8 
           3730      5.70961e+8 
           3750      5.96043e+8 
           3770       5.9774e+8 
           3790      6.42775e+8 
           3810        6.798e+8 
           3830      5.80649e+8 
           3850      7.11395e+8 
           3870      7.30674e+8 
           3890      5.45273e+8 
           3910      7.21493e+8 
           3930      7.20559e+8 
           3950      7.00315e+8 
           3970      5.08914e+8 
           3990      6.69329e+8 
           4010      6.74805e+8 
           4030      6.28064e+8 
           4050      6.62506e+8 
           4070      6.47255e+8 
           4090      5.74054e+8 
           4110       4.8913e+8 
           4130      6.04644e+8 
           4150      6.02964e+8 
           4170      5.99794e+8 
           4190      5.92343e+8 
           4210      5.82712e+8 
           4230      5.73235e+8 
           4250      5.63931e+8 
           4270      5.54177e+8 
           4290      5.43925e+8 
           4310      5.30249e+8 
           4330      4.61164e+8 
           4350      4.15901e+8 
           4370      5.03025e+8 
           4390      4.83909e+8 
           4410      4.95162e+8 
           4430      4.85518e+8 
           4450      4.80403e+8 
           4470       4.4572e+8 
           4490      4.65023e+8 
           4510      4.58852e+8 
           4530      4.51835e+8 
           4550      4.44942e+8 
           4570       4.3817e+8 
           4590       4.3157e+8 
           4610      4.25068e+8 
           4630       4.1868e+8 
           4650      4.12386e+8 
           4670      4.06287e+8 
           4690      4.00243e+8 
           4710      3.88598e+8 
           4730      3.88468e+8 
           4750      3.82715e+8 
           4770      3.77244e+8 
           4790      3.71359e+8 
           4810      3.64841e+8 
           4830      3.56174e+8 
           4850      3.17383e+8 
           4870      2.79248e+8 
           4890      3.38601e+8 
           4910      3.38411e+8 
           4930      3.25069e+8 
           4950      3.31242e+8 
           4970      3.26599e+8 
           4990      3.22019e+8 
           5010      3.12984e+8 
           5030      3.13076e+8 
           5050      3.06598e+8 
           5070      3.04492e+8 
           5090      3.00286e+8 
           5110      2.96165e+8 
           5130      2.92114e+8 
           5150      2.88131e+8 
           5170      2.84215e+8 
           5190      2.80364e+8 
           5210      2.76564e+8 
           5230      2.72869e+8 
           5250      2.69209e+8 
           5270      2.65609e+8 
           5290      2.62083e+8 
           5310      2.58603e+8 
           5330      2.55181e+8 
           5350      2.51829e+8 
           5370      2.48519e+8 
           5390      2.45265e+8 
           5410      2.42078e+8 
           5430      2.38918e+8 
           5450      2.35823e+8 
           5470      2.32792e+8 
           5490      2.29787e+8 
           5510      2.26843e+8 
           5530      2.23949e+8 
           5550       2.2109e+8 
           5570      2.18291e+8 
           5590      2.15526e+8 
           5610      2.12807e+8 
           5630      2.10133e+8 
           5650      2.07492e+8 
           5670      2.04906e+8 
           5690      2.02351e+8 
           5710      1.99849e+8 
           5730      1.97378e+8 
           5750      1.94936e+8 
           5770      1.92546e+8 
           5790      1.90185e+8 
           5810      1.87862e+8 
           5830      1.85578e+8 
           5850       1.8332e+8 
           5870      1.74759e+8 
           5890      1.78515e+8 
           5910      1.76769e+8 
           5930      1.74647e+8 
           5950       1.7256e+8 
           5970      1.70507e+8 
           5990      1.68478e+8 
           6010      1.66482e+8 
           6030      1.64509e+8 
           6050       1.6258e+8 
           6070      1.60672e+8 
           6090      1.58795e+8 
           6110       1.5694e+8 
           6130      1.55115e+8 
           6150      1.53311e+8 
           6170      1.51547e+8 
           6190      1.49803e+8 
           6210      1.48077e+8 
           6230      1.46381e+8 
           6250      1.44712e+8 
           6270      1.43062e+8 
           6290       1.4144e+8 
           6310      1.39835e+8 
           6330      1.38257e+8 
           6350      1.36687e+8 
           6370      1.35161e+8 
           6390      1.33652e+8 
           6410      1.32159e+8 
           6430      1.30692e+8 
           6450      1.29239e+8 
           6470      1.27812e+8 
           6490       1.2639e+8 
           6510      1.24619e+8 
           6530      1.22487e+8 
           6550      1.14812e+8 
           6570      1.00639e+8 
           6590      1.17344e+8 
           6610      1.17782e+8 
           6630      1.16901e+8 
           6650      1.15875e+8 
           6670      1.13276e+8 
           6690      1.12086e+8 
           6710       1.1218e+8 
           6730       1.1099e+8 
           6750      1.09804e+8 
           6770      1.08639e+8 
           6790      1.07485e+8 
           6810      1.06351e+8 
           6830      1.05236e+8 
           6850      1.04133e+8 
           6870      1.03041e+8 
           6890      1.01959e+8 
           6910      1.00896e+8 
           6930      9.98521e+7 
           6950      9.88181e+7 
           6970      9.77943e+7 
           6990      9.67883e+7 
           7010      9.57921e+7 
           7030      9.48133e+7 
           7050      9.38365e+7 
           7070      9.13393e+7 
           7090      9.19413e+7 
           7110      9.10075e+7 
           7130      9.00827e+7 
           7150      8.91741e+7 
           7170      8.82596e+7 
           7190      8.73903e+7 
           7210      8.65148e+7 
           7230      8.56333e+7 
           7250      8.47959e+7 
           7270      8.39522e+7 
           7290      8.24431e+7 
           7310      8.22887e+7 
           7330      8.14897e+7 
           7350      8.06841e+7 
           7370      7.98931e+7 
           7390      7.91163e+7 
           7410      7.83399e+7 
           7430      7.75775e+7 
           7450      7.68358e+7 
           7470      7.60873e+7 
           7490      7.53525e+7 
           7510      7.46043e+7 
           7530      7.39096e+7 
           7550      7.32013e+7 
           7570      7.24994e+7 
           7590      7.18039e+7 
           7610      7.11213e+7 
           7630      7.04448e+7 
           7650      6.97808e+7 
           7670      6.91164e+7 
           7690      6.84643e+7 
           7710      6.78244e+7 
           7730      6.71838e+7 
           7750      6.65553e+7 
           7770      6.59323e+7 
           7790       6.5321e+7 
           7810      6.46781e+7 
           7830      6.41146e+7 
           7850      6.35866e+7 
           7870      6.29901e+7 
           7890      6.23867e+7 
           7910      6.18428e+7 
           7930      6.12737e+7 
           7950      6.07154e+7 
           7970      6.00967e+7 
           7990      5.95779e+7 
           8010      5.89813e+7 
           8030      5.84366e+7 
           8050      5.79083e+7 
           8070      5.74122e+7 
           8090      5.67914e+7 
           8110      5.63604e+7 
           8130      5.58891e+7 
           8150      5.53298e+7 
           8170      5.49091e+7 
           8190      5.43481e+7 
           8210      5.38193e+7 
           8230      5.34813e+7 
           8250      5.30286e+7 
           8270       5.2335e+7 
           8290      5.20757e+7 
           8310      5.16453e+7 
           8330      5.11706e+7 
           8350      5.04968e+7 
           8370      5.02138e+7 
           8390        4.985e+7 
           8410      4.94076e+7 
           8430      4.89327e+7 
           8450      4.82107e+7 
           8470      4.80295e+7 
           8490      4.75411e+7 
           8510      4.70677e+7 
           8530      4.67307e+7 
           8550       4.5794e+7 
           8570      4.63909e+7 
