# Kurucz ODFNEW /NOVER (2003)
# teff = 23000 K (value for the effective temperature for the model. Temperatures are given in K)
# logg = 4 log(cm/s2) (value for Log(G) for the model.)
# meta = -2.5  (value for the Metallicity for the model.)
# lh = 1.25  (l/Hp where l is the  mixing length of the convective element and Hp is the pressure scale height)
# vtur = 2 km/s (Microturbulence velocity)
# alpha = 0.4  (Alpha)
#
# column 1: WAVELENGTH (ANGSTROM), Wavelength in Angstrom
# column 2: FLUX (ERG/CM2/S/A), Flux in erg/cm2/s/A
          147.2     1.40949e-16 
            151     8.01011e-16 
          155.2     4.95345e-15 
          158.8     2.18636e-14 
            162     7.73929e-14 
            166     3.50658e-13 
          170.3      1.6419e-12 
          173.4     4.76031e-12 
          176.8     1.46446e-11 
          180.2     4.31315e-11 
          181.7     6.85521e-11 
          186.1      2.5531e-10 
            191      1.02577e-9 
          193.9      2.25744e-9 
          198.4       7.3223e-9 
          201.8      1.71809e-8 
            205      3.73224e-8 
          210.5      1.33695e-7 
          216.2      4.66994e-7 
          219.8      9.93522e-7 
            223       1.9024e-6 
          226.8       4.0127e-6 
            230      1.53341e-5 
            234      3.47592e-5 
            240      9.51111e-5 
          246.5     0.000267446 
          252.4      0.00065629 
          256.8      0.00121937 
            260      0.00194205 
            264      0.00334941 
          268.5      0.00605445 
          273.5       0.0114108 
          278.5       0.0210313 
            284       0.0401293 
            290        0.078831 
            296         0.15032 
            301        0.252273 
            308        0.499584 
            318         1.29198 
            328         3.10438 
            338         7.06079 
            348         15.2712 
            357         29.3804 
            366          54.655 
            375         98.3502 
            385         182.546 
            395         327.364 
            405          569.05 
            414         913.074 
            422          1363.9 
            430         2003.39 
            441         3319.61 
            451         5128.42 
            460         7449.31 
            470         11071.6 
            480         16151.8 
            490         23165.5 
            500         32680.5 
            506          215176 
            512          643738 
            520          801386 
            530      1.12669e+6 
            540      1.22544e+6 
            550      1.71789e+6 
            560      2.06024e+6 
            570      2.49298e+6 
            580      2.53027e+6 
            590      3.31567e+6 
            600      4.10907e+6 
            610      4.82762e+6 
            620       5.5791e+6 
            630      6.46875e+6 
            640      7.34466e+6 
            650      8.47548e+6 
            658      9.43207e+6 
            665      1.02858e+7 
            675      1.14873e+7 
            685      1.28749e+7 
            695      1.46971e+7 
            705      1.63229e+7 
            716      1.83479e+7 
            726      2.03004e+7 
            735      2.23761e+7 
            745      2.47137e+7 
            755      2.71669e+7 
            765      2.97141e+7 
            775      3.25369e+7 
            785      3.54583e+7 
            795      3.84642e+7 
            805      4.17212e+7 
            815      4.50612e+7 
            825      4.86664e+7 
            835      5.17239e+7 
            845      5.61539e+7 
            855      6.00015e+7 
            865      6.43923e+7 
            875      6.87794e+7 
            885      7.33666e+7 
            895      7.80149e+7 
            905      8.20592e+7 
            915      1.38057e+8 
            925      1.03395e+9 
            935      3.43498e+9 
            945     1.10873e+10 
            955     1.57408e+10 
            965     2.06338e+10 
            975      8.40505e+9 
            985     2.33949e+10 
            995     2.26618e+10 
           1005     2.32548e+10 
           1015     2.08315e+10 
           1025      6.54366e+9 
           1035     1.87787e+10 
           1045     2.24363e+10 
           1055     2.19575e+10 
           1065     2.05486e+10 
           1075     2.09179e+10 
           1085     1.95795e+10 
           1095     2.03895e+10 
           1105     1.94553e+10 
           1115     1.91797e+10 
           1125     1.81964e+10 
           1135     1.85288e+10 
           1145     1.77019e+10 
           1155     1.78299e+10 
           1165     1.75362e+10 
           1175     1.57257e+10 
           1185     1.67317e+10 
           1195      1.5544e+10 
           1205     1.33085e+10 
           1215      4.44988e+9 
           1225     1.30402e+10 
           1235     1.48481e+10 
           1245      1.4692e+10 
           1255      1.4449e+10 
           1265     1.41204e+10 
           1275     1.40845e+10 
           1285     1.37947e+10 
           1295     1.28057e+10 
           1305     1.27885e+10 
           1315     1.29917e+10 
           1325     1.25894e+10 
           1335     1.21654e+10 
           1345     1.21912e+10 
           1355     1.20521e+10 
           1365     1.17389e+10 
           1375     1.15506e+10 
           1385     1.13679e+10 
           1395     1.08545e+10 
           1405     1.07479e+10 
           1415     1.06995e+10 
           1425     1.05383e+10 
           1435      1.0364e+10 
           1442     1.02589e+10 
           1447     1.01604e+10 
           1455     1.00087e+10 
           1465      9.81974e+9 
           1475      9.64756e+9 
           1485      9.46972e+9 
           1495      9.30048e+9 
           1505      9.06486e+9 
           1512      8.98227e+9 
           1517      8.92234e+9 
           1525      8.78394e+9 
           1535      8.52884e+9 
           1545      8.42858e+9 
           1555      8.24449e+9 
           1565      8.19777e+9 
           1575      8.08185e+9 
           1585       7.9442e+9 
           1595       7.8218e+9 
           1605       7.6246e+9 
           1615      7.49537e+9 
           1625      7.42381e+9 
           1635      7.31566e+9 
           1645      7.11477e+9 
           1655      7.07967e+9 
           1665       6.9745e+9 
           1672      6.85693e+9 
           1677      6.85388e+9 
           1685      6.76202e+9 
           1695      6.63998e+9 
           1705      6.52409e+9 
           1715      6.39968e+9 
           1725      6.30772e+9 
           1735      6.22208e+9 
           1745      6.12066e+9 
           1755      6.04157e+9 
           1765      5.88151e+9 
           1775      5.82715e+9 
           1785      5.75199e+9 
           1795      5.68036e+9 
           1805      5.60071e+9 
           1815      5.50166e+9 
           1825      5.42592e+9 
           1835      5.34401e+9 
           1845      5.21474e+9 
           1855       5.0805e+9 
           1865      5.03407e+9 
           1875      5.02102e+9 
           1885      4.88572e+9 
           1895      4.76348e+9 
           1905      4.78025e+9 
           1915      4.65207e+9 
           1925      4.58384e+9 
           1935      4.55499e+9 
           1945      4.52172e+9 
           1955      4.39081e+9 
           1967      4.38229e+9 
           1976      4.35027e+9 
           1984      4.26655e+9 
           1995      4.16047e+9 
           2005       4.1634e+9 
           2015      4.12153e+9 
           2025      4.07421e+9 
           2035      4.00234e+9 
           2045      3.94708e+9 
           2055      3.85095e+9 
           2065      3.80729e+9 
           2074      3.81041e+9 
           2078      3.74227e+9 
           2085      3.73824e+9 
           2095      3.66573e+9 
           2105      3.64399e+9 
           2115      3.60473e+9 
           2125      3.56396e+9 
           2135      3.51503e+9 
           2145      3.46383e+9 
           2155      3.42381e+9 
           2165      3.38052e+9 
           2175      3.33509e+9 
           2185      3.29374e+9 
           2195      3.25301e+9 
           2205      3.21086e+9 
           2215      3.17003e+9 
           2225      3.12851e+9 
           2235      3.08867e+9 
           2245      3.05164e+9 
           2255      3.01189e+9 
           2265      2.97574e+9 
           2275       2.9385e+9 
           2285      2.90266e+9 
           2295      2.84953e+9 
           2305      2.83081e+9 
           2315      2.79516e+9 
           2325      2.76134e+9 
           2335      2.72537e+9 
           2345      2.69224e+9 
           2355      2.66209e+9 
           2365      2.62912e+9 
           2375      2.59727e+9 
           2385      2.56527e+9 
           2395      2.53497e+9 
           2405       2.5052e+9 
           2415      2.47429e+9 
           2425      2.44714e+9 
           2435      2.41729e+9 
           2445       2.3893e+9 
           2455      2.36188e+9 
           2465      2.33395e+9 
           2475      2.30689e+9 
           2485         2.28e+9 
           2495       2.2315e+9 
           2505      2.22723e+9 
           2513      2.20209e+9 
           2518      2.19324e+9 
           2525      2.17613e+9 
           2535      2.15126e+9 
           2545      2.12229e+9 
           2555      2.10288e+9 
           2565      2.07867e+9 
           2575      2.05659e+9 
           2585      2.03355e+9 
           2595      2.01075e+9 
           2605      2.00433e+9 
           2615      1.98231e+9 
           2625      1.95964e+9 
           2635      1.93356e+9 
           2645      1.91272e+9 
           2655      1.88877e+9 
           2665      1.86497e+9 
           2675      1.84315e+9 
           2685      1.83504e+9 
           2695      1.80122e+9 
           2705      1.79529e+9 
           2715      1.77575e+9 
           2725      1.74225e+9 
           2735      1.73764e+9 
           2745       1.7177e+9 
           2755      1.69964e+9 
           2765      1.66796e+9 
           2775      1.66472e+9 
           2785       1.6469e+9 
           2795      1.61595e+9 
           2805      1.60746e+9 
           2815      1.59554e+9 
           2825      1.56198e+9 
           2835      1.55323e+9 
           2845      1.54601e+9 
           2855      1.52993e+9 
           2865      1.51417e+9 
           2875      1.49851e+9 
           2885      1.48311e+9 
           2895       1.4679e+9 
           2910      1.44537e+9 
           2930      1.41592e+9 
           2950      1.37787e+9 
           2970      1.35989e+9 
           2990       1.3327e+9 
           3010      1.30636e+9 
           3030      1.28075e+9 
           3050      1.25571e+9 
           3070      1.23125e+9 
           3090        1.207e+9 
           3110      1.18412e+9 
           3130      1.16281e+9 
           3150      1.14053e+9 
           3170       1.1185e+9 
           3190      1.08827e+9 
           3210      1.07658e+9 
           3230      1.05625e+9 
           3250      1.03644e+9 
           3270      1.01855e+9 
           3290      9.98338e+8 
           3310      9.81564e+8 
           3330      9.63728e+8 
           3350      9.44501e+8 
           3370      9.29243e+8 
           3390      9.12607e+8 
           3410      8.96361e+8 
           3430      8.76396e+8 
           3450      8.57781e+8 
           3470      8.45325e+8 
           3490      8.30499e+8 
           3510      8.19135e+8 
           3530      8.06433e+8 
           3550      7.92828e+8 
           3570      7.83172e+8 
           3590      7.65291e+8 
           3610      7.53887e+8 
           3630      7.39598e+8 
           3640      7.38099e+8 
           3650      7.30639e+8 
           3670      7.21606e+8 
           3690      7.04924e+8 
           3710      6.82099e+8 
           3730      6.58205e+8 
           3750      7.04327e+8 
           3770      7.09623e+8 
           3790      7.50726e+8 
           3810      7.85661e+8 
           3830      6.81605e+8 
           3850      8.09628e+8 
           3870      8.15544e+8 
           3890      6.46152e+8 
           3910      8.02368e+8 
           3930      7.91271e+8 
           3950       7.7688e+8 
           3970      6.00844e+8 
           3990      7.45787e+8 
           4010      7.40615e+8 
           4030      6.97746e+8 
           4050      7.23968e+8 
           4070      7.09138e+8 
           4090      6.52584e+8 
           4110      5.66228e+8 
           4130      6.65271e+8 
           4150      6.59509e+8 
           4170      6.53826e+8 
           4190      6.45067e+8 
           4210      6.34595e+8 
           4230       6.2425e+8 
           4250       6.1403e+8 
           4270       6.0356e+8 
           4290      5.93831e+8 
           4310      5.81153e+8 
           4330      5.25423e+8 
           4350      4.77559e+8 
           4370      5.52541e+8 
           4390      5.32368e+8 
           4410      5.39754e+8 
           4430      5.28864e+8 
           4450      5.23207e+8 
           4470      4.91989e+8 
           4490      5.06601e+8 
           4510       4.9934e+8 
           4530      4.91654e+8 
           4550      4.84066e+8 
           4570      4.76664e+8 
           4590      4.69479e+8 
           4610      4.62401e+8 
           4630      4.55445e+8 
           4650      4.48347e+8 
           4670      4.41872e+8 
           4690      4.35268e+8 
           4710      4.23292e+8 
           4730      4.22482e+8 
           4750      4.16176e+8 
           4770      4.10227e+8 
           4790       4.0423e+8 
           4810      3.97847e+8 
           4830      3.89924e+8 
           4850      3.59136e+8 
           4870      3.19436e+8 
           4890      3.71986e+8 
           4910       3.6918e+8 
           4930      3.56038e+8 
           4950      3.59994e+8 
           4970      3.54952e+8 
           4990      3.49948e+8 
           5010      3.40736e+8 
           5030      3.40206e+8 
           5050      3.33292e+8 
           5070      3.30814e+8 
           5090      3.26242e+8 
           5110      3.21745e+8 
           5130      3.17323e+8 
           5150      3.12974e+8 
           5170      3.08711e+8 
           5190      3.04518e+8 
           5210      3.00353e+8 
           5230      2.96338e+8 
           5250      2.92349e+8 
           5270      2.88425e+8 
           5290      2.84565e+8 
           5310      2.80782e+8 
           5330      2.77048e+8 
           5350      2.73375e+8 
           5370      2.69788e+8 
           5390      2.66233e+8 
           5410      2.62749e+8 
           5430       2.5931e+8 
           5450      2.55939e+8 
           5470      2.52623e+8 
           5490      2.49361e+8 
           5510      2.46151e+8 
           5530      2.42994e+8 
           5550      2.39889e+8 
           5570      2.36821e+8 
           5590      2.33816e+8 
           5610      2.30847e+8 
           5630      2.27938e+8 
           5650      2.25052e+8 
           5670      2.22225e+8 
           5690      2.19444e+8 
           5710      2.16719e+8 
           5730      2.14027e+8 
           5750      2.11367e+8 
           5770      2.08762e+8 
           5790      2.06198e+8 
           5810      2.03665e+8 
           5830      2.01173e+8 
           5850      1.98721e+8 
           5870      1.90295e+8 
           5890      1.93696e+8 
           5910      1.91589e+8 
           5930      1.89281e+8 
           5950         1.87e+8 
           5970      1.84766e+8 
           5990      1.82558e+8 
           6010      1.80385e+8 
           6030      1.78248e+8 
           6050      1.76145e+8 
           6070      1.74066e+8 
           6090       1.7202e+8 
           6110      1.70008e+8 
           6130      1.68018e+8 
           6150      1.66061e+8 
           6170      1.64135e+8 
           6190       1.6223e+8 
           6210      1.60357e+8 
           6230      1.58513e+8 
           6250      1.56691e+8 
           6270      1.54897e+8 
           6290      1.53133e+8 
           6310      1.51388e+8 
           6330      1.49671e+8 
           6350      1.47964e+8 
           6370      1.46303e+8 
           6390      1.44668e+8 
           6410      1.43043e+8 
           6430      1.41444e+8 
           6450      1.39871e+8 
           6470      1.38305e+8 
           6490      1.36774e+8 
           6510       1.3518e+8 
           6530      1.33142e+8 
           6550      1.27141e+8 
           6570      1.12709e+8 
           6590      1.28075e+8 
           6610      1.27766e+8 
           6630      1.26619e+8 
           6650      1.25339e+8 
           6670      1.22717e+8 
           6690      1.21421e+8 
           6710      1.21326e+8 
           6730      1.20023e+8 
           6750      1.18743e+8 
           6770      1.17475e+8 
           6790       1.1622e+8 
           6810      1.14994e+8 
           6830      1.13773e+8 
           6850      1.12571e+8 
           6870       1.1139e+8 
           6890       1.1022e+8 
           6910       1.0907e+8 
           6930      1.07924e+8 
           6950      1.06805e+8 
           6970      1.05696e+8 
           6990      1.04591e+8 
           7010       1.0352e+8 
           7030      1.02459e+8 
           7050      1.01401e+8 
           7070      9.87103e+7 
           7090      9.93383e+7 
           7110      9.83256e+7 
           7130      9.73228e+7 
           7150      9.63369e+7 
           7170      9.53459e+7 
           7190      9.44008e+7 
           7210      9.34502e+7 
           7230      9.24727e+7 
           7250      9.15833e+7 
           7270      9.06738e+7 
           7290      8.90215e+7 
           7310      8.88594e+7 
           7330      8.79965e+7 
           7350      8.71277e+7 
           7370      8.62671e+7 
           7390      8.54145e+7 
           7410      8.45767e+7 
           7430      8.37534e+7 
           7450      8.29446e+7 
           7470      8.21365e+7 
           7490      8.13425e+7 
           7510      8.05158e+7 
           7530      7.97697e+7 
           7550       7.9004e+7 
           7570      7.82452e+7 
           7590      7.74933e+7 
           7610      7.67483e+7 
           7630      7.60164e+7 
           7650      7.52912e+7 
           7670      7.45788e+7 
           7690      7.38665e+7 
           7710      7.31669e+7 
           7730      7.24799e+7 
           7750      7.17926e+7 
           7770      7.11178e+7 
           7790      7.04551e+7 
           7810      6.97426e+7 
           7830      6.91472e+7 
           7850      6.85813e+7 
           7870      6.79412e+7 
           7890      6.72644e+7 
           7910      6.66958e+7 
           7930      6.60783e+7 
           7950      6.53469e+7 
           7970      6.46812e+7 
           7990        6.411e+7 
           8010      6.35025e+7 
           8030      6.29237e+7 
           8050      6.23672e+7 
           8070      6.18676e+7 
           8090      6.11707e+7 
           8110      6.07204e+7 
           8130      6.02396e+7 
           8150      5.95927e+7 
           8170      5.91828e+7 
           8190      5.85627e+7 
           8210      5.79591e+7 
           8230      5.76277e+7 
           8250      5.71328e+7 
           8270       5.6317e+7 
           8290      5.60675e+7 
           8310      5.55961e+7 
           8330      5.50851e+7 
           8350      5.43083e+7 
           8370      5.40114e+7 
           8390      5.36257e+7 
           8410       5.3142e+7 
           8430      5.26017e+7 
           8450      5.17948e+7 
           8470       5.1571e+7 
           8490      5.11448e+7 
           8510      5.04766e+7 
           8530      5.03556e+7 
           8550      4.89474e+7 
           8570      5.01857e+7 
