# Kurucz ODFNEW /NOVER (2003)
# teff = 23000 K (value for the effective temperature for the model. Temperatures are given in K)
# logg = 3.5 log(cm/s2) (value for Log(G) for the model.)
# meta = -1.5  (value for the Metallicity for the model.)
# lh = 1.25  (l/Hp where l is the  mixing length of the convective element and Hp is the pressure scale height)
# vtur = 2 km/s (Microturbulence velocity)
# alpha = 0  (Alpha)
#
# column 1: WAVELENGTH (ANGSTROM), Wavelength in Angstrom
# column 2: FLUX (ERG/CM2/S/A), Flux in erg/cm2/s/A
          147.2     3.61884e-16 
            151     1.97626e-15 
          155.2     1.17209e-14 
          158.8     5.00166e-14 
            162     1.72086e-13 
            166     7.54183e-13 
          170.3     3.41409e-12 
          173.4     9.67485e-12 
          176.8     2.90264e-11 
          180.2     8.34809e-11 
          181.7     1.31339e-10 
          186.1     4.75475e-10 
            191      1.85478e-9 
          193.9      4.01267e-9 
          198.4      1.26803e-8 
          201.8      2.92099e-8 
            205      6.24228e-8 
          210.5      2.17568e-7 
          216.2      7.40516e-7 
          219.8      1.54974e-6 
            223      2.92579e-6 
          226.8       6.0716e-6 
            230      8.24176e-5 
            234     0.000196841 
            240     0.000509762 
          246.5      0.00135601 
          252.4      0.00318571 
          256.8      0.00554558 
            260      0.00887543 
            264        0.014823 
          268.5       0.0258957 
          273.5       0.0470273 
          278.5       0.0837222 
            284        0.154179 
            290        0.291152 
            296        0.534591 
            301        0.866801 
            308         1.60943 
            318         4.06555 
            328         9.24945 
            338         20.1703 
            348         41.7655 
            357         77.8856 
            366         140.665 
            375         243.671 
            385         438.096 
            395         759.761 
            405         1280.68 
            414         2006.03 
            422         2922.93 
            430         4194.35 
            441         6780.05 
            451         10248.3 
            460         14569.1 
            470         21237.7 
            480           30346 
            490         42745.7 
            500         59264.1 
            506          428234 
            512      1.30053e+6 
            520      1.58898e+6 
            530      2.12653e+6 
            540      2.32794e+6 
            550      3.25332e+6 
            560      3.83012e+6 
            570      4.66593e+6 
            580      4.70273e+6 
            590      6.14196e+6 
            600       7.4245e+6 
            610      8.75681e+6 
            620      9.97294e+6 
            630      1.15117e+7 
            640       1.2665e+7 
            650      1.41597e+7 
            658      1.63434e+7 
            665       1.7722e+7 
            675      1.93043e+7 
            685      2.13798e+7 
            695      2.48285e+7 
            705      2.71012e+7 
            716      3.05201e+7 
            726      3.32582e+7 
            735      3.62507e+7 
            745      4.02933e+7 
            755      4.40734e+7 
            765      4.79337e+7 
            775      5.23837e+7 
            785      5.69791e+7 
            795      6.11148e+7 
            805      6.58321e+7 
            815      7.02272e+7 
            825      7.60848e+7 
            835      7.92335e+7 
            845      8.59061e+7 
            855      9.12881e+7 
            865      9.78245e+7 
            875      1.04926e+8 
            885      1.11894e+8 
            895       1.1841e+8 
            905        1.233e+8 
            915      2.15798e+8 
            925      2.21113e+9 
            935      6.17694e+9 
            945     1.35395e+10 
            955     1.63398e+10 
            965     1.97923e+10 
            975      7.46623e+9 
            985     1.99038e+10 
            995     1.89037e+10 
           1005     1.98502e+10 
           1015     1.89165e+10 
           1025       9.0225e+9 
           1035     1.65195e+10 
           1045     2.05389e+10 
           1055     1.96985e+10 
           1065     1.77831e+10 
           1075     1.89466e+10 
           1085     1.74904e+10 
           1095     1.87792e+10 
           1105     1.77553e+10 
           1115     1.76952e+10 
           1125      1.6364e+10 
           1135     1.73958e+10 
           1145     1.63103e+10 
           1155     1.67658e+10 
           1165     1.66513e+10 
           1175     1.37384e+10 
           1185     1.59639e+10 
           1195     1.49497e+10 
           1205     1.26267e+10 
           1215      6.46773e+9 
           1225     1.35611e+10 
           1235     1.45781e+10 
           1245     1.44151e+10 
           1255     1.41344e+10 
           1265     1.39036e+10 
           1275     1.39848e+10 
           1285     1.36989e+10 
           1295     1.22311e+10 
           1305     1.24175e+10 
           1315     1.30174e+10 
           1325     1.25448e+10 
           1335     1.20424e+10 
           1345     1.21549e+10 
           1355     1.21658e+10 
           1365     1.17213e+10 
           1375     1.15191e+10 
           1385     1.14005e+10 
           1395     1.04811e+10 
           1405     1.06044e+10 
           1415      1.0735e+10 
           1425     1.05238e+10 
           1435     1.04803e+10 
           1442     1.04786e+10 
           1447     1.03347e+10 
           1455     1.01653e+10 
           1465      9.89294e+9 
           1475      9.76046e+9 
           1485      9.58333e+9 
           1495      9.41779e+9 
           1505      9.06685e+9 
           1512      8.74168e+9 
           1517      8.81053e+9 
           1525      8.72886e+9 
           1535       8.1974e+9 
           1545       8.2242e+9 
           1555      7.91233e+9 
           1565      8.08517e+9 
           1575      8.11693e+9 
           1585      7.99624e+9 
           1595      7.92161e+9 
           1605       7.6499e+9 
           1615      7.51978e+9 
           1625      7.48872e+9 
           1635      7.50351e+9 
           1645      7.30815e+9 
           1655      7.26508e+9 
           1665      7.21612e+9 
           1672      7.04802e+9 
           1677      7.17926e+9 
           1685      7.05247e+9 
           1695      6.86761e+9 
           1705      6.69476e+9 
           1715      6.49908e+9 
           1725      6.43015e+9 
           1735      6.40405e+9 
           1745      6.28805e+9 
           1755      6.27677e+9 
           1765      6.04658e+9 
           1775      5.96334e+9 
           1785       5.9459e+9 
           1795      5.92087e+9 
           1805      5.88158e+9 
           1815      5.65822e+9 
           1825      5.64694e+9 
           1835      5.55121e+9 
           1845      5.24053e+9 
           1855       5.1555e+9 
           1865      5.19036e+9 
           1875      5.23266e+9 
           1885      4.89664e+9 
           1895      4.67599e+9 
           1905      4.85561e+9 
           1915      4.67477e+9 
           1925      4.55242e+9 
           1935      4.64494e+9 
           1945      4.67209e+9 
           1955      4.38716e+9 
           1967      4.51276e+9 
           1976      4.59544e+9 
           1984      4.38542e+9 
           1995      4.26374e+9 
           2005      4.30875e+9 
           2015      4.31136e+9 
           2025      4.32125e+9 
           2035      4.13907e+9 
           2045      4.09905e+9 
           2055      3.98271e+9 
           2065      3.97427e+9 
           2074      4.06387e+9 
           2078      3.90158e+9 
           2085      3.91867e+9 
           2095       3.7962e+9 
           2105      3.83639e+9 
           2115      3.80416e+9 
           2125      3.81324e+9 
           2135      3.74603e+9 
           2145      3.64298e+9 
           2155      3.65516e+9 
           2165       3.6177e+9 
           2175      3.56141e+9 
           2185      3.51982e+9 
           2195       3.4911e+9 
           2205      3.44502e+9 
           2215      3.40469e+9 
           2225      3.34783e+9 
           2235      3.30097e+9 
           2245      3.27985e+9 
           2255      3.22534e+9 
           2265      3.20022e+9 
           2275      3.16036e+9 
           2285      3.12908e+9 
           2295      3.03979e+9 
           2305      3.04885e+9 
           2315      2.99874e+9 
           2325      2.96533e+9 
           2335      2.91566e+9 
           2345      2.88893e+9 
           2355      2.86601e+9 
           2365      2.82835e+9 
           2375       2.7925e+9 
           2385      2.75622e+9 
           2395      2.72438e+9 
           2405      2.69298e+9 
           2415      2.65587e+9 
           2425      2.63766e+9 
           2435      2.59907e+9 
           2445      2.57269e+9 
           2455      2.54784e+9 
           2465      2.51549e+9 
           2475      2.48616e+9 
           2485      2.45582e+9 
           2495      2.37233e+9 
           2505      2.39725e+9 
           2513      2.34461e+9 
           2518      2.36086e+9 
           2525      2.34258e+9 
           2535      2.31458e+9 
           2545      2.27345e+9 
           2555      2.26285e+9 
           2565      2.23648e+9 
           2575      2.21721e+9 
           2585      2.19169e+9 
           2595      2.16694e+9 
           2605      2.15628e+9 
           2615      2.13332e+9 
           2625      2.10999e+9 
           2635      2.08147e+9 
           2645      2.06247e+9 
           2655      2.03841e+9 
           2665      2.01052e+9 
           2675      1.98941e+9 
           2685      1.97995e+9 
           2695      1.94049e+9 
           2705      1.93456e+9 
           2715      1.91405e+9 
           2725      1.87953e+9 
           2735      1.87367e+9 
           2745      1.84494e+9 
           2755      1.82845e+9 
           2765      1.79844e+9 
           2775      1.79573e+9 
           2785      1.77542e+9 
           2795      1.73371e+9 
           2805      1.72927e+9 
           2815      1.72086e+9 
           2825      1.68717e+9 
           2835      1.66521e+9 
           2845      1.66656e+9 
           2855      1.64871e+9 
           2865      1.63272e+9 
           2875      1.61564e+9 
           2885      1.59926e+9 
           2895      1.58243e+9 
           2910      1.55739e+9 
           2930      1.52545e+9 
           2950      1.48523e+9 
           2970      1.46512e+9 
           2990      1.43484e+9 
           3010      1.40544e+9 
           3030      1.37969e+9 
           3050      1.35262e+9 
           3070      1.32614e+9 
           3090      1.29763e+9 
           3110       1.2748e+9 
           3130      1.25125e+9 
           3150      1.22721e+9 
           3170      1.20297e+9 
           3190      1.17142e+9 
           3210      1.15807e+9 
           3230      1.13594e+9 
           3250      1.11462e+9 
           3270      1.09504e+9 
           3290      1.07317e+9 
           3310      1.05511e+9 
           3330      1.03572e+9 
           3350       1.0149e+9 
           3370       9.9834e+8 
           3390      9.80367e+8 
           3410      9.62777e+8 
           3430      9.40695e+8 
           3450      9.20578e+8 
           3470      9.07055e+8 
           3490      8.91338e+8 
           3510      8.80139e+8 
           3530      8.65841e+8 
           3550       8.5118e+8 
           3570      8.40103e+8 
           3590      8.21122e+8 
           3610      8.07829e+8 
           3630      7.93262e+8 
           3640      7.91326e+8 
           3650      7.76477e+8 
           3670      7.66471e+8 
           3690      7.44932e+8 
           3710      7.27643e+8 
           3730      7.13254e+8 
           3750      7.75319e+8 
           3770      7.79361e+8 
           3790      8.08426e+8 
           3810      8.38396e+8 
           3830       7.4183e+8 
           3850      8.51666e+8 
           3870      8.45553e+8 
           3890       7.0767e+8 
           3910      8.30066e+8 
           3930      8.11833e+8 
           3950      8.02716e+8 
           3970      6.57111e+8 
           3990      7.72977e+8 
           4010      7.62544e+8 
           4030      7.26764e+8 
           4050      7.43698e+8 
           4070      7.27741e+8 
           4090      6.87626e+8 
           4110      6.08937e+8 
           4130      6.85701e+8 
           4150      6.77949e+8 
           4170      6.71071e+8 
           4190      6.61998e+8 
           4210      6.51706e+8 
           4230      6.40968e+8 
           4250      6.30215e+8 
           4270      6.17507e+8 
           4290      6.10043e+8 
           4310      5.98452e+8 
           4330      5.56929e+8 
           4350      5.10389e+8 
           4370      5.69802e+8 
           4390      5.51975e+8 
           4410      5.54263e+8 
           4430      5.44067e+8 
           4450       5.3797e+8 
           4470      5.12257e+8 
           4490      5.21009e+8 
           4510      5.13768e+8 
           4530      5.05809e+8 
           4550      4.97914e+8 
           4570      4.90211e+8 
           4590      4.83033e+8 
           4610      4.75767e+8 
           4630      4.68643e+8 
           4650      4.60421e+8 
           4670      4.54741e+8 
           4690      4.48216e+8 
           4710      4.36266e+8 
           4730      4.34606e+8 
           4750      4.27814e+8 
           4770      4.22777e+8 
           4790      4.16594e+8 
           4810      4.10385e+8 
           4830      4.03182e+8 
           4850      3.80533e+8 
           4870      3.42691e+8 
           4890      3.85535e+8 
           4910       3.8176e+8 
           4930      3.69384e+8 
           4950      3.71171e+8 
           4970      3.66131e+8 
           4990      3.60963e+8 
           5010      3.51573e+8 
           5030      3.50956e+8 
           5050      3.43898e+8 
           5070      3.41322e+8 
           5090      3.36624e+8 
           5110      3.32003e+8 
           5130      3.27301e+8 
           5150      3.22846e+8 
           5170      3.18619e+8 
           5190      3.14308e+8 
           5210      3.09985e+8 
           5230       3.0591e+8 
           5250      3.01807e+8 
           5270      2.97771e+8 
           5290      2.93814e+8 
           5310      2.89908e+8 
           5330      2.86079e+8 
           5350      2.82272e+8 
           5370      2.78632e+8 
           5390       2.7496e+8 
           5410      2.71386e+8 
           5430      2.67832e+8 
           5450      2.64361e+8 
           5470      2.60958e+8 
           5490       2.5761e+8 
           5510      2.54304e+8 
           5530      2.51051e+8 
           5550      2.47863e+8 
           5570      2.44702e+8 
           5590      2.41616e+8 
           5610      2.38543e+8 
           5630      2.35556e+8 
           5650      2.32534e+8 
           5670      2.29561e+8 
           5690      2.26612e+8 
           5710      2.23987e+8 
           5730       2.2121e+8 
           5750      2.18443e+8 
           5770      2.15811e+8 
           5790      2.13165e+8 
           5810      2.10562e+8 
           5830      2.07967e+8 
           5850      2.05458e+8 
           5870      1.97686e+8 
           5890      2.00255e+8 
           5910      1.98082e+8 
           5930      1.95677e+8 
           5950      1.93321e+8 
           5970      1.91066e+8 
           5990      1.88763e+8 
           6010      1.86539e+8 
           6030       1.8433e+8 
           6050      1.82166e+8 
           6070      1.80027e+8 
           6090      1.77912e+8 
           6110      1.75831e+8 
           6130      1.73783e+8 
           6150      1.71728e+8 
           6170      1.69766e+8 
           6190      1.67815e+8 
           6210      1.65876e+8 
           6230      1.63968e+8 
           6250      1.62082e+8 
           6270      1.60244e+8 
           6290      1.58418e+8 
           6310      1.56611e+8 
           6330      1.54842e+8 
           6350      1.53046e+8 
           6370      1.51353e+8 
           6390      1.49669e+8 
           6410      1.47994e+8 
           6430      1.46346e+8 
           6450      1.44715e+8 
           6470      1.43084e+8 
           6490      1.41506e+8 
           6510      1.39953e+8 
           6530      1.38125e+8 
           6550      1.33534e+8 
           6570      1.19709e+8 
           6590      1.32889e+8 
           6610      1.32431e+8 
           6630      1.31025e+8 
           6650      1.29693e+8 
           6670      1.27214e+8 
           6690      1.25874e+8 
           6710      1.25551e+8 
           6730      1.24199e+8 
           6750      1.22885e+8 
           6770      1.21577e+8 
           6790      1.20232e+8 
           6810      1.18999e+8 
           6830      1.17746e+8 
           6850      1.16513e+8 
           6870      1.15285e+8 
           6890      1.14077e+8 
           6910      1.12881e+8 
           6930      1.11697e+8 
           6950      1.10548e+8 
           6970      1.09395e+8 
           6990      1.08254e+8 
           7010      1.07146e+8 
           7030      1.06049e+8 
           7050      1.04956e+8 
           7070      1.02283e+8 
           7090      1.02823e+8 
           7110      1.01776e+8 
           7130      1.00739e+8 
           7150      9.97194e+7 
           7170      9.86875e+7 
           7190      9.77166e+7 
           7210      9.67331e+7 
           7230      9.54492e+7 
           7250      9.48014e+7 
           7270        9.386e+7 
           7290      9.21831e+7 
           7310      9.19825e+7 
           7330      9.10886e+7 
           7350      9.01891e+7 
           7370       8.9298e+7 
           7390      8.84221e+7 
           7410      8.75544e+7 
           7430      8.66947e+7 
           7450      8.58633e+7 
           7470      8.50193e+7 
           7490      8.42032e+7 
           7510      8.33546e+7 
           7530      8.25802e+7 
           7550      8.17864e+7 
           7570      8.09998e+7 
           7590      8.02203e+7 
           7610      7.94479e+7 
           7630      7.86955e+7 
           7650      7.79434e+7 
           7670      7.72044e+7 
           7690      7.64721e+7 
           7710        7.574e+7 
           7730      7.50333e+7 
           7750      7.43204e+7 
           7770      7.36013e+7 
           7790      7.29383e+7 
           7810      7.22008e+7 
           7830      7.15866e+7 
           7850        7.099e+7 
           7870      7.03316e+7 
           7890      6.96185e+7 
           7910       6.9038e+7 
           7930      6.82769e+7 
           7950       6.7606e+7 
           7970      6.69409e+7 
           7990      6.63524e+7 
           8010       6.5722e+7 
           8030       6.5138e+7 
           8050      6.45996e+7 
           8070      6.40542e+7 
           8090      6.33407e+7 
           8110      6.28454e+7 
           8130       6.2377e+7 
           8150      6.16856e+7 
           8170       6.1271e+7 
           8190      6.06352e+7 
           8210      5.98818e+7 
           8230      5.95411e+7 
           8250      5.90313e+7 
           8270      5.81843e+7 
           8290      5.79094e+7 
           8310      5.74182e+7 
           8330      5.68985e+7 
           8350      5.61184e+7 
           8370      5.57644e+7 
           8390      5.53544e+7 
           8410      5.48411e+7 
           8430       5.4279e+7 
           8450         5.35e+7 
           8470      5.31059e+7 
           8490      5.29344e+7 
           8510      5.19352e+7 
           8530      5.22268e+7 
           8550      5.02718e+7 
           8570      5.21354e+7 
