# Kurucz ODFNEW /NOVER (2003)
# teff = 29000 K (value for the effective temperature for the model. Temperatures are given in K)
# logg = 4 log(cm/s2) (value for Log(G) for the model.)
# meta = 0.5  (value for the Metallicity for the model.)
# lh = 1.25  (l/Hp where l is the  mixing length of the convective element and Hp is the pressure scale height)
# vtur = 2 km/s (Microturbulence velocity)
# alpha = 0  (Alpha)
#
# column 1: WAVELENGTH (ANGSTROM), Wavelength in Angstrom
# column 2: FLUX (ERG/CM2/S/A), Flux in erg/cm2/s/A
          147.2     6.01801e-10 
            151      2.00071e-9 
          155.2      7.06787e-9 
          158.8      1.98184e-8 
            162      4.77974e-8 
            166      1.37247e-7 
          170.3      4.02993e-7 
          173.4      8.54307e-7 
          176.8      1.88207e-6 
          180.2      4.02821e-6 
          181.7      5.58187e-6 
          186.1      1.41519e-5 
            191      3.80344e-5 
          193.9      6.66951e-5 
          198.4     0.000154491 
          201.8     0.000284412 
            205     0.000496073 
          210.5      0.00124436 
          216.2      0.00306921 
          219.8      0.00531267 
            223      0.00852185 
          226.8       0.0153626 
            230         1.13695 
            234         2.42388 
            240         4.69244 
          246.5         9.59397 
          252.4         17.9489 
          256.8         27.3169 
            260         45.4661 
            264         70.5395 
          268.5         110.983 
          273.5         171.825 
          278.5         254.669 
            284         535.649 
            290         856.175 
            296         1308.12 
            301         1857.47 
            308         3917.41 
            318         8517.06 
            328         14744.4 
            338         27862.6 
            348         48245.3 
            357          216950 
            366          528101 
            375          698513 
            385      1.13119e+6 
            395      2.99114e+6 
            405      3.96218e+6 
            414      6.19684e+6 
            422      7.83968e+6 
            430      1.04032e+7 
            441      1.39367e+7 
            451      1.61787e+7 
            460      1.86478e+7 
            470      2.47441e+7 
            480      3.14088e+7 
            490      3.82315e+7 
            500      4.62533e+7 
            506      9.72473e+7 
            512      9.50302e+8 
            520      9.29062e+8 
            530      8.66437e+8 
            540      8.41789e+8 
            550      1.18185e+9 
            560      1.52097e+9 
            570      1.62159e+9 
            580      1.46683e+9 
            590      1.68689e+9 
            600       1.3984e+9 
            610      1.81834e+9 
            620       2.1069e+9 
            630      2.02583e+9 
            640      1.73777e+9 
            650      1.32778e+9 
            658      1.52949e+9 
            665      2.02104e+9 
            675      2.31954e+9 
            685      1.88001e+9 
            695      2.88398e+9 
            705       2.3046e+9 
            716       3.2103e+9 
            726      3.07809e+9 
            735      3.15805e+9 
            745      3.25154e+9 
            755      3.31798e+9 
            765      3.47449e+9 
            775       3.7078e+9 
            785      3.92187e+9 
            795      3.92874e+9 
            805      3.79279e+9 
            815      3.74866e+9 
            825      4.13175e+9 
            835      3.04544e+9 
            845      3.91558e+9 
            855      3.84014e+9 
            865      4.04339e+9 
            875      4.17533e+9 
            885      4.39997e+9 
            895      4.49004e+9 
            905      4.30783e+9 
            915      5.43613e+9 
            925     2.40719e+10 
            935      4.0825e+10 
            945     5.32637e+10 
            955      5.6859e+10 
            965     6.08366e+10 
            975     1.42029e+10 
            985     4.11782e+10 
            995     4.23677e+10 
           1005     4.84067e+10 
           1015     5.25953e+10 
           1025     4.13546e+10 
           1035     4.72835e+10 
           1045     6.17243e+10 
           1055     5.64574e+10 
           1065     4.53779e+10 
           1075     4.99068e+10 
           1085     4.55797e+10 
           1095     4.93163e+10 
           1105     4.63852e+10 
           1115     4.53084e+10 
           1125      3.2597e+10 
           1135     4.38603e+10 
           1145     4.21147e+10 
           1155     4.05301e+10 
           1165     3.89796e+10 
           1175     1.99718e+10 
           1185     3.49921e+10 
           1195     3.45276e+10 
           1205     2.99173e+10 
           1215       2.602e+10 
           1225     3.26262e+10 
           1235     3.58174e+10 
           1245     3.35697e+10 
           1255     3.36061e+10 
           1265     3.50898e+10 
           1275     3.67871e+10 
           1285     3.70176e+10 
           1295     3.06815e+10 
           1305     3.21178e+10 
           1315     3.66702e+10 
           1325     3.47111e+10 
           1335     3.34511e+10 
           1345     3.35532e+10 
           1355     3.29162e+10 
           1365     3.10102e+10 
           1375     2.95226e+10 
           1385     2.78252e+10 
           1395     1.76348e+10 
           1405        1.98e+10 
           1415     2.55873e+10 
           1425     2.36895e+10 
           1435      2.5587e+10 
           1442     2.56164e+10 
           1447     2.53713e+10 
           1455     2.39631e+10 
           1465     2.22661e+10 
           1475     2.32951e+10 
           1485     2.31379e+10 
           1495     2.23625e+10 
           1505     2.04346e+10 
           1512     1.89984e+10 
           1517     1.95479e+10 
           1525     1.93676e+10 
           1535      1.5871e+10 
           1545     1.37918e+10 
           1555     1.37217e+10 
           1565     1.58753e+10 
           1575      1.7187e+10 
           1585     1.74762e+10 
           1595     1.72118e+10 
           1605     1.70506e+10 
           1615     1.61685e+10 
           1625     1.64381e+10 
           1635      1.7265e+10 
           1645     1.75694e+10 
           1655     1.72202e+10 
           1665     1.72912e+10 
           1672      1.5725e+10 
           1677     1.90888e+10 
           1685     1.78239e+10 
           1695     1.68458e+10 
           1705     1.67317e+10 
           1715     1.55355e+10 
           1725     1.50166e+10 
           1735     1.56925e+10 
           1745      1.5538e+10 
           1755     1.54947e+10 
           1765     1.54563e+10 
           1775     1.43774e+10 
           1785     1.48257e+10 
           1795     1.47966e+10 
           1805     1.48563e+10 
           1815     1.36501e+10 
           1825     1.38753e+10 
           1835      1.3673e+10 
           1845     1.24982e+10 
           1855     1.30688e+10 
           1865     1.31706e+10 
           1875     1.31966e+10 
           1885     1.19437e+10 
           1895      1.1305e+10 
           1905     1.21032e+10 
           1915     1.15056e+10 
           1925     1.06697e+10 
           1935     1.16312e+10 
           1945     1.19611e+10 
           1955     1.04472e+10 
           1967     1.14331e+10 
           1976     1.19804e+10 
           1984      1.1171e+10 
           1995     1.09876e+10 
           2005     1.14115e+10 
           2015     1.13393e+10 
           2025     1.15464e+10 
           2035     1.05644e+10 
           2045      1.0664e+10 
           2055      9.33834e+9 
           2065       9.1527e+9 
           2074      9.74343e+9 
           2078      9.06122e+9 
           2085      9.72062e+9 
           2095       9.5671e+9 
           2105     1.00053e+10 
           2115     1.00919e+10 
           2125     1.00856e+10 
           2135      9.90292e+9 
           2145      9.46936e+9 
           2155      9.80027e+9 
           2165      9.54518e+9 
           2175       9.5675e+9 
           2185      9.26471e+9 
           2195      9.44555e+9 
           2205      9.38254e+9 
           2215      9.14828e+9 
           2225       8.9871e+9 
           2235       8.7892e+9 
           2245      8.79106e+9 
           2255      8.53101e+9 
           2265      8.58729e+9 
           2275      8.48212e+9 
           2285      8.32723e+9 
           2295      7.00719e+9 
           2305      7.95361e+9 
           2315      7.80772e+9 
           2325       7.7867e+9 
           2335      7.61374e+9 
           2345       7.6565e+9 
           2355      7.49448e+9 
           2365      7.39553e+9 
           2375      7.18044e+9 
           2385      7.03624e+9 
           2395      6.98352e+9 
           2405      6.93859e+9 
           2415      6.85218e+9 
           2425      6.83038e+9 
           2435      6.65621e+9 
           2445      6.63654e+9 
           2455      6.59383e+9 
           2465      6.48216e+9 
           2475      6.36039e+9 
           2485      6.07186e+9 
           2495      4.21645e+9 
           2505      5.70693e+9 
           2513      5.66869e+9 
           2518      5.84566e+9 
           2525      5.94554e+9 
           2535      5.92276e+9 
           2545       5.7049e+9 
           2555      5.71302e+9 
           2565      5.63105e+9 
           2575      5.60342e+9 
           2585      5.53608e+9 
           2595      5.47056e+9 
           2605      5.42636e+9 
           2615      5.30236e+9 
           2625      5.28303e+9 
           2635      5.23508e+9 
           2645      5.13063e+9 
           2655      5.09596e+9 
           2665      4.86863e+9 
           2675      4.83082e+9 
           2685      4.87653e+9 
           2695      4.68387e+9 
           2705      4.56332e+9 
           2715      4.56784e+9 
           2725      4.59399e+9 
           2735      4.51739e+9 
           2745      4.47819e+9 
           2755      4.44251e+9 
           2765      4.37008e+9 
           2775      4.40645e+9 
           2785      4.31361e+9 
           2795      4.13475e+9 
           2805      4.17911e+9 
           2815      4.19734e+9 
           2825      4.14309e+9 
           2835       3.9912e+9 
           2845      4.03161e+9 
           2855      3.94846e+9 
           2865      3.92177e+9 
           2875       3.8758e+9 
           2885      3.82671e+9 
           2895      3.77564e+9 
           2910      3.67271e+9 
           2930      3.65662e+9 
           2950      3.53916e+9 
           2970      3.47102e+9 
           2990      3.36925e+9 
           3010      3.22998e+9 
           3030      3.19462e+9 
           3050      3.16185e+9 
           3070      3.12323e+9 
           3090       2.9805e+9 
           3110      2.98876e+9 
           3130       2.8957e+9 
           3150      2.85502e+9 
           3170      2.77176e+9 
           3190      2.72848e+9 
           3210      2.67247e+9 
           3230        2.599e+9 
           3250      2.57093e+9 
           3270      2.49423e+9 
           3290      2.45133e+9 
           3310      2.39848e+9 
           3330      2.33599e+9 
           3350      2.29056e+9 
           3370      2.24076e+9 
           3390      2.21843e+9 
           3410      2.17197e+9 
           3430      2.13449e+9 
           3450      2.07955e+9 
           3470      2.04166e+9 
           3490      1.99776e+9 
           3510      1.96032e+9 
           3530      1.93681e+9 
           3550      1.89436e+9 
           3570      1.85954e+9 
           3590       1.8062e+9 
           3610      1.77442e+9 
           3630      1.74643e+9 
           3640      1.73656e+9 
           3650      1.69231e+9 
           3670      1.67033e+9 
           3690       1.6357e+9 
           3710      1.56824e+9 
           3730      1.52163e+9 
           3750       1.5549e+9 
           3770      1.52715e+9 
           3790      1.58289e+9 
           3810      1.62107e+9 
           3830      1.45289e+9 
           3850      1.61056e+9 
           3870      1.55228e+9 
           3890      1.37361e+9 
           3910      1.56945e+9 
           3930      1.50932e+9 
           3950        1.477e+9 
           3970      1.26596e+9 
           3990      1.44654e+9 
           4010       1.4269e+9 
           4030      1.36763e+9 
           4050      1.37292e+9 
           4070      1.30047e+9 
           4090      1.23236e+9 
           4110      1.13511e+9 
           4130      1.25015e+9 
           4150      1.23817e+9 
           4170      1.23609e+9 
           4190      1.21941e+9 
           4210      1.20379e+9 
           4230       1.1794e+9 
           4250      1.14079e+9 
           4270      1.11319e+9 
           4290      1.08996e+9 
           4310      1.05156e+9 
           4330      9.93137e+8 
           4350       9.3053e+8 
           4370      1.00445e+9 
           4390      1.00646e+9 
           4410      9.90692e+8 
           4430      9.87353e+8 
           4450      9.67235e+8 
           4470      9.38274e+8 
           4490      9.43389e+8 
           4510      9.25483e+8 
           4530      9.16576e+8 
           4550      9.02076e+8 
           4570      8.90301e+8 
           4590      8.72725e+8 
           4610      8.49818e+8 
           4630      8.33705e+8 
           4650      7.92922e+8 
           4670      8.10864e+8 
           4690      8.03604e+8 
           4710      7.77672e+8 
           4730      7.84311e+8 
           4750      7.70874e+8 
           4770       7.7093e+8 
           4790      7.57035e+8 
           4810      7.40999e+8 
           4830      7.26591e+8 
           4850      6.93448e+8 
           4870      6.28245e+8 
           4890      6.95179e+8 
           4910      6.86792e+8 
           4930      6.66987e+8 
           4950      6.62546e+8 
           4970      6.61311e+8 
           4990      6.50166e+8 
           5010      6.20866e+8 
           5030      6.27031e+8 
           5050      6.16298e+8 
           5070      6.13439e+8 
           5090      6.02346e+8 
           5110      5.91855e+8 
           5130      5.78574e+8 
           5150      5.72668e+8 
           5170      5.66936e+8 
           5190      5.60463e+8 
           5210      5.52698e+8 
           5230      5.44389e+8 
           5250      5.35643e+8 
           5270      5.26525e+8 
           5290      5.21932e+8 
           5310      5.14106e+8 
           5330      5.07696e+8 
           5350      5.00354e+8 
           5370      4.93759e+8 
           5390      4.85952e+8 
           5410      4.78865e+8 
           5430      4.73849e+8 
           5450       4.6689e+8 
           5470      4.60447e+8 
           5490      4.53961e+8 
           5510      4.48959e+8 
           5530      4.41443e+8 
           5550      4.37264e+8 
           5570      4.30924e+8 
           5590      4.24977e+8 
           5610      4.19917e+8 
           5630      4.14562e+8 
           5650      4.07749e+8 
           5670      4.00062e+8 
           5690      3.90691e+8 
           5710      3.88202e+8 
           5730      3.84189e+8 
           5750       3.7751e+8 
           5770       3.7535e+8 
           5790       3.6984e+8 
           5810      3.64976e+8 
           5830      3.58952e+8 
           5850      3.55951e+8 
           5870      3.43777e+8 
           5890       3.4427e+8 
           5910      3.41685e+8 
           5930      3.37017e+8 
           5950      3.32988e+8 
           5970      3.31934e+8 
           5990      3.25511e+8 
           6010      3.23129e+8 
           6030      3.17953e+8 
           6050      3.14496e+8 
           6070      3.11507e+8 
           6090        3.079e+8 
           6110      3.03849e+8 
           6130      3.00476e+8 
           6150      2.94849e+8 
           6170      2.91803e+8 
           6190      2.89281e+8 
           6210      2.86327e+8 
           6230      2.82997e+8 
           6250      2.78604e+8 
           6270      2.75689e+8 
           6290      2.72805e+8 
           6310      2.69016e+8 
           6330       2.6652e+8 
           6350      2.62685e+8 
           6370      2.60379e+8 
           6390      2.57109e+8 
           6410      2.54096e+8 
           6430      2.51333e+8 
           6450      2.48237e+8 
           6470      2.44059e+8 
           6490      2.41466e+8 
           6510      2.38784e+8 
           6530      2.35539e+8 
           6550      2.29054e+8 
           6570      2.05031e+8 
           6590      2.26056e+8 
           6610       2.2557e+8 
           6630      2.23525e+8 
           6650      2.20752e+8 
           6670      2.16466e+8 
           6690      2.14079e+8 
           6710      2.13491e+8 
           6730      2.10195e+8 
           6750       2.0886e+8 
           6770      2.06757e+8 
           6790       2.0246e+8 
           6810      2.01817e+8 
           6830      1.99514e+8 
           6850       1.9766e+8 
           6870      1.95369e+8 
           6890      1.92769e+8 
           6910      1.90211e+8 
           6930      1.89263e+8 
           6950      1.87216e+8 
           6970      1.85197e+8 
           6990      1.83114e+8 
           7010      1.81051e+8 
           7030      1.78833e+8 
           7050      1.77115e+8 
           7070      1.72662e+8 
           7090      1.73331e+8 
           7110      1.69696e+8 
           7130      1.68138e+8 
           7150      1.67869e+8 
           7170      1.66179e+8 
           7190      1.64549e+8 
           7210       1.6284e+8 
           7230      1.58633e+8 
           7250      1.58913e+8 
           7270      1.57754e+8 
           7290      1.54926e+8 
           7310      1.54425e+8 
           7330      1.52742e+8 
           7350      1.51271e+8 
           7370      1.49771e+8 
           7390      1.48237e+8 
           7410      1.46711e+8 
           7430      1.45192e+8 
           7450       1.4368e+8 
           7470      1.41244e+8 
           7490      1.40424e+8 
           7510      1.39283e+8 
           7530        1.377e+8 
           7550      1.36588e+8 
           7570      1.35197e+8 
           7590      1.33674e+8 
           7610      1.32114e+8 
           7630      1.31073e+8 
           7650       1.2979e+8 
           7670      1.28595e+8 
           7690      1.27163e+8 
           7710      1.25895e+8 
           7730      1.24507e+8 
           7750      1.23583e+8 
           7770      1.22211e+8 
           7790      1.21212e+8 
           7810      1.19968e+8 
           7830      1.18858e+8 
           7850      1.17703e+8 
           7870      1.16224e+8 
           7890      1.14909e+8 
           7910      1.14052e+8 
           7930       1.1289e+8 
           7950      1.12031e+8 
           7970      1.10894e+8 
           7990      1.09897e+8 
           8010      1.08721e+8 
           8030      1.07654e+8 
           8050      1.06806e+8 
           8070      1.05808e+8 
           8090      1.04727e+8 
           8110       1.0294e+8 
           8130      1.02896e+8 
           8150       1.0183e+8 
           8170      1.01033e+8 
           8190      9.92988e+7 
           8210      9.83852e+7 
           8230       9.7129e+7 
           8250      9.70073e+7 
           8270      9.49743e+7 
           8290      9.50703e+7 
           8310      9.43732e+7 
           8330       9.3459e+7 
           8350       9.2169e+7 
           8370      9.15354e+7 
           8390      9.10086e+7 
           8410      9.00223e+7 
           8430      8.93041e+7 
           8450      8.79268e+7 
           8470      8.76066e+7 
           8490      8.67292e+7 
           8510      8.54689e+7 
           8530      8.52912e+7 
           8550      8.35682e+7 
           8570      8.44456e+7 
           8590      8.16021e+7 
