# Kurucz ODFNEW /NOVER (2003)
# teff = 33000 K (value for the effective temperature for the model. Temperatures are given in K)
# logg = 5 log(cm/s2) (value for Log(G) for the model.)
# meta = 0.5  (value for the Metallicity for the model.)
# lh = 1.25  (l/Hp where l is the  mixing length of the convective element and Hp is the pressure scale height)
# vtur = 2 km/s (Microturbulence velocity)
# alpha = 0  (Alpha)
#
# column 1: WAVELENGTH (ANGSTROM), Wavelength in Angstrom
# column 2: FLUX (ERG/CM2/S/A), Flux in erg/cm2/s/A
          147.2      7.52665e-6 
            151      2.00269e-5 
          155.2      5.60127e-5 
          158.8      0.00012984 
            162     0.000265752 
            166     0.000627162 
          170.3      0.00150369 
          173.4      0.00276963 
          176.8      0.00528138 
          180.2      0.00978959 
          181.7        0.012827 
          186.1       0.0272454 
            191       0.0606427 
          193.9       0.0954148 
          198.4         0.18841 
          201.8        0.307844 
            205        0.481272 
          210.5         1.00716 
          216.2          2.0661 
          219.8         3.21887 
            223         4.69667 
          226.8            7.57 
            230         778.598 
            234         1607.07 
            240         2617.68 
          246.5         4464.72 
          252.4         7292.04 
          256.8         10285.7 
            260         16695.4 
            264         25938.5 
          268.5         38183.4 
          273.5         52876.5 
          278.5         68378.6 
            284          144216 
            290          208160 
            296          279421 
            301          415159 
            308          974428 
            318      1.92079e+6 
            328       2.7955e+6 
            338      4.85471e+6 
            348      7.45999e+6 
            357      1.74462e+7 
            366      3.56773e+7 
            375      4.28822e+7 
            385      6.25311e+7 
            395      1.21391e+8 
            405      1.48225e+8 
            414      2.01522e+8 
            422      2.33018e+8 
            430      2.75691e+8 
            441      3.40891e+8 
            451      3.76783e+8 
            460      3.97578e+8 
            470      4.82756e+8 
            480      5.72567e+8 
            490       6.3225e+8 
            500      7.45231e+8 
            506      1.09467e+9 
            512      8.38352e+9 
            520      7.87537e+9 
            530      7.24047e+9 
            540      6.60788e+9 
            550      8.23587e+9 
            560     1.03877e+10 
            570     1.08162e+10 
            580      9.95264e+9 
            590     1.06821e+10 
            600      8.52811e+9 
            610     1.05426e+10 
            620     1.23701e+10 
            630      1.1917e+10 
            640     1.14766e+10 
            650     1.15105e+10 
            658      9.68266e+9 
            665     1.14052e+10 
            675     1.24952e+10 
            685      9.67867e+9 
            695     1.35725e+10 
            705     1.08829e+10 
            716     1.44936e+10 
            726     1.39784e+10 
            735      1.3913e+10 
            745     1.36377e+10 
            755     1.36357e+10 
            765       1.396e+10 
            775     1.44131e+10 
            785     1.49292e+10 
            795     1.48629e+10 
            805     1.41629e+10 
            815     1.39847e+10 
            825     1.49076e+10 
            835     1.18532e+10 
            845     1.40176e+10 
            855     1.37463e+10 
            865     1.42434e+10 
            875     1.43606e+10 
            885     1.47267e+10 
            895     1.48138e+10 
            905     1.42279e+10 
            915     1.42178e+10 
            925     3.63206e+10 
            935     6.06576e+10 
            945     8.94633e+10 
            955     1.00979e+11 
            965     1.20464e+11 
            975     3.78677e+10 
            985     9.48944e+10 
            995     8.45184e+10 
           1005     9.07597e+10 
           1015     9.66374e+10 
           1025     6.63618e+10 
           1035     9.06141e+10 
           1045      1.1145e+11 
           1055     1.03613e+11 
           1065      8.3804e+10 
           1075     9.03466e+10 
           1085      8.1479e+10 
           1095     8.83552e+10 
           1105     8.33786e+10 
           1115     8.22685e+10 
           1125      6.2661e+10 
           1135     7.76693e+10 
           1145     7.39565e+10 
           1155     7.02951e+10 
           1165     6.72976e+10 
           1175     4.05974e+10 
           1185     6.11121e+10 
           1195     5.92679e+10 
           1205     5.47831e+10 
           1215     3.98823e+10 
           1225     5.41712e+10 
           1235     5.91835e+10 
           1245     5.64648e+10 
           1255     5.61162e+10 
           1265     5.81259e+10 
           1275     6.02535e+10 
           1285     6.05035e+10 
           1295     5.35792e+10 
           1305      5.4469e+10 
           1315      5.9295e+10 
           1325     5.63648e+10 
           1335     5.46569e+10 
           1345     5.38951e+10 
           1355     5.31374e+10 
           1365     5.03357e+10 
           1375     4.84386e+10 
           1385     4.61449e+10 
           1395      3.4182e+10 
           1405     3.58862e+10 
           1415     4.32325e+10 
           1425     3.87485e+10 
           1435     4.17614e+10 
           1442     4.14565e+10 
           1447     4.11723e+10 
           1455     3.89733e+10 
           1465     3.71529e+10 
           1475     3.77764e+10 
           1485     3.76213e+10 
           1495     3.63291e+10 
           1505       3.402e+10 
           1512      3.2549e+10 
           1517     3.30698e+10 
           1525     3.22021e+10 
           1535     2.70768e+10 
           1545     2.31969e+10 
           1555     2.31722e+10 
           1565     2.63271e+10 
           1575     2.78345e+10 
           1585     2.80917e+10 
           1595      2.8016e+10 
           1605     2.71196e+10 
           1615     2.55469e+10 
           1625     2.62378e+10 
           1635     2.67451e+10 
           1645     2.68845e+10 
           1655     2.67188e+10 
           1665     2.64355e+10 
           1672     2.42687e+10 
           1677     2.88355e+10 
           1685     2.71386e+10 
           1695     2.59368e+10 
           1705     2.55531e+10 
           1715     2.42044e+10 
           1725      2.2932e+10 
           1735     2.39399e+10 
           1745     2.37517e+10 
           1755     2.35001e+10 
           1765     2.31161e+10 
           1775     2.19392e+10 
           1785     2.24461e+10 
           1795     2.20786e+10 
           1805     2.19965e+10 
           1815     2.09246e+10 
           1825     2.07728e+10 
           1835     2.05772e+10 
           1845     1.91097e+10 
           1855     1.96662e+10 
           1865     1.97884e+10 
           1875     1.94482e+10 
           1885     1.80369e+10 
           1895     1.73886e+10 
           1905     1.81232e+10 
           1915      1.7432e+10 
           1925     1.61483e+10 
           1935     1.74499e+10 
           1945     1.78146e+10 
           1955     1.58221e+10 
           1967     1.68507e+10 
           1976     1.74984e+10 
           1984     1.64962e+10 
           1995     1.61851e+10 
           2005     1.65188e+10 
           2015     1.64443e+10 
           2025     1.65442e+10 
           2035     1.55077e+10 
           2045     1.54321e+10 
           2055     1.30298e+10 
           2065     1.26636e+10 
           2074     1.30636e+10 
           2078     1.25615e+10 
           2085     1.29868e+10 
           2095     1.31078e+10 
           2105     1.41483e+10 
           2115     1.43526e+10 
           2125     1.41586e+10 
           2135     1.39485e+10 
           2145     1.35666e+10 
           2155     1.37014e+10 
           2165     1.31684e+10 
           2175     1.33351e+10 
           2185     1.29261e+10 
           2195     1.31557e+10 
           2205     1.29716e+10 
           2215        1.25e+10 
           2225     1.25066e+10 
           2235     1.22675e+10 
           2245     1.21211e+10 
           2255     1.16982e+10 
           2265     1.18176e+10 
           2275     1.16834e+10 
           2285     1.13389e+10 
           2295      9.98647e+9 
           2305      1.0809e+10 
           2315     1.07503e+10 
           2325     1.07221e+10 
           2335     1.05262e+10 
           2345     1.04647e+10 
           2355     1.02204e+10 
           2365     1.00587e+10 
           2375      9.77919e+9 
           2385      9.42846e+9 
           2395      9.45957e+9 
           2405      9.43708e+9 
           2415      9.31646e+9 
           2425      9.27181e+9 
           2435      9.05921e+9 
           2445       8.9903e+9 
           2455      8.88408e+9 
           2465      8.76874e+9 
           2475      8.63529e+9 
           2485      8.35729e+9 
           2495      6.37744e+9 
           2505      7.95541e+9 
           2513      7.62625e+9 
           2518      7.78792e+9 
           2525      8.02783e+9 
           2535      7.98162e+9 
           2545      7.75035e+9 
           2555      7.68864e+9 
           2565      7.58128e+9 
           2575      7.51002e+9 
           2585       7.4368e+9 
           2595      7.31582e+9 
           2605       7.2642e+9 
           2615      7.10738e+9 
           2625      7.07192e+9 
           2635      6.99393e+9 
           2645      6.85552e+9 
           2655      6.79703e+9 
           2665      6.56471e+9 
           2675      6.43727e+9 
           2685      6.50176e+9 
           2695      6.28606e+9 
           2705      6.18149e+9 
           2715      6.13502e+9 
           2725      6.11544e+9 
           2735      5.97511e+9 
           2745      5.97865e+9 
           2755      5.91895e+9 
           2765      5.81068e+9 
           2775       5.8403e+9 
           2785      5.72412e+9 
           2795      5.48503e+9 
           2805      5.53074e+9 
           2815      5.54999e+9 
           2825      5.46026e+9 
           2835      5.29525e+9 
           2845      5.33861e+9 
           2855       5.2412e+9 
           2865      5.16841e+9 
           2875      5.11292e+9 
           2885       5.0454e+9 
           2895      4.98094e+9 
           2910      4.84698e+9 
           2930      4.80912e+9 
           2950      4.65192e+9 
           2970      4.55958e+9 
           2990      4.41409e+9 
           3010      4.25957e+9 
           3030      4.17685e+9 
           3050       4.1259e+9 
           3070      4.06912e+9 
           3090      3.90543e+9 
           3110      3.89077e+9 
           3130      3.77287e+9 
           3150      3.71031e+9 
           3170      3.60613e+9 
           3190      3.53987e+9 
           3210      3.45495e+9 
           3230      3.37864e+9 
           3250      3.33166e+9 
           3270      3.22948e+9 
           3290       3.1761e+9 
           3310       3.1041e+9 
           3330      3.02399e+9 
           3350      2.95583e+9 
           3370      2.89424e+9 
           3390      2.86154e+9 
           3410      2.79739e+9 
           3430      2.74943e+9 
           3450      2.67415e+9 
           3470      2.62699e+9 
           3490      2.57201e+9 
           3510      2.52171e+9 
           3530       2.4823e+9 
           3550      2.42772e+9 
           3570      2.38448e+9 
           3590      2.31631e+9 
           3610      2.27611e+9 
           3630      2.23295e+9 
           3640       2.2174e+9 
           3650      2.14616e+9 
           3670      2.11458e+9 
           3690      2.07521e+9 
           3710      1.99229e+9 
           3730      1.95959e+9 
           3750       1.9273e+9 
           3770      1.85991e+9 
           3790      1.90498e+9 
           3810      1.95067e+9 
           3830      1.74469e+9 
           3850      1.95442e+9 
           3870      1.90756e+9 
           3890      1.62407e+9 
           3910      1.92999e+9 
           3930      1.88034e+9 
           3950      1.81593e+9 
           3970      1.49562e+9 
           3990      1.77585e+9 
           4010       1.7638e+9 
           4030      1.67538e+9 
           4050      1.70715e+9 
           4070      1.61711e+9 
           4090      1.49867e+9 
           4110      1.36212e+9 
           4130      1.55181e+9 
           4150      1.53726e+9 
           4170      1.53641e+9 
           4190      1.51081e+9 
           4210      1.48714e+9 
           4230       1.4641e+9 
           4250      1.41433e+9 
           4270      1.38196e+9 
           4290      1.35553e+9 
           4310      1.30674e+9 
           4330      1.20267e+9 
           4350      1.12062e+9 
           4370       1.2457e+9 
           4390      1.23351e+9 
           4410      1.22485e+9 
           4430      1.22101e+9 
           4450      1.19608e+9 
           4470      1.14349e+9 
           4490      1.16158e+9 
           4510      1.13942e+9 
           4530      1.12845e+9 
           4550      1.10627e+9 
           4570      1.09653e+9 
           4590      1.07446e+9 
           4610       1.0474e+9 
           4630      1.02152e+9 
           4650      9.71909e+8 
           4670      9.96509e+8 
           4690      9.81503e+8 
           4710      9.55829e+8 
           4730      9.65663e+8 
           4750       9.4935e+8 
           4770      9.45048e+8 
           4790      9.28339e+8 
           4810      9.07478e+8 
           4830      8.86091e+8 
           4850      8.22903e+8 
           4870      7.42518e+8 
           4890      8.44818e+8 
           4910      8.37496e+8 
           4930      8.10533e+8 
           4950      8.11485e+8 
           4970      8.08414e+8 
           4990      7.95168e+8 
           5010      7.60855e+8 
           5030       7.6594e+8 
           5050      7.53326e+8 
           5070      7.49417e+8 
           5090      7.36181e+8 
           5110       7.2388e+8 
           5130      7.09486e+8 
           5150      7.00321e+8 
           5170      6.92165e+8 
           5190      6.83848e+8 
           5210      6.74499e+8 
           5230       6.6464e+8 
           5250      6.52984e+8 
           5270      6.42571e+8 
           5290      6.36496e+8 
           5310      6.27127e+8 
           5330      6.18544e+8 
           5350      6.09401e+8 
           5370      6.01251e+8 
           5390      5.92064e+8 
           5410      5.80113e+8 
           5430      5.76563e+8 
           5450      5.68192e+8 
           5470      5.60154e+8 
           5490      5.52305e+8 
           5510      5.45362e+8 
           5530      5.36953e+8 
           5550      5.30864e+8 
           5570      5.23319e+8 
           5590      5.15482e+8 
           5610      5.09538e+8 
           5630      5.02858e+8 
           5650      4.95115e+8 
           5670      4.86425e+8 
           5690      4.74413e+8 
           5710      4.69154e+8 
           5730       4.6406e+8 
           5750      4.56451e+8 
           5770      4.52805e+8 
           5790      4.46368e+8 
           5810      4.40041e+8 
           5830      4.32926e+8 
           5850      4.29167e+8 
           5870       4.1234e+8 
           5890      4.15203e+8 
           5910      4.12203e+8 
           5930      4.07081e+8 
           5950      4.02231e+8 
           5970      3.99615e+8 
           5990      3.93118e+8 
           6010      3.89776e+8 
           6030      3.84366e+8 
           6050      3.80368e+8 
           6070      3.76352e+8 
           6090      3.71853e+8 
           6110       3.6695e+8 
           6130      3.62765e+8 
           6150      3.56335e+8 
           6170      3.52614e+8 
           6190      3.49238e+8 
           6210       3.4537e+8 
           6230      3.41264e+8 
           6250      3.36151e+8 
           6270      3.32544e+8 
           6290      3.28852e+8 
           6310      3.24405e+8 
           6330      3.21033e+8 
           6350      3.16584e+8 
           6370      3.13513e+8 
           6390      3.09616e+8 
           6410      3.05954e+8 
           6430      3.02432e+8 
           6450       2.9864e+8 
           6470        2.937e+8 
           6490      2.90605e+8 
           6510      2.86991e+8 
           6530      2.82417e+8 
           6550      2.70132e+8 
           6570      2.40753e+8 
           6590       2.7041e+8 
           6610       2.7063e+8 
           6630      2.68529e+8 
           6650      2.65357e+8 
           6670      2.59178e+8 
           6690      2.56368e+8 
           6710      2.56114e+8 
           6730      2.52556e+8 
           6750      2.50533e+8 
           6770      2.48085e+8 
           6790      2.43537e+8 
           6810      2.42295e+8 
           6830      2.39505e+8 
           6850      2.37073e+8 
           6870      2.34274e+8 
           6890      2.31107e+8 
           6910      2.28248e+8 
           6930      2.26885e+8 
           6950      2.24365e+8 
           6970      2.21916e+8 
           6990      2.19391e+8 
           7010      2.16845e+8 
           7030      2.14096e+8 
           7050      2.12004e+8 
           7070      2.06699e+8 
           7090      2.07602e+8 
           7110      2.04506e+8 
           7130      2.02427e+8 
           7150      2.00994e+8 
           7170      1.98767e+8 
           7190      1.96767e+8 
           7210      1.94807e+8 
           7230      1.90329e+8 
           7250      1.90241e+8 
           7270      1.88668e+8 
           7290      1.85288e+8 
           7310      1.84635e+8 
           7330      1.82675e+8 
           7350      1.80825e+8 
           7370      1.78977e+8 
           7390      1.77134e+8 
           7410       1.7528e+8 
           7430      1.73471e+8 
           7450      1.71618e+8 
           7470       1.6906e+8 
           7490       1.6756e+8 
           7510      1.66348e+8 
           7530      1.64509e+8 
           7550      1.63057e+8 
           7570      1.61368e+8 
           7590      1.59388e+8 
           7610      1.57705e+8 
           7630      1.56407e+8 
           7650      1.54857e+8 
           7670      1.53403e+8 
           7690      1.51568e+8 
           7710      1.50136e+8 
           7730      1.48371e+8 
           7750      1.47355e+8 
           7770      1.45836e+8 
           7790      1.44505e+8 
           7810      1.43037e+8 
           7830      1.41668e+8 
           7850      1.40262e+8 
           7870      1.38547e+8 
           7890      1.37076e+8 
           7910      1.36011e+8 
           7930      1.34673e+8 
           7950      1.33561e+8 
           7970      1.32209e+8 
           7990      1.30964e+8 
           8010      1.29659e+8 
           8030      1.28348e+8 
           8050      1.27269e+8 
           8070       1.2602e+8 
           8090      1.24742e+8 
           8110      1.22626e+8 
           8130      1.22457e+8 
           8150      1.21244e+8 
           8170      1.20177e+8 
           8190      1.18237e+8 
           8210      1.16986e+8 
           8230      1.15495e+8 
           8250       1.1509e+8 
           8270      1.13058e+8 
           8290      1.12908e+8 
           8310      1.12081e+8 
           8330      1.10865e+8 
           8350      1.09427e+8 
           8370      1.08743e+8 
           8390      1.08076e+8 
           8410      1.06939e+8 
           8430      1.06093e+8 
           8450      1.04599e+8 
           8470       1.0419e+8 
           8490      1.03073e+8 
           8510      1.01829e+8 
           8530      1.01166e+8 
           8550       1.0024e+8 
           8570      9.95979e+7 
           8590      9.75519e+7 
