# Kurucz ODFNEW /NOVER (2003)
# teff = 28000 K (value for the effective temperature for the model. Temperatures are given in K)
# logg = 3.5 log(cm/s2) (value for Log(G) for the model.)
# meta = -2.5  (value for the Metallicity for the model.)
# lh = 1.25  (l/Hp where l is the  mixing length of the convective element and Hp is the pressure scale height)
# vtur = 2 km/s (Microturbulence velocity)
# alpha = 0  (Alpha)
#
# column 1: WAVELENGTH (ANGSTROM), Wavelength in Angstrom
# column 2: FLUX (ERG/CM2/S/A), Flux in erg/cm2/s/A
          147.2     8.29131e-10 
            151      3.12308e-9 
          155.2        1.254e-8 
          158.8      3.89302e-8 
            162      1.02159e-7 
            166      3.23821e-7 
          170.3      1.05174e-6 
          173.4      2.37145e-6 
          176.8      5.59654e-6 
          180.2      1.27711e-5 
          181.7      1.81924e-5 
          186.1      4.97013e-5 
            191     0.000143996 
          193.9     0.000263069 
          198.4     0.000647002 
          201.8      0.00124305 
            205      0.00225096 
          210.5      0.00597025 
          216.2       0.0155689 
          219.8       0.0277548 
            223       0.0456228 
          226.8       0.0807462 
            230         5.11006 
            234         14.6492 
            240         28.9506 
          246.5         59.8132 
          252.4         111.305 
          256.8         137.207 
            260         228.245 
            264         320.849 
          268.5         480.384 
          273.5         732.132 
          278.5         1092.08 
            284         1688.13 
            290         2621.29 
            296         3970.76 
            301         5153.57 
            308         7429.83 
            318         16461.1 
            328         29142.4 
            338           50364 
            348         83462.6 
            357          127631 
            366          192980 
            375          279577 
            385          421957 
            395          615323 
            405          878794 
            414      1.19642e+6 
            422      1.54342e+6 
            430      1.96971e+6 
            441      2.72802e+6 
            451      3.61095e+6 
            460      4.55868e+6 
            470      5.89669e+6 
            480      7.48799e+6 
            490      9.40317e+6 
            500      1.17121e+7 
            506      1.04648e+8 
            512      2.99077e+8 
            520       3.0619e+8 
            530      3.32619e+8 
            540       3.1721e+8 
            550       3.6927e+8 
            560      3.93992e+8 
            570      4.20652e+8 
            580      4.02252e+8 
            590      4.59478e+8 
            600      4.83993e+8 
            610      5.14685e+8 
            620      5.43043e+8 
            630      5.75858e+8 
            640      5.94379e+8 
            650      6.34653e+8 
            658      6.58113e+8 
            665      6.80988e+8 
            675      7.06048e+8 
            685      7.24764e+8 
            695      7.89141e+8 
            705      8.04963e+8 
            716      8.60519e+8 
            726      8.94085e+8 
            735       9.3648e+8 
            745      9.76194e+8 
            755      1.01336e+9 
            765      1.05186e+9 
            775       1.0974e+9 
            785      1.14494e+9 
            795      1.18063e+9 
            805       1.2231e+9 
            815      1.25969e+9 
            825      1.30788e+9 
            835      1.30186e+9 
            845       1.3853e+9 
            855      1.42493e+9 
            865      1.46956e+9 
            875      1.51528e+9 
            885      1.55805e+9 
            895        1.599e+9 
            905      1.63028e+9 
            915      2.79636e+9 
            925     1.99996e+10 
            935     3.15445e+10 
            945      4.4603e+10 
            955     4.74493e+10 
            965     5.26646e+10 
            975     3.58906e+10 
            985     5.00856e+10 
            995     4.77559e+10 
           1005     4.88766e+10 
           1015     4.73259e+10 
           1025      3.5153e+10 
           1035     4.54583e+10 
           1045     4.66865e+10 
           1055     4.57718e+10 
           1065     4.35644e+10 
           1075      4.3351e+10 
           1085     4.12179e+10 
           1095     4.24542e+10 
           1105     4.10475e+10 
           1115     4.03449e+10 
           1125     3.85384e+10 
           1135     3.92689e+10 
           1145     3.82929e+10 
           1155      3.7757e+10 
           1165     3.71726e+10 
           1175     3.31017e+10 
           1185      3.5518e+10 
           1195     3.46253e+10 
           1205      3.3259e+10 
           1215     2.41897e+10 
           1225     3.27769e+10 
           1235     3.26113e+10 
           1245     3.16958e+10 
           1255     3.15108e+10 
           1265     3.09652e+10 
           1275     3.04211e+10 
           1285     2.98764e+10 
           1295     2.86598e+10 
           1305     2.83616e+10 
           1315     2.82761e+10 
           1325     2.76535e+10 
           1335     2.68116e+10 
           1345     2.67476e+10 
           1355     2.62927e+10 
           1365     2.57896e+10 
           1375     2.53262e+10 
           1385      2.4893e+10 
           1395     2.38386e+10 
           1405     2.35138e+10 
           1415     2.35364e+10 
           1425     2.30606e+10 
           1435     2.27458e+10 
           1442     2.24965e+10 
           1447     2.22874e+10 
           1455     2.19558e+10 
           1465     2.15763e+10 
           1475     2.11981e+10 
           1485     2.08504e+10 
           1495     2.04612e+10 
           1505     2.00854e+10 
           1512     1.98586e+10 
           1517     1.96821e+10 
           1525     1.93806e+10 
           1535     1.88363e+10 
           1545      1.8306e+10 
           1555     1.80043e+10 
           1565     1.79457e+10 
           1575     1.77489e+10 
           1585     1.74867e+10 
           1595      1.7197e+10 
           1605     1.67362e+10 
           1615     1.64545e+10 
           1625     1.62055e+10 
           1635     1.58754e+10 
           1645     1.51804e+10 
           1655      1.5516e+10 
           1665      1.5265e+10 
           1672     1.50552e+10 
           1677      1.5058e+10 
           1685     1.48345e+10 
           1695     1.45839e+10 
           1705     1.43226e+10 
           1715     1.40075e+10 
           1725     1.38063e+10 
           1735     1.36814e+10 
           1745     1.34483e+10 
           1755     1.32282e+10 
           1765     1.30026e+10 
           1775     1.28206e+10 
           1785     1.26372e+10 
           1795     1.24348e+10 
           1805     1.22569e+10 
           1815      1.2049e+10 
           1825     1.18597e+10 
           1835     1.16882e+10 
           1845     1.14523e+10 
           1855     1.11847e+10 
           1865     1.10542e+10 
           1875     1.09591e+10 
           1885     1.07276e+10 
           1895     1.04902e+10 
           1905     1.04485e+10 
           1915     1.01937e+10 
           1925     1.00308e+10 
           1935      9.94248e+9 
           1945       9.8431e+9 
           1955      9.60052e+9 
           1967      9.52094e+9 
           1976      9.42235e+9 
           1984      9.26813e+9 
           1995      9.05489e+9 
           2005      9.01352e+9 
           2015      8.89774e+9 
           2025      8.77664e+9 
           2035      8.63147e+9 
           2045      8.50546e+9 
           2055      7.78781e+9 
           2065       7.6145e+9 
           2074      7.68413e+9 
           2078      7.64611e+9 
           2085      7.84045e+9 
           2095       7.8717e+9 
           2105      7.80432e+9 
           2115       7.7152e+9 
           2125      7.61339e+9 
           2135      7.50306e+9 
           2145      7.39388e+9 
           2155      7.31747e+9 
           2165      7.18428e+9 
           2175      7.11797e+9 
           2185      6.98755e+9 
           2195      6.92419e+9 
           2205      6.82844e+9 
           2215      6.70257e+9 
           2225      6.64102e+9 
           2235      6.54922e+9 
           2245      6.46125e+9 
           2255      6.34273e+9 
           2265       6.2867e+9 
           2275      6.20186e+9 
           2285      6.11782e+9 
           2295      5.96656e+9 
           2305      5.92802e+9 
           2315      5.87474e+9 
           2325      5.79636e+9 
           2335      5.71877e+9 
           2345      5.64441e+9 
           2355      5.56988e+9 
           2365      5.49674e+9 
           2375       5.4243e+9 
           2385      5.32931e+9 
           2395      5.28273e+9 
           2405      5.21498e+9 
           2415      5.14721e+9 
           2425      5.08121e+9 
           2435      5.01516e+9 
           2445      4.95109e+9 
           2455       4.8879e+9 
           2465      4.82569e+9 
           2475      4.76408e+9 
           2485      4.70379e+9 
           2495      4.54028e+9 
           2505      4.58497e+9 
           2513      4.48752e+9 
           2518      4.50822e+9 
           2525      4.47162e+9 
           2535      4.41595e+9 
           2545      4.35852e+9 
           2555      4.30606e+9 
           2565      4.25365e+9 
           2575       4.2013e+9 
           2585      4.14986e+9 
           2595      4.09903e+9 
           2605      4.06595e+9 
           2615      4.01624e+9 
           2625      3.96585e+9 
           2635      3.91259e+9 
           2645      3.86577e+9 
           2655      3.81624e+9 
           2665      3.76749e+9 
           2675      3.72016e+9 
           2685      3.68963e+9 
           2695      3.62848e+9 
           2705      3.60221e+9 
           2715      3.55958e+9 
           2725       3.4989e+9 
           2735      3.46218e+9 
           2745       3.4354e+9 
           2755      3.39532e+9 
           2765      3.33508e+9 
           2775      3.31676e+9 
           2785      3.27812e+9 
           2795       3.2373e+9 
           2805      3.20229e+9 
           2815      3.16612e+9 
           2825      3.10768e+9 
           2835      3.08659e+9 
           2845      3.05874e+9 
           2855      3.02381e+9 
           2865      2.98957e+9 
           2875      2.95581e+9 
           2885      2.92255e+9 
           2895      2.88967e+9 
           2910      2.84114e+9 
           2930      2.77822e+9 
           2950       2.7031e+9 
           2970      2.65729e+9 
           2990      2.59928e+9 
           3010      2.54277e+9 
           3030      2.48814e+9 
           3050      2.43476e+9 
           3070      2.38283e+9 
           3090      2.33157e+9 
           3110      2.28298e+9 
           3130      2.23664e+9 
           3150      2.18976e+9 
           3170      2.14381e+9 
           3190      2.08554e+9 
           3210      2.05221e+9 
           3230      2.01362e+9 
           3250      1.97237e+9 
           3270      1.93405e+9 
           3290      1.89303e+9 
           3310      1.85722e+9 
           3330      1.82013e+9 
           3350      1.78141e+9 
           3370      1.74889e+9 
           3390      1.71458e+9 
           3410      1.68111e+9 
           3430      1.64254e+9 
           3450      1.60602e+9 
           3470      1.57911e+9 
           3490      1.54872e+9 
           3510      1.52455e+9 
           3530      1.49635e+9 
           3550      1.46842e+9 
           3570      1.44642e+9 
           3590      1.41272e+9 
           3610      1.38836e+9 
           3630      1.36038e+9 
           3640      1.35439e+9 
           3650      1.33459e+9 
           3670      1.31419e+9 
           3690      1.28072e+9 
           3710      1.24596e+9 
           3730       1.2107e+9 
           3750      1.27023e+9 
           3770      1.26257e+9 
           3790      1.28442e+9 
           3810      1.31678e+9 
           3830      1.19114e+9 
           3850      1.31111e+9 
           3870       1.2939e+9 
           3890      1.13556e+9 
           3910      1.26108e+9 
           3930      1.23462e+9 
           3950      1.21768e+9 
           3970      1.05194e+9 
           3990      1.17318e+9 
           4010      1.15251e+9 
           4030      1.10885e+9 
           4050      1.11908e+9 
           4070      1.09872e+9 
           4090      1.05503e+9 
           4110      9.55065e+8 
           4130      1.03628e+9 
           4150      1.01989e+9 
           4170      1.00748e+9 
           4190      9.91945e+8 
           4210      9.74317e+8 
           4230      9.59252e+8 
           4250      9.43195e+8 
           4270      9.27293e+8 
           4290       9.1226e+8 
           4310      8.96634e+8 
           4330      8.52282e+8 
           4350      7.90669e+8 
           4370      8.52967e+8 
           4390      8.28675e+8 
           4410        8.266e+8 
           4430      8.11417e+8 
           4450      8.00544e+8 
           4470        7.693e+8 
           4490      7.75263e+8 
           4510      7.63068e+8 
           4530      7.51058e+8 
           4550      7.38228e+8 
           4570      7.27686e+8 
           4590      7.16333e+8 
           4610      7.05292e+8 
           4630      6.94397e+8 
           4650      6.82965e+8 
           4670      6.73189e+8 
           4690      6.59479e+8 
           4710       6.4708e+8 
           4730      6.43018e+8 
           4750      6.33273e+8 
           4770      6.23818e+8 
           4790      6.14465e+8 
           4810      6.05279e+8 
           4830      5.95706e+8 
           4850      5.71649e+8 
           4870       5.2309e+8 
           4890      5.69125e+8 
           4910      5.61841e+8 
           4930      5.45838e+8 
           4950      5.45572e+8 
           4970      5.37697e+8 
           4990      5.29931e+8 
           5010      5.17768e+8 
           5030      5.14791e+8 
           5050      5.05403e+8 
           5070      5.00207e+8 
           5090        4.931e+8 
           5110      4.86116e+8 
           5130      4.79256e+8 
           5150      4.72515e+8 
           5170      4.65906e+8 
           5190        4.594e+8 
           5210      4.53006e+8 
           5230      4.46725e+8 
           5250      4.40553e+8 
           5270      4.34489e+8 
           5290      4.28531e+8 
           5310      4.22663e+8 
           5330      4.16911e+8 
           5350      4.11247e+8 
           5370      4.05681e+8 
           5390      4.00212e+8 
           5410      3.94375e+8 
           5430      3.89533e+8 
           5450      3.84333e+8 
           5470      3.79211e+8 
           5490      3.74178e+8 
           5510      3.69233e+8 
           5530      3.64362e+8 
           5550      3.59576e+8 
           5570      3.54874e+8 
           5590      3.50241e+8 
           5610      3.45677e+8 
           5630      3.41193e+8 
           5650      3.36788e+8 
           5670      3.32436e+8 
           5690      3.28078e+8 
           5710      3.23947e+8 
           5730      3.19819e+8 
           5750      3.15741e+8 
           5770      3.11768e+8 
           5790       3.0782e+8 
           5810      3.03941e+8 
           5830      3.00108e+8 
           5850      2.96364e+8 
           5870       2.8618e+8 
           5890      2.88888e+8 
           5910      2.85437e+8 
           5930      2.81908e+8 
           5950       2.7843e+8 
           5970      2.75003e+8 
           5990      2.71627e+8 
           6010      2.68309e+8 
           6030      2.65041e+8 
           6050      2.61819e+8 
           6070      2.58645e+8 
           6090      2.55527e+8 
           6110      2.52444e+8 
           6130      2.49416e+8 
           6150      2.46432e+8 
           6170      2.43491e+8 
           6190      2.40593e+8 
           6210      2.37736e+8 
           6230      2.34921e+8 
           6250      2.32157e+8 
           6270      2.29423e+8 
           6290      2.26738e+8 
           6310      2.24082e+8 
           6330      2.21474e+8 
           6350      2.18895e+8 
           6370      2.16362e+8 
           6390      2.13857e+8 
           6410      2.11396e+8 
           6430      2.08963e+8 
           6450      2.06573e+8 
           6470      2.04209e+8 
           6490      2.01879e+8 
           6510      1.99591e+8 
           6530      1.97196e+8 
           6550      1.92279e+8 
           6570      1.75348e+8 
           6590      1.90238e+8 
           6610      1.88588e+8 
           6630      1.86484e+8 
           6650      1.84495e+8 
           6670      1.81155e+8 
           6690      1.79139e+8 
           6710      1.78432e+8 
           6730      1.76458e+8 
           6750       1.7453e+8 
           6770      1.72612e+8 
           6790      1.70723e+8 
           6810      1.68868e+8 
           6830      1.67033e+8 
           6850      1.65216e+8 
           6870      1.63433e+8 
           6890      1.61668e+8 
           6910      1.59929e+8 
           6930      1.58215e+8 
           6950      1.56526e+8 
           6970      1.54853e+8 
           6990      1.53197e+8 
           7010      1.51581e+8 
           7030       1.4998e+8 
           7050      1.48395e+8 
           7070      1.44828e+8 
           7090      1.45294e+8 
           7110       1.4377e+8 
           7130      1.42268e+8 
           7150      1.40788e+8 
           7170      1.39292e+8 
           7190      1.37877e+8 
           7210      1.36454e+8 
           7230      1.35023e+8 
           7250      1.33655e+8 
           7270      1.32286e+8 
           7290      1.30002e+8 
           7310      1.29581e+8 
           7330      1.28279e+8 
           7350      1.26975e+8 
           7370       1.2569e+8 
           7390      1.24417e+8 
           7410      1.23163e+8 
           7430      1.21928e+8 
           7450      1.20718e+8 
           7470      1.19505e+8 
           7490      1.18317e+8 
           7510      1.17107e+8 
           7530      1.15974e+8 
           7550      1.14825e+8 
           7570      1.13693e+8 
           7590      1.12565e+8 
           7610      1.11466e+8 
           7630      1.10372e+8 
           7650      1.09293e+8 
           7670      1.08224e+8 
           7690      1.07172e+8 
           7710      1.06128e+8 
           7730      1.05101e+8 
           7750      1.04076e+8 
           7770      1.03079e+8 
           7790      1.02091e+8 
           7810      1.01056e+8 
           7830      1.00141e+8 
           7850       9.9265e+7 
           7870      9.83171e+7 
           7890      9.73412e+7 
           7910      9.64582e+7 
           7930      9.55469e+7 
           7950      9.46257e+7 
           7970      9.36235e+7 
           7990      9.27718e+7 
           8010      9.18511e+7 
           8030      9.10086e+7 
           8050      9.01848e+7 
           8070      8.93797e+7 
           8090      8.84203e+7 
           8110      8.76525e+7 
           8130      8.69425e+7 
           8150      8.59889e+7 
           8170      8.53539e+7 
           8190      8.45051e+7 
           8210      8.35461e+7 
           8230      8.29848e+7 
           8250      8.22675e+7 
           8270       8.1165e+7 
           8290      8.06916e+7 
           8310      7.99818e+7 
           8330      7.92398e+7 
           8350      7.82015e+7 
           8370      7.76669e+7 
           8390      7.70509e+7 
           8410      7.63333e+7 
           8430      7.55633e+7 
           8450       7.4536e+7 
           8470      7.39849e+7 
           8490      7.36053e+7 
           8510      7.23962e+7 
           8530      7.25024e+7 
           8550      7.02672e+7 
           8570      7.20529e+7 
