# Kurucz ODFNEW /NOVER (2003)
# teff = 26000 K (value for the effective temperature for the model. Temperatures are given in K)
# logg = 3 log(cm/s2) (value for Log(G) for the model.)
# meta = 0  (value for the Metallicity for the model.)
# lh = 1.25  (l/Hp where l is the  mixing length of the convective element and Hp is the pressure scale height)
# vtur = 2 km/s (Microturbulence velocity)
# alpha = 0.4  (Alpha)
#
# column 1: WAVELENGTH (ANGSTROM), Wavelength in Angstrom
# column 2: FLUX (ERG/CM2/S/A), Flux in erg/cm2/s/A
          147.2     1.18809e-12 
            151     4.68297e-12 
          155.2      1.9846e-11 
          158.8      6.4678e-11 
            162     1.77369e-10 
            166     5.94638e-10 
          170.3       2.0503e-9 
          173.4      4.85039e-9 
          176.8      1.20314e-8 
          180.2      2.88846e-8 
          181.7       4.2072e-8 
          186.1      1.22831e-7 
            191      3.83308e-7 
          193.9      7.32052e-7 
          198.4       1.9265e-6 
          201.8      3.89161e-6 
            205      7.38694e-6 
          210.5      2.12731e-5 
          216.2      6.01277e-5 
          219.8     0.000112889 
            223     0.000194194 
          226.8     0.000373527 
            230       0.0412572 
            234       0.0936663 
            240        0.198228 
          246.5        0.441835 
          252.4        0.892064 
          256.8         1.39589 
            260         2.33065 
            264         3.51351 
          268.5         5.84594 
          273.5         9.63804 
          278.5          15.094 
            284         34.4445 
            290         58.1131 
            296         94.2684 
            301         136.794 
            308         329.487 
            318         776.825 
            328         1445.16 
            338         2911.57 
            348         5338.43 
            357         31232.3 
            366         83045.5 
            375          116422 
            385          201809 
            395          618051 
            405          855091 
            414       1.4779e+6 
            422       1.8205e+6 
            430      2.39852e+6 
            441       3.3014e+6 
            451      4.09881e+6 
            460      4.82894e+6 
            470      6.49564e+6 
            480      8.26205e+6 
            490      1.03215e+7 
            500      1.31353e+7 
            506      3.56783e+7 
            512      3.79023e+8 
            520      3.78485e+8 
            530      3.64015e+8 
            540      3.66601e+8 
            550      5.09313e+8 
            560      6.96925e+8 
            570      7.70562e+8 
            580      6.66533e+8 
            590      7.96197e+8 
            600      5.96635e+8 
            610      8.81624e+8 
            620      1.05502e+9 
            630      1.06413e+9 
            640      9.50469e+8 
            650      7.19326e+8 
            658      7.71202e+8 
            665      1.03863e+9 
            675       1.1723e+9 
            685      9.19052e+8 
            695      1.38821e+9 
            705      9.99533e+8 
            716      1.56157e+9 
            726      1.46696e+9 
            735      1.58202e+9 
            745      1.55104e+9 
            755      1.59739e+9 
            765      1.74845e+9 
            775      1.90477e+9 
            785      2.01232e+9 
            795      2.01596e+9 
            805      1.94973e+9 
            815      1.92793e+9 
            825      2.16199e+9 
            835      1.50303e+9 
            845      2.09874e+9 
            855      2.09982e+9 
            865       2.2094e+9 
            875      2.28978e+9 
            885      2.42351e+9 
            895      2.48939e+9 
            905      2.41785e+9 
            915      4.96771e+9 
            925     1.94396e+10 
            935     2.67892e+10 
            945     2.86939e+10 
            955     2.89789e+10 
            965     2.90691e+10 
            975      8.90003e+9 
            985     2.05713e+10 
            995     2.23928e+10 
           1005     2.54954e+10 
           1015     2.69193e+10 
           1025     2.46529e+10 
           1035     2.45888e+10 
           1045     3.07245e+10 
           1055     2.88417e+10 
           1065     2.39269e+10 
           1075      2.6257e+10 
           1085     2.50568e+10 
           1095     2.69163e+10 
           1105     2.52459e+10 
           1115     2.43242e+10 
           1125     1.73141e+10 
           1135     2.45048e+10 
           1145     2.33324e+10 
           1155     2.30303e+10 
           1165     2.29084e+10 
           1175     1.32366e+10 
           1185     2.10151e+10 
           1195     2.05815e+10 
           1205     1.70192e+10 
           1215     1.78564e+10 
           1225     2.00954e+10 
           1235     2.14141e+10 
           1245     2.02762e+10 
           1255     2.05959e+10 
           1265     2.09821e+10 
           1275     2.15724e+10 
           1285     2.13999e+10 
           1295     1.76961e+10 
           1305     1.88362e+10 
           1315     2.10531e+10 
           1325     2.01598e+10 
           1335     1.95837e+10 
           1345     1.95963e+10 
           1355     1.94577e+10 
           1365     1.85746e+10 
           1375     1.78853e+10 
           1385     1.66211e+10 
           1395      9.13025e+9 
           1405      1.1183e+10 
           1415     1.61703e+10 
           1425     1.53263e+10 
           1435     1.62084e+10 
           1442     1.63824e+10 
           1447     1.62199e+10 
           1455     1.55457e+10 
           1465     1.49056e+10 
           1475     1.52335e+10 
           1485     1.51119e+10 
           1495     1.47113e+10 
           1505     1.40278e+10 
           1512     1.33431e+10 
           1517     1.36429e+10 
           1525     1.33989e+10 
           1535     1.16105e+10 
           1545     1.04277e+10 
           1555     1.02867e+10 
           1565     1.15491e+10 
           1575     1.23014e+10 
           1585     1.22659e+10 
           1595     1.22106e+10 
           1605     1.17114e+10 
           1615     1.13037e+10 
           1625     1.14165e+10 
           1635     1.18129e+10 
           1645     1.18644e+10 
           1655     1.17024e+10 
           1665     1.15874e+10 
           1672     1.08764e+10 
           1677     1.24641e+10 
           1685     1.18613e+10 
           1695     1.13259e+10 
           1705     1.12233e+10 
           1715     1.06455e+10 
           1725     1.04173e+10 
           1735     1.07409e+10 
           1745     1.05967e+10 
           1755     1.05427e+10 
           1765     1.05051e+10 
           1775     1.00224e+10 
           1785     1.01535e+10 
           1795     1.01129e+10 
           1805     1.01895e+10 
           1815      9.59051e+9 
           1825      9.71859e+9 
           1835      9.61027e+9 
           1845      8.87233e+9 
           1855      9.09903e+9 
           1865      9.18259e+9 
           1875      9.13323e+9 
           1885      8.46077e+9 
           1895       8.0339e+9 
           1905      8.49405e+9 
           1915      8.16827e+9 
           1925      7.74691e+9 
           1935      8.21792e+9 
           1945      8.38409e+9 
           1955      7.56756e+9 
           1967      8.05018e+9 
           1976      8.38514e+9 
           1984      7.89989e+9 
           1995      7.74184e+9 
           2005      7.92579e+9 
           2015      7.92934e+9 
           2025      8.02146e+9 
           2035      7.49797e+9 
           2045      7.51013e+9 
           2055      6.81071e+9 
           2065      6.74826e+9 
           2074      7.20497e+9 
           2078      6.88351e+9 
           2085      7.24484e+9 
           2095      6.91525e+9 
           2105      7.07883e+9 
           2115      7.13257e+9 
           2125      7.12183e+9 
           2135      7.04023e+9 
           2145      6.78281e+9 
           2155        6.919e+9 
           2165      6.80098e+9 
           2175      6.74113e+9 
           2185      6.64067e+9 
           2195      6.66396e+9 
           2205       6.5942e+9 
           2215      6.49725e+9 
           2225       6.3781e+9 
           2235      6.27009e+9 
           2245      6.26227e+9 
           2255      6.14433e+9 
           2265      6.11883e+9 
           2275      6.06115e+9 
           2285      5.96031e+9 
           2295      5.28177e+9 
           2305      5.77734e+9 
           2315      5.67657e+9 
           2325      5.64311e+9 
           2335      5.53649e+9 
           2345      5.55062e+9 
           2355      5.47491e+9 
           2365      5.41073e+9 
           2375      5.30936e+9 
           2385       5.2132e+9 
           2395       5.1584e+9 
           2405      5.13396e+9 
           2415      5.03921e+9 
           2425      5.01932e+9 
           2435      4.92004e+9 
           2445      4.88763e+9 
           2455      4.83896e+9 
           2465      4.76722e+9 
           2475      4.66685e+9 
           2485      4.42243e+9 
           2495      2.89273e+9 
           2505      4.09658e+9 
           2513      4.28494e+9 
           2518      4.35439e+9 
           2525      4.42541e+9 
           2535      4.41355e+9 
           2545      4.27046e+9 
           2555      4.28632e+9 
           2565      4.23441e+9 
           2575      4.21653e+9 
           2585      4.16965e+9 
           2595      4.11704e+9 
           2605      4.09249e+9 
           2615      4.01866e+9 
           2625      3.98783e+9 
           2635      3.94807e+9 
           2645       3.8962e+9 
           2655      3.85552e+9 
           2665      3.76102e+9 
           2675      3.71884e+9 
           2685      3.72281e+9 
           2695      3.63247e+9 
           2705      3.59485e+9 
           2715      3.56673e+9 
           2725      3.53426e+9 
           2735       3.4862e+9 
           2745       3.4698e+9 
           2755      3.43309e+9 
           2765      3.38667e+9 
           2775      3.38109e+9 
           2785      3.31916e+9 
           2795      3.21352e+9 
           2805      3.24389e+9 
           2815      3.23201e+9 
           2825      3.19605e+9 
           2835      3.12287e+9 
           2845      3.12888e+9 
           2855        3.074e+9 
           2865       3.0485e+9 
           2875      3.01224e+9 
           2885       2.9875e+9 
           2895      2.95166e+9 
           2910      2.88149e+9 
           2930      2.84834e+9 
           2950      2.77345e+9 
           2970      2.72341e+9 
           2990      2.65465e+9 
           3010      2.56739e+9 
           3030      2.52491e+9 
           3050      2.49676e+9 
           3070      2.46086e+9 
           3090      2.36594e+9 
           3110       2.3601e+9 
           3130      2.29658e+9 
           3150      2.26193e+9 
           3170       2.2123e+9 
           3190      2.17021e+9 
           3210      2.12735e+9 
           3230      2.07548e+9 
           3250      2.05119e+9 
           3270      1.99718e+9 
           3290      1.96316e+9 
           3310      1.92445e+9 
           3330      1.87959e+9 
           3350      1.84486e+9 
           3370       1.8078e+9 
           3390      1.78683e+9 
           3410      1.75316e+9 
           3430      1.72468e+9 
           3450      1.68448e+9 
           3470      1.65445e+9 
           3490      1.62249e+9 
           3510      1.59467e+9 
           3530      1.57332e+9 
           3550      1.54079e+9 
           3570      1.51249e+9 
           3590      1.47835e+9 
           3610      1.45432e+9 
           3630      1.42719e+9 
           3640      1.41683e+9 
           3650      1.37961e+9 
           3670      1.36092e+9 
           3690      1.32828e+9 
           3710        1.295e+9 
           3730      1.27807e+9 
           3750      1.31261e+9 
           3770      1.28616e+9 
           3790      1.28555e+9 
           3810      1.29978e+9 
           3830      1.21767e+9 
           3850      1.26844e+9 
           3870      1.22621e+9 
           3890      1.16723e+9 
           3910      1.21083e+9 
           3930      1.17339e+9 
           3950      1.15659e+9 
           3970      1.07878e+9 
           3990       1.1294e+9 
           4010       1.1106e+9 
           4030      1.08422e+9 
           4050      1.07602e+9 
           4070       1.0354e+9 
           4090      1.00503e+9 
           4110      9.58634e+8 
           4130      9.92286e+8 
           4150      9.82307e+8 
           4170      9.74814e+8 
           4190      9.57762e+8 
           4210      9.45814e+8 
           4230      9.30091e+8 
           4250        9.073e+8 
           4270      8.86733e+8 
           4290       8.7261e+8 
           4310      8.54005e+8 
           4330      8.34781e+8 
           4350      7.87981e+8 
           4370      8.18918e+8 
           4390      8.10711e+8 
           4410      7.96459e+8 
           4430      7.91261e+8 
           4450      7.75717e+8 
           4470      7.58723e+8 
           4490      7.54763e+8 
           4510      7.43342e+8 
           4530      7.34792e+8 
           4550      7.21941e+8 
           4570      7.11686e+8 
           4590      6.99078e+8 
           4610      6.87423e+8 
           4630      6.77473e+8 
           4650      6.48921e+8 
           4670      6.55518e+8 
           4690      6.47696e+8 
           4710      6.31355e+8 
           4730      6.34447e+8 
           4750      6.23221e+8 
           4770      6.18834e+8 
           4790       6.0972e+8 
           4810      5.99124e+8 
           4830      5.88843e+8 
           4850      5.78391e+8 
           4870      5.41929e+8 
           4890       5.6558e+8 
           4910      5.57169e+8 
           4930      5.44861e+8 
           4950      5.38591e+8 
           4970      5.36065e+8 
           4990      5.28402e+8 
           5010      5.13205e+8 
           5030       5.1211e+8 
           5050       5.0434e+8 
           5070      4.99665e+8 
           5090      4.92053e+8 
           5110       4.8528e+8 
           5130      4.78068e+8 
           5150      4.71705e+8 
           5170      4.65019e+8 
           5190      4.59497e+8 
           5210      4.53478e+8 
           5230      4.47551e+8 
           5250      4.41072e+8 
           5270      4.34747e+8 
           5290      4.29864e+8 
           5310      4.23946e+8 
           5330      4.18556e+8 
           5350       4.1301e+8 
           5370      4.07614e+8 
           5390      4.01457e+8 
           5410      3.95958e+8 
           5430      3.91871e+8 
           5450       3.8654e+8 
           5470      3.81503e+8 
           5490      3.76653e+8 
           5510      3.71889e+8 
           5530      3.66986e+8 
           5550      3.62585e+8 
           5570      3.57788e+8 
           5590      3.52821e+8 
           5610      3.48885e+8 
           5630      3.44545e+8 
           5650      3.39939e+8 
           5670       3.3492e+8 
           5690      3.28369e+8 
           5710      3.24097e+8 
           5730      3.20427e+8 
           5750      3.15376e+8 
           5770      3.12865e+8 
           5790      3.09011e+8 
           5810      3.05224e+8 
           5830      3.01371e+8 
           5850      2.98466e+8 
           5870      2.90248e+8 
           5890      2.90854e+8 
           5910       2.8809e+8 
           5930      2.84993e+8 
           5950      2.81665e+8 
           5970      2.79062e+8 
           5990      2.75134e+8 
           6010      2.72179e+8 
           6030      2.68646e+8 
           6050      2.65617e+8 
           6070      2.62633e+8 
           6090       2.5962e+8 
           6110       2.5645e+8 
           6130      2.53516e+8 
           6150      2.50087e+8 
           6170      2.47212e+8 
           6190      2.44693e+8 
           6210      2.41956e+8 
           6230      2.39008e+8 
           6250      2.36169e+8 
           6270      2.33572e+8 
           6290      2.30937e+8 
           6310      2.28009e+8 
           6330      2.25715e+8 
           6350      2.22922e+8 
           6370      2.20624e+8 
           6390      2.18082e+8 
           6410      2.15504e+8 
           6430      2.13227e+8 
           6450      2.10775e+8 
           6470      2.07944e+8 
           6490      2.05635e+8 
           6510      2.03432e+8 
           6530      2.01039e+8 
           6550      1.98276e+8 
           6570      1.83595e+8 
           6590      1.93977e+8 
           6610      1.92555e+8 
           6630      1.90606e+8 
           6650      1.88201e+8 
           6670      1.85143e+8 
           6690      1.83179e+8 
           6710      1.82231e+8 
           6730       1.7981e+8 
           6750      1.78449e+8 
           6770      1.76623e+8 
           6790      1.74212e+8 
           6810      1.72784e+8 
           6830       1.7078e+8 
           6850      1.69134e+8 
           6870       1.6728e+8 
           6890      1.65136e+8 
           6910      1.63195e+8 
           6930      1.62129e+8 
           6950      1.60425e+8 
           6970      1.58746e+8 
           6990       1.5706e+8 
           7010      1.55345e+8 
           7030      1.53639e+8 
           7050      1.52102e+8 
           7070        1.488e+8 
           7090      1.49056e+8 
           7110      1.47064e+8 
           7130      1.45677e+8 
           7150      1.44509e+8 
           7170      1.42927e+8 
           7190      1.41557e+8 
           7210      1.40128e+8 
           7230      1.37516e+8 
           7250      1.36888e+8 
           7270        1.359e+8 
           7290      1.33738e+8 
           7310      1.33134e+8 
           7330      1.31798e+8 
           7350      1.30489e+8 
           7370      1.29199e+8 
           7390      1.27922e+8 
           7410      1.26642e+8 
           7430      1.25381e+8 
           7450      1.24111e+8 
           7470       1.2232e+8 
           7490       1.2154e+8 
           7510      1.20473e+8 
           7530      1.19236e+8 
           7550      1.18162e+8 
           7570         1.17e+8 
           7590       1.1573e+8 
           7610      1.14504e+8 
           7630      1.13581e+8 
           7650       1.1246e+8 
           7670      1.11446e+8 
           7690      1.10281e+8 
           7710      1.09259e+8 
           7730      1.08096e+8 
           7750        1.072e+8 
           7770      1.06162e+8 
           7790      1.05201e+8 
           7810      1.04169e+8 
           7830       1.0322e+8 
           7850      1.02273e+8 
           7870      1.01097e+8 
           7890      1.00089e+8 
           7910      9.93604e+7 
           7930      9.83985e+7 
           7950      9.75404e+7 
           7970      9.65533e+7 
           7990      9.56929e+7 
           8010      9.47694e+7 
           8030      9.38889e+7 
           8050      9.30858e+7 
           8070      9.22374e+7 
           8090      9.13156e+7 
           8110      8.99379e+7 
           8130      8.97353e+7 
           8150      8.88134e+7 
           8170      8.81195e+7 
           8190      8.69258e+7 
           8210      8.60165e+7 
           8230      8.51985e+7 
           8250      8.47029e+7 
           8270      8.32526e+7 
           8290      8.30762e+7 
           8310      8.24258e+7 
           8330      8.16396e+7 
           8350      8.06708e+7 
           8370      8.00007e+7 
           8390      7.94485e+7 
           8410       7.8645e+7 
           8430      7.80178e+7 
           8450      7.71002e+7 
           8470      7.63217e+7 
           8490      7.62186e+7 
           8510      7.45707e+7 
           8530       7.5112e+7 
           8550      7.27305e+7 
           8570      7.43355e+7 
           8590      7.20037e+7 
