# Kurucz ODFNEW /NOVER (2003)
# teff = 35000 K (value for the effective temperature for the model. Temperatures are given in K)
# logg = 5 log(cm/s2) (value for Log(G) for the model.)
# meta = 0.5  (value for the Metallicity for the model.)
# lh = 1.25  (l/Hp where l is the  mixing length of the convective element and Hp is the pressure scale height)
# vtur = 2 km/s (Microturbulence velocity)
# alpha = 0.4  (Alpha)
#
# column 1: WAVELENGTH (ANGSTROM), Wavelength in Angstrom
# column 2: FLUX (ERG/CM2/S/A), Flux in erg/cm2/s/A
          147.2     0.000133096 
            151     0.000331887 
          155.2     0.000862236 
          158.8       0.0018819 
            162       0.0036503 
            166      0.00812027 
          170.3       0.0182155 
          173.4        0.032242 
          176.8       0.0596233 
          180.2        0.105704 
          181.7        0.138699 
          186.1        0.279187 
            191        0.588469 
          193.9         0.89532 
          198.4         1.70312 
          201.8         2.68204 
            205         4.05693 
          210.5         8.03974 
          216.2         15.5101 
          219.8         23.5885 
            223         33.5063 
          226.8         56.7157 
            230         6575.53 
            234         13434.9 
            240           20486 
          246.5         32594.3 
          252.4         52741.5 
          256.8         73516.4 
            260          113147 
            264          169895 
          268.5          254620 
          273.5          341071 
          278.5          411520 
            284          877273 
            290      1.23066e+6 
            296      1.57006e+6 
            301      2.44622e+6 
            308      5.84966e+6 
            318      1.12403e+7 
            328      1.55837e+7 
            338      2.68935e+7 
            348      3.98648e+7 
            357      8.21008e+7 
            366      1.79717e+8 
            375      2.06007e+8 
            385      3.01714e+8 
            395      7.30931e+8 
            405      8.98202e+8 
            414      1.37417e+9 
            422      1.54266e+9 
            430      1.63746e+9 
            441      1.91424e+9 
            451      2.07015e+9 
            460      1.93581e+9 
            470      2.27368e+9 
            480       2.6268e+9 
            490      2.47722e+9 
            500      3.09461e+9 
            506       3.0577e+9 
            512     2.16055e+10 
            520     1.96529e+10 
            530     1.82236e+10 
            540     1.69967e+10 
            550     1.84454e+10 
            560      2.5207e+10 
            570     2.78877e+10 
            580      2.5894e+10 
            590     2.70691e+10 
            600     1.76697e+10 
            610     2.36891e+10 
            620     3.00178e+10 
            630     2.87212e+10 
            640     2.86714e+10 
            650     2.69569e+10 
            658     1.83238e+10 
            665     2.51991e+10 
            675      3.0078e+10 
            685     2.16961e+10 
            695     3.04215e+10 
            705     2.07054e+10 
            716     3.25865e+10 
            726     3.14456e+10 
            735     3.12883e+10 
            745      2.7519e+10 
            755     2.77585e+10 
            765     2.89062e+10 
            775      3.0223e+10 
            785     2.97031e+10 
            795     3.05365e+10 
            805     2.81094e+10 
            815     2.77392e+10 
            825     3.01051e+10 
            835     2.20356e+10 
            845     2.80796e+10 
            855     2.73091e+10 
            865      2.8362e+10 
            875     2.82705e+10 
            885     2.85674e+10 
            895     2.84655e+10 
            905     2.72005e+10 
            915     2.54798e+10 
            925     5.39981e+10 
            935       8.354e+10 
            945      1.1299e+11 
            955     1.28353e+11 
            965     1.50328e+11 
            975     6.02054e+10 
            985     1.19093e+11 
            995     1.02715e+11 
           1005      1.0578e+11 
           1015     1.14947e+11 
           1025     8.65102e+10 
           1035     1.11388e+11 
           1045     1.31928e+11 
           1055     1.23411e+11 
           1065     9.84384e+10 
           1075     1.06633e+11 
           1085     9.66061e+10 
           1095     1.05781e+11 
           1105     9.94687e+10 
           1115     9.76713e+10 
           1125     7.08765e+10 
           1135     9.18147e+10 
           1145     8.84478e+10 
           1155     8.05265e+10 
           1165     7.95081e+10 
           1175     5.21043e+10 
           1185     7.30158e+10 
           1195     6.92321e+10 
           1205     6.53869e+10 
           1215     5.01591e+10 
           1225     6.42031e+10 
           1235     6.91647e+10 
           1245     6.63957e+10 
           1255     6.62292e+10 
           1265     6.79242e+10 
           1275     7.05731e+10 
           1285     7.08159e+10 
           1295     6.40116e+10 
           1305     6.44678e+10 
           1315     6.92621e+10 
           1325     6.64074e+10 
           1335     6.45411e+10 
           1345     6.26124e+10 
           1355     6.23237e+10 
           1365     5.88864e+10 
           1375     5.65425e+10 
           1385     5.37729e+10 
           1395     3.78602e+10 
           1405     4.03271e+10 
           1415     5.20889e+10 
           1425     4.62864e+10 
           1435     5.00342e+10 
           1442     4.91311e+10 
           1447     4.89829e+10 
           1455     4.62462e+10 
           1465     4.47166e+10 
           1475     4.53106e+10 
           1485     4.51534e+10 
           1495     4.36293e+10 
           1505     4.14863e+10 
           1512     4.08625e+10 
           1517     4.12026e+10 
           1525     3.96051e+10 
           1535     3.38688e+10 
           1545     2.79127e+10 
           1555     2.81781e+10 
           1565     3.21583e+10 
           1575     3.37893e+10 
           1585     3.34242e+10 
           1595     3.40652e+10 
           1605     3.24677e+10 
           1615     3.06514e+10 
           1625     3.14166e+10 
           1635      3.1624e+10 
           1645     3.18505e+10 
           1655     3.15946e+10 
           1665     3.06455e+10 
           1672      2.8391e+10 
           1677      3.3832e+10 
           1685     3.20905e+10 
           1695     3.08265e+10 
           1705     3.03169e+10 
           1715     2.88501e+10 
           1725     2.71277e+10 
           1735      2.8369e+10 
           1745     2.82737e+10 
           1755     2.78313e+10 
           1765     2.72157e+10 
           1775      2.6025e+10 
           1785     2.65879e+10 
           1795     2.58985e+10 
           1805     2.57441e+10 
           1815     2.49695e+10 
           1825     2.44862e+10 
           1835     2.43733e+10 
           1845     2.30585e+10 
           1855      2.3509e+10 
           1865     2.35858e+10 
           1875     2.28012e+10 
           1885     2.16513e+10 
           1895     2.12419e+10 
           1905     2.17877e+10 
           1915      2.1043e+10 
           1925     1.95846e+10 
           1935     2.09905e+10 
           1945     2.12204e+10 
           1955     1.90611e+10 
           1967     2.00249e+10 
           1976     2.05617e+10 
           1984     1.97483e+10 
           1995     1.93238e+10 
           2005     1.96273e+10 
           2015     1.95193e+10 
           2025     1.94151e+10 
           2035     1.85525e+10 
           2045     1.82932e+10 
           2055     1.46712e+10 
           2065     1.41178e+10 
           2074     1.44492e+10 
           2078      1.4234e+10 
           2085     1.47764e+10 
           2095     1.53832e+10 
           2105      1.6585e+10 
           2115     1.69339e+10 
           2125     1.64261e+10 
           2135     1.63718e+10 
           2145     1.60607e+10 
           2155     1.60223e+10 
           2165     1.51754e+10 
           2175     1.55904e+10 
           2185     1.50266e+10 
           2195       1.541e+10 
           2205     1.51621e+10 
           2215     1.44012e+10 
           2225     1.46541e+10 
           2235     1.44312e+10 
           2245     1.41848e+10 
           2255     1.35837e+10 
           2265     1.38069e+10 
           2275     1.36749e+10 
           2285     1.30324e+10 
           2295     1.17217e+10 
           2305      1.2498e+10 
           2315     1.24669e+10 
           2325     1.24958e+10 
           2335     1.23344e+10 
           2345     1.21815e+10 
           2355      1.1865e+10 
           2365     1.16315e+10 
           2375      1.1304e+10 
           2385     1.07405e+10 
           2395     1.08815e+10 
           2405     1.09345e+10 
           2415     1.07356e+10 
           2425     1.07151e+10 
           2435     1.05053e+10 
           2445     1.04019e+10 
           2455     1.02386e+10 
           2465     1.01352e+10 
           2475      9.98154e+9 
           2485      9.51093e+9 
           2495      6.63102e+9 
           2505      8.89798e+9 
           2513      8.73822e+9 
           2518      8.80218e+9 
           2525      9.26634e+9 
           2535        9.252e+9 
           2545      8.97993e+9 
           2555      8.92363e+9 
           2565      8.74768e+9 
           2575      8.72475e+9 
           2585      8.63201e+9 
           2595      8.42519e+9 
           2605      8.42225e+9 
           2615      8.20866e+9 
           2625      8.18287e+9 
           2635      8.09212e+9 
           2645      7.94489e+9 
           2655       7.8734e+9 
           2665      7.64203e+9 
           2675      7.41179e+9 
           2685      7.51293e+9 
           2695      7.33383e+9 
           2705      7.26786e+9 
           2715      7.17302e+9 
           2725      7.08395e+9 
           2735      6.89626e+9 
           2745       6.9716e+9 
           2755      6.86797e+9 
           2765      6.76122e+9 
           2775      6.76541e+9 
           2785       6.6052e+9 
           2795      6.32269e+9 
           2805      6.42468e+9 
           2815      6.41715e+9 
           2825      6.32884e+9 
           2835      6.17881e+9 
           2845      6.19921e+9 
           2855      6.07822e+9 
           2865      5.97482e+9 
           2875       5.8996e+9 
           2885      5.84066e+9 
           2895       5.7424e+9 
           2910      5.56679e+9 
           2930      5.55556e+9 
           2950      5.39434e+9 
           2970      5.26342e+9 
           2990      5.07821e+9 
           3010      4.87747e+9 
           3030      4.75338e+9 
           3050      4.73053e+9 
           3070       4.6619e+9 
           3090      4.48772e+9 
           3110      4.47654e+9 
           3130      4.32799e+9 
           3150      4.27055e+9 
           3170      4.15048e+9 
           3190      4.08712e+9 
           3210      3.95628e+9 
           3230      3.88613e+9 
           3250      3.83524e+9 
           3270      3.69651e+9 
           3290      3.65066e+9 
           3310      3.55854e+9 
           3330      3.46734e+9 
           3350       3.3747e+9 
           3370      3.30995e+9 
           3390      3.27914e+9 
           3410      3.20357e+9 
           3430      3.16619e+9 
           3450      3.05897e+9 
           3470       3.0183e+9 
           3490      2.95879e+9 
           3510      2.89868e+9 
           3530      2.85477e+9 
           3550      2.78817e+9 
           3570       2.7347e+9 
           3590      2.66769e+9 
           3610      2.61899e+9 
           3630      2.56454e+9 
           3640      2.52994e+9 
           3650      2.40592e+9 
           3670      2.36928e+9 
           3690      2.32176e+9 
           3710      2.22303e+9 
           3730      2.20572e+9 
           3750      2.17843e+9 
           3770      2.11122e+9 
           3790      2.16941e+9 
           3810      2.21227e+9 
           3830      2.00208e+9 
           3850       2.2006e+9 
           3870      2.11586e+9 
           3890      1.85971e+9 
           3910      2.16534e+9 
           3930      2.10328e+9 
           3950      2.01414e+9 
           3970       1.7042e+9 
           3990      1.99393e+9 
           4010      1.96765e+9 
           4030      1.88016e+9 
           4050      1.90674e+9 
           4070      1.80122e+9 
           4090      1.67566e+9 
           4110      1.54094e+9 
           4130      1.73433e+9 
           4150      1.71442e+9 
           4170      1.72022e+9 
           4190      1.68392e+9 
           4210      1.64764e+9 
           4230      1.63191e+9 
           4250      1.57082e+9 
           4270      1.54122e+9 
           4290      1.50194e+9 
           4310       1.4526e+9 
           4330      1.35612e+9 
           4350      1.26725e+9 
           4370      1.39507e+9 
           4390       1.3749e+9 
           4410      1.35661e+9 
           4430      1.35351e+9 
           4450      1.32451e+9 
           4470       1.2788e+9 
           4490      1.28962e+9 
           4510       1.2605e+9 
           4530      1.25195e+9 
           4550       1.2222e+9 
           4570      1.21781e+9 
           4590        1.192e+9 
           4610      1.16216e+9 
           4630      1.13176e+9 
           4650      1.07063e+9 
           4670      1.10281e+9 
           4690      1.08336e+9 
           4710       1.0627e+9 
           4730       1.0817e+9 
           4750       1.0614e+9 
           4770      1.05446e+9 
           4790      1.03674e+9 
           4810      1.01342e+9 
           4830      9.89749e+8 
           4850      9.25516e+8 
           4870       8.3892e+8 
           4890      9.41741e+8 
           4910      9.32381e+8 
           4930       9.0727e+8 
           4950      9.02459e+8 
           4970       9.0215e+8 
           4990      8.88004e+8 
           5010      8.49754e+8 
           5030      8.50276e+8 
           5050      8.40128e+8 
           5070      8.36092e+8 
           5090      8.21144e+8 
           5110      8.08006e+8 
           5130       7.9489e+8 
           5150      7.83927e+8 
           5170      7.71503e+8 
           5190      7.62239e+8 
           5210      7.51929e+8 
           5230       7.4181e+8 
           5250      7.27886e+8 
           5270      7.15711e+8 
           5290      7.10444e+8 
           5310      6.99424e+8 
           5330      6.90061e+8 
           5350       6.8037e+8 
           5370      6.70648e+8 
           5390      6.59728e+8 
           5410      6.42387e+8 
           5430       6.4303e+8 
           5450        6.336e+8 
           5470      6.24544e+8 
           5490      6.16039e+8 
           5510      6.07369e+8 
           5530      5.99078e+8 
           5550      5.91809e+8 
           5570      5.83268e+8 
           5590      5.73242e+8 
           5610      5.67989e+8 
           5630      5.60419e+8 
           5650      5.52245e+8 
           5670      5.43353e+8 
           5690      5.28125e+8 
           5710      5.16066e+8 
           5730      5.10496e+8 
           5750      5.02143e+8 
           5770      4.97921e+8 
           5790      4.90992e+8 
           5810      4.83287e+8 
           5830       4.7633e+8 
           5850      4.72584e+8 
           5870      4.55921e+8 
           5890       4.5915e+8 
           5910      4.55206e+8 
           5930      4.50405e+8 
           5950      4.45573e+8 
           5970      4.42392e+8 
           5990      4.36587e+8 
           6010      4.32946e+8 
           6030      4.27623e+8 
           6050      4.23565e+8 
           6070         4.19e+8 
           6090      4.14058e+8 
           6110      4.08395e+8 
           6130      4.03679e+8 
           6150      3.96874e+8 
           6170      3.92416e+8 
           6190       3.8892e+8 
           6210      3.84534e+8 
           6230      3.79497e+8 
           6250      3.73908e+8 
           6270      3.70214e+8 
           6290      3.65712e+8 
           6310      3.60293e+8 
           6330      3.57146e+8 
           6350      3.51994e+8 
           6370      3.48785e+8 
           6390      3.44575e+8 
           6410      3.40163e+8 
           6430      3.36465e+8 
           6450      3.32091e+8 
           6470      3.26747e+8 
           6490       3.2267e+8 
           6510      3.17952e+8 
           6530      3.13384e+8 
           6550      3.01401e+8 
           6570      2.70523e+8 
           6590      3.01605e+8 
           6610      3.01085e+8 
           6630      2.98654e+8 
           6650      2.94935e+8 
           6670      2.87427e+8 
           6690      2.84036e+8 
           6710       2.8391e+8 
           6730      2.80312e+8 
           6750      2.78265e+8 
           6770      2.75678e+8 
           6790      2.71507e+8 
           6810      2.69484e+8 
           6830      2.66123e+8 
           6850      2.63391e+8 
           6870      2.60152e+8 
           6890      2.55985e+8 
           6910      2.52983e+8 
           6930      2.52137e+8 
           6950      2.49315e+8 
           6970      2.46607e+8 
           6990      2.43671e+8 
           7010      2.40473e+8 
           7030      2.37674e+8 
           7050      2.35114e+8 
           7070      2.29686e+8 
           7090       2.3076e+8 
           7110      2.27578e+8 
           7130      2.25259e+8 
           7150      2.23425e+8 
           7170      2.20451e+8 
           7190      2.18294e+8 
           7210      2.16352e+8 
           7230      2.12101e+8 
           7250      2.11198e+8 
           7270      2.09517e+8 
           7290       2.0586e+8 
           7310      2.04876e+8 
           7330      2.02883e+8 
           7350      2.00727e+8 
           7370       1.9864e+8 
           7390      1.96656e+8 
           7410      1.94519e+8 
           7430      1.92572e+8 
           7450      1.90318e+8 
           7470      1.87477e+8 
           7490       1.8551e+8 
           7510      1.84557e+8 
           7530      1.82515e+8 
           7550      1.80921e+8 
           7570      1.79013e+8 
           7590      1.76181e+8 
           7610      1.74703e+8 
           7630      1.73407e+8 
           7650      1.71575e+8 
           7670      1.70098e+8 
           7690      1.67545e+8 
           7710      1.66329e+8 
           7730       1.6383e+8 
           7750      1.63312e+8 
           7770      1.61817e+8 
           7790      1.60242e+8 
           7810      1.58681e+8 
           7830      1.57122e+8 
           7850      1.55326e+8 
           7870      1.53327e+8 
           7890      1.51885e+8 
           7910      1.50877e+8 
           7930      1.49416e+8 
           7950      1.48158e+8 
           7970      1.46479e+8 
           7990      1.45174e+8 
           8010      1.43816e+8 
           8030      1.42294e+8 
           8050      1.41111e+8 
           8070      1.39736e+8 
           8090      1.38355e+8 
           8110      1.35869e+8 
           8130      1.35771e+8 
           8150      1.34414e+8 
           8170      1.33158e+8 
           8190      1.30807e+8 
           8210      1.28807e+8 
           8230      1.27119e+8 
           8250       1.2657e+8 
           8270      1.24416e+8 
           8290      1.24233e+8 
           8310      1.23429e+8 
           8330      1.21903e+8 
           8350      1.20379e+8 
           8370      1.19654e+8 
           8390      1.19015e+8 
           8410       1.1772e+8 
           8430      1.16876e+8 
           8450      1.15384e+8 
           8470      1.14798e+8 
           8490      1.13609e+8 
           8510       1.1215e+8 
           8530      1.11557e+8 
           8550      1.10557e+8 
           8570      1.09759e+8 
