# Kurucz ODFNEW /NOVER (2003)
# teff = 38000 K (value for the effective temperature for the model. Temperatures are given in K)
# logg = 5 log(cm/s2) (value for Log(G) for the model.)
# meta = 0.5  (value for the Metallicity for the model.)
# lh = 1.25  (l/Hp where l is the  mixing length of the convective element and Hp is the pressure scale height)
# vtur = 2 km/s (Microturbulence velocity)
# alpha = 0.4  (Alpha)
#
# column 1: WAVELENGTH (ANGSTROM), Wavelength in Angstrom
# column 2: FLUX (ERG/CM2/S/A), Flux in erg/cm2/s/A
          147.2      0.00792532 
            151       0.0182375 
          155.2        0.042634 
          158.8       0.0852508 
            162        0.152248 
            166        0.312487 
          170.3        0.639147 
          173.4         1.06113 
          176.8         1.84627 
          180.2          3.0691 
          181.7         3.92227 
          186.1         7.33537 
            191         14.2561 
          193.9         20.7898 
          198.4         36.9699 
          201.8         55.2079 
            205         79.7644 
          210.5          146.38 
          216.2          261.36 
          219.8         380.807 
            223         519.273 
          226.8         838.955 
            230          170148 
            234          367785 
            240          508886 
          246.5          729995 
          252.4      1.21873e+6 
          256.8       1.7214e+6 
            260      2.35668e+6 
            264      4.23226e+6 
          268.5      6.60628e+6 
          273.5      8.20168e+6 
          278.5      8.56117e+6 
            284      1.69639e+7 
            290      2.27525e+7 
            296      2.62308e+7 
            301      5.09702e+7 
            308      9.19902e+7 
            318      1.59794e+8 
            328      2.16767e+8 
            338      3.67285e+8 
            348      5.18289e+8 
            357      9.75041e+8 
            366      2.28902e+9 
            375      2.69825e+9 
            385       3.8119e+9 
            395      9.55025e+9 
            405     1.59576e+10 
            414     1.67288e+10 
            422      1.7428e+10 
            430     1.62352e+10 
            441     1.85477e+10 
            451     1.96754e+10 
            460     1.52921e+10 
            470     1.75472e+10 
            480     2.09425e+10 
            490      1.4169e+10 
            500     2.07563e+10 
            506     1.56497e+10 
            512     6.18833e+10 
            520     5.60092e+10 
            530     5.09275e+10 
            540      4.5785e+10 
            550     4.17927e+10 
            560     5.92364e+10 
            570     7.27578e+10 
            580     6.92862e+10 
            590     6.98643e+10 
            600     4.32977e+10 
            610      5.2159e+10 
            620     7.13757e+10 
            630     6.72105e+10 
            640     7.24689e+10 
            650     6.47324e+10 
            658     4.29881e+10 
            665     6.21372e+10 
            675     7.43644e+10 
            685     5.38826e+10 
            695     7.14836e+10 
            705     4.70259e+10 
            716     7.51539e+10 
            726     7.39627e+10 
            735      7.3592e+10 
            745      6.2685e+10 
            755     6.27154e+10 
            765     6.16105e+10 
            775     6.57775e+10 
            785     5.83589e+10 
            795     6.48938e+10 
            805     6.07627e+10 
            815     6.04888e+10 
            825     6.39741e+10 
            835      4.6755e+10 
            845     5.96045e+10 
            855     5.65384e+10 
            865     5.96645e+10 
            875     5.92582e+10 
            885     5.85759e+10 
            895     5.78198e+10 
            905     5.52198e+10 
            915     4.57084e+10 
            925     8.10147e+10 
            935     1.16799e+11 
            945     1.44461e+11 
            955     1.64951e+11 
            965     1.87951e+11 
            975     1.00267e+11 
            985     1.52843e+11 
            995     1.30444e+11 
           1005     1.30662e+11 
           1015     1.40793e+11 
           1025     1.16136e+11 
           1035     1.41045e+11 
           1045      1.5844e+11 
           1055      1.4967e+11 
           1065     1.26332e+11 
           1075      1.3344e+11 
           1085     1.18953e+11 
           1095     1.29864e+11 
           1105     1.22871e+11 
           1115      1.2128e+11 
           1125     9.79608e+10 
           1135     1.14897e+11 
           1145     1.12928e+11 
           1155     1.00583e+11 
           1165     9.77169e+10 
           1175     7.23157e+10 
           1185     9.13235e+10 
           1195     8.54406e+10 
           1205     8.31567e+10 
           1215     6.62009e+10 
           1225     7.91204e+10 
           1235     8.32289e+10 
           1245     8.05191e+10 
           1255     8.05088e+10 
           1265     8.20401e+10 
           1275     8.50525e+10 
           1285     8.49157e+10 
           1295     8.04419e+10 
           1305      7.8997e+10 
           1315     8.23054e+10 
           1325     7.98597e+10 
           1335     7.75157e+10 
           1345     7.54969e+10 
           1355     7.39742e+10 
           1365       7.065e+10 
           1375     6.76335e+10 
           1385     6.57196e+10 
           1395     5.36513e+10 
           1405     5.32682e+10 
           1415     6.43153e+10 
           1425     5.68928e+10 
           1435      6.1119e+10 
           1442     5.88149e+10 
           1447     5.88572e+10 
           1455     5.58468e+10 
           1465      5.4778e+10 
           1475     5.50837e+10 
           1485      5.5219e+10 
           1495      5.3259e+10 
           1505     5.19182e+10 
           1512     5.16281e+10 
           1517     5.15339e+10 
           1525     4.96112e+10 
           1535     4.33853e+10 
           1545     3.45492e+10 
           1555     3.53823e+10 
           1565     4.04597e+10 
           1575     4.21603e+10 
           1585     4.12851e+10 
           1595     4.22824e+10 
           1605     3.97931e+10 
           1615     3.78762e+10 
           1625     3.87882e+10 
           1635     3.85971e+10 
           1645     3.84021e+10 
           1655     3.85185e+10 
           1665     3.69782e+10 
           1672      3.4606e+10 
           1677     4.04655e+10 
           1685     3.87195e+10 
           1695     3.75166e+10 
           1705      3.6759e+10 
           1715     3.49431e+10 
           1725     3.33161e+10 
           1735     3.46115e+10 
           1745     3.44856e+10 
           1755     3.37549e+10 
           1765     3.29309e+10 
           1775     3.17191e+10 
           1785     3.23177e+10 
           1795     3.12314e+10 
           1805     3.08793e+10 
           1815     3.02873e+10 
           1825      2.9445e+10 
           1835     2.94058e+10 
           1845     2.86385e+10 
           1855     2.87729e+10 
           1865      2.8698e+10 
           1875     2.75462e+10 
           1885     2.67044e+10 
           1895      2.6715e+10 
           1905      2.6783e+10 
           1915     2.61455e+10 
           1925     2.44624e+10 
           1935      2.5808e+10 
           1945     2.57754e+10 
           1955     2.36396e+10 
           1967     2.44377e+10 
           1976     2.44992e+10 
           1984     2.41049e+10 
           1995     2.35047e+10 
           2005     2.37797e+10 
           2015     2.34812e+10 
           2025     2.32048e+10 
           2035     2.25007e+10 
           2045     2.20424e+10 
           2055     1.66079e+10 
           2065     1.58308e+10 
           2074     1.61693e+10 
           2078     1.62127e+10 
           2085     1.70607e+10 
           2095     1.84767e+10 
           2105     1.97784e+10 
           2115     2.01594e+10 
           2125     1.94713e+10 
           2135     1.94934e+10 
           2145     1.91737e+10 
           2155     1.89937e+10 
           2165     1.77883e+10 
           2175     1.85696e+10 
           2185     1.76882e+10 
           2195     1.83015e+10 
           2205     1.79802e+10 
           2215     1.68845e+10 
           2225     1.74248e+10 
           2235     1.71719e+10 
           2245     1.68219e+10 
           2255     1.59915e+10 
           2265     1.63558e+10 
           2275     1.62545e+10 
           2285     1.54618e+10 
           2295     1.44411e+10 
           2305     1.47358e+10 
           2315     1.47944e+10 
           2325     1.48535e+10 
           2335     1.47003e+10 
           2345      1.4395e+10 
           2355     1.39965e+10 
           2365     1.36993e+10 
           2375     1.32936e+10 
           2385     1.24936e+10 
           2395     1.28124e+10 
           2405     1.28546e+10 
           2415      1.2676e+10 
           2425     1.26684e+10 
           2435      1.2428e+10 
           2445     1.22812e+10 
           2455     1.20619e+10 
           2465      1.1968e+10 
           2475     1.18493e+10 
           2485     1.13277e+10 
           2495      8.19058e+9 
           2505     1.06877e+10 
           2513     1.02785e+10 
           2518     1.04885e+10 
           2525     1.09143e+10 
           2535     1.09099e+10 
           2545      1.0687e+10 
           2555     1.05643e+10 
           2565      1.0379e+10 
           2575     1.03094e+10 
           2585     1.01863e+10 
           2595      9.86799e+9 
           2605      9.92173e+9 
           2615      9.64931e+9 
           2625      9.65193e+9 
           2635      9.56578e+9 
           2645      9.35897e+9 
           2655      9.30837e+9 
           2665      9.09861e+9 
           2675      8.76589e+9 
           2685      8.85592e+9 
           2695        8.712e+9 
           2705      8.69713e+9 
           2715      8.54374e+9 
           2725      8.41165e+9 
           2735      8.10448e+9 
           2745      8.28502e+9 
           2755      8.13366e+9 
           2765      8.03206e+9 
           2775      7.97085e+9 
           2785      7.76994e+9 
           2795      7.50708e+9 
           2805      7.60208e+9 
           2815      7.55434e+9 
           2825       7.4495e+9 
           2835      7.33751e+9 
           2845      7.31627e+9 
           2855      7.19024e+9 
           2865      7.04008e+9 
           2875      6.96247e+9 
           2885      6.91022e+9 
           2895      6.78929e+9 
           2910      6.61004e+9 
           2930      6.55477e+9 
           2950      6.38438e+9 
           2970      6.20857e+9 
           2990      5.99221e+9 
           3010      5.79309e+9 
           3030      5.61428e+9 
           3050      5.57855e+9 
           3070      5.45574e+9 
           3090      5.32537e+9 
           3110      5.26645e+9 
           3130      5.10822e+9 
           3150      5.03938e+9 
           3170      4.90402e+9 
           3190       4.8231e+9 
           3210      4.62279e+9 
           3230      4.59027e+9 
           3250       4.5179e+9 
           3270      4.34548e+9 
           3290      4.29664e+9 
           3310      4.18814e+9 
           3330      4.08362e+9 
           3350      3.95612e+9 
           3370       3.8957e+9 
           3390      3.84364e+9 
           3410      3.75916e+9 
           3430      3.71673e+9 
           3450      3.58261e+9 
           3470      3.54644e+9 
           3490      3.48456e+9 
           3510      3.41592e+9 
           3530      3.34467e+9 
           3550      3.27241e+9 
           3570      3.20984e+9 
           3590      3.14231e+9 
           3610      3.07203e+9 
           3630      3.01054e+9 
           3640      2.94711e+9 
           3650      2.71333e+9 
           3670      2.66882e+9 
           3690       2.6139e+9 
           3710      2.52271e+9 
           3730      2.52045e+9 
           3750      2.50834e+9 
           3770      2.46714e+9 
           3790      2.53102e+9 
           3810      2.56953e+9 
           3830      2.37095e+9 
           3850      2.54262e+9 
           3870       2.4531e+9 
           3890      2.19869e+9 
           3910      2.47554e+9 
           3930      2.40811e+9 
           3950      2.31651e+9 
           3970      2.01142e+9 
           3990      2.28696e+9 
           4010      2.24823e+9 
           4030      2.15902e+9 
           4050      2.18178e+9 
           4070      2.08159e+9 
           4090      1.95136e+9 
           4110      1.81434e+9 
           4130      1.98996e+9 
           4150      1.96604e+9 
           4170      1.96254e+9 
           4190      1.91507e+9 
           4210      1.86262e+9 
           4230      1.86311e+9 
           4250      1.80521e+9 
           4270      1.77421e+9 
           4290      1.73261e+9 
           4310      1.68337e+9 
           4330       1.5832e+9 
           4350      1.48705e+9 
           4370      1.61393e+9 
           4390      1.57771e+9 
           4410      1.55309e+9 
           4430      1.54634e+9 
           4450      1.51493e+9 
           4470      1.47214e+9 
           4490       1.4735e+9 
           4510      1.43321e+9 
           4530      1.41869e+9 
           4550      1.37464e+9 
           4570      1.38241e+9 
           4590      1.35225e+9 
           4610      1.32808e+9 
           4630      1.29363e+9 
           4650       1.2239e+9 
           4670      1.25769e+9 
           4690      1.22149e+9 
           4710      1.22099e+9 
           4730      1.23229e+9 
           4750      1.21109e+9 
           4770      1.19581e+9 
           4790      1.17629e+9 
           4810      1.15366e+9 
           4830      1.13042e+9 
           4850      1.06759e+9 
           4870      9.77035e+8 
           4890      1.07373e+9 
           4910      1.06102e+9 
           4930      1.03739e+9 
           4950      1.02837e+9 
           4970       1.0234e+9 
           4990      1.00815e+9 
           5010      9.73699e+8 
           5030      9.67699e+8 
           5050      9.56208e+8 
           5070      9.48547e+8 
           5090      9.33721e+8 
           5110      9.19457e+8 
           5130      9.05273e+8 
           5150      8.92304e+8 
           5170      8.77507e+8 
           5190      8.66086e+8 
           5210      8.53981e+8 
           5230      8.42517e+8 
           5250      8.26447e+8 
           5270       8.1301e+8 
           5290      8.06753e+8 
           5310      7.94381e+8 
           5330      7.83458e+8 
           5350      7.72794e+8 
           5370      7.61522e+8 
           5390       7.4989e+8 
           5410      7.23877e+8 
           5430      7.29926e+8 
           5450       7.1986e+8 
           5470      7.09469e+8 
           5490      6.99759e+8 
           5510      6.88819e+8 
           5530      6.80483e+8 
           5550      6.71686e+8 
           5570      6.61795e+8 
           5590      6.49654e+8 
           5610      6.44695e+8 
           5630      6.35962e+8 
           5650      6.27113e+8 
           5670      6.18103e+8 
           5690      5.98977e+8 
           5710      5.71447e+8 
           5730      5.64471e+8 
           5750      5.56392e+8 
           5770      5.50414e+8 
           5790      5.43168e+8 
           5810      5.33453e+8 
           5830      5.28081e+8 
           5850      5.24124e+8 
           5870      5.09724e+8 
           5890      5.12664e+8 
           5910      5.08531e+8 
           5930      5.04143e+8 
           5950      5.00089e+8 
           5970      4.96924e+8 
           5990      4.92771e+8 
           6010      4.89257e+8 
           6030      4.84525e+8 
           6050      4.80616e+8 
           6070      4.75184e+8 
           6090      4.69824e+8 
           6110      4.63503e+8 
           6130      4.58248e+8 
           6150      4.51587e+8 
           6170      4.45973e+8 
           6190      4.41925e+8 
           6210      4.36788e+8 
           6230      4.30426e+8 
           6250      4.24965e+8 
           6270      4.20725e+8 
           6290      4.15426e+8 
           6310      4.08823e+8 
           6330      4.05529e+8 
           6350       4.0011e+8 
           6370      3.96079e+8 
           6390      3.91214e+8 
           6410      3.85173e+8 
           6430      3.82061e+8 
           6450       3.7696e+8 
           6470      3.71835e+8 
           6490       3.6714e+8 
           6510      3.61439e+8 
           6530      3.55951e+8 
           6550      3.45113e+8 
           6570      3.13367e+8 
           6590      3.44346e+8 
           6610      3.42524e+8 
           6630      3.39363e+8 
           6650      3.35255e+8 
           6670      3.26905e+8 
           6690      3.22032e+8 
           6710      3.22274e+8 
           6730      3.18648e+8 
           6750      3.15804e+8 
           6770      3.12905e+8 
           6790       3.0934e+8 
           6810      3.06185e+8 
           6830      3.02594e+8 
           6850      2.99087e+8 
           6870      2.95409e+8 
           6890      2.89181e+8 
           6910      2.87825e+8 
           6930      2.86268e+8 
           6950      2.83024e+8 
           6970       2.7996e+8 
           6990      2.76625e+8 
           7010       2.7294e+8 
           7030      2.69751e+8 
           7050      2.66813e+8 
           7070      2.61469e+8 
           7090      2.61997e+8 
           7110      2.58878e+8 
           7130      2.56161e+8 
           7150      2.53668e+8 
           7170      2.49053e+8 
           7190      2.46984e+8 
           7210       2.4558e+8 
           7230      2.42118e+8 
           7250       2.4006e+8 
           7270      2.37815e+8 
           7290      2.34073e+8 
           7310      2.32343e+8 
           7330      2.30319e+8 
           7350      2.27889e+8 
           7370      2.25301e+8 
           7390      2.23187e+8 
           7410      2.20625e+8 
           7430      2.18566e+8 
           7450      2.15812e+8 
           7470      2.13524e+8 
           7490      2.10438e+8 
           7510      2.09378e+8 
           7530      2.07251e+8 
           7550      2.05229e+8 
           7570      2.03042e+8 
           7590      1.98226e+8 
           7610        1.982e+8 
           7630      1.96742e+8 
           7650      1.94697e+8 
           7670      1.92934e+8 
           7690      1.89874e+8 
           7710      1.88599e+8 
           7730      1.85745e+8 
           7750      1.85139e+8 
           7770      1.83657e+8 
           7790      1.81697e+8 
           7810      1.80033e+8 
           7830      1.78217e+8 
           7850      1.75782e+8 
           7870       1.7405e+8 
           7890      1.72612e+8 
           7910      1.71301e+8 
           7930      1.69689e+8 
           7950      1.68145e+8 
           7970      1.66086e+8 
           7990      1.64736e+8 
           8010      1.63222e+8 
           8030      1.61416e+8 
           8050       1.6015e+8 
           8070        1.586e+8 
           8090      1.57045e+8 
           8110      1.54983e+8 
           8130      1.54102e+8 
           8150      1.52552e+8 
           8170       1.5092e+8 
           8190      1.48841e+8 
           8210      1.44104e+8 
           8230      1.41814e+8 
           8250      1.41232e+8 
           8270       1.3974e+8 
           8290       1.3893e+8 
           8310      1.37869e+8 
           8330      1.36003e+8 
           8350      1.34622e+8 
           8370      1.33797e+8 
           8390      1.32951e+8 
           8410      1.31638e+8 
           8430        1.306e+8 
           8450      1.29176e+8 
           8470      1.28325e+8 
           8490      1.27141e+8 
           8510      1.25545e+8 
           8530      1.24978e+8 
           8550      1.23904e+8 
           8570      1.22932e+8 
