# Kurucz ODFNEW /NOVER (2003)
# teff = 10250 K (value for the effective temperature for the model. Temperatures are given in K)
# logg = 4 log(cm/s2) (value for Log(G) for the model.)
# meta = 0.5  (value for the Metallicity for the model.)
# lh = 1.25  (l/Hp where l is the  mixing length of the convective element and Hp is the pressure scale height)
# vtur = 2 km/s (Microturbulence velocity)
# alpha = 0  (Alpha)
#
# column 1: WAVELENGTH (ANGSTROM), Wavelength in Angstrom
# column 2: FLUX (ERG/CM2/S/A), Flux in erg/cm2/s/A
          268.5     4.30432e-23 
          273.5     1.82285e-22 
          278.5     6.77423e-22 
            284     2.69436e-21 
            290     1.14116e-20 
            296     4.54745e-20 
            301     1.38773e-19 
            308     6.25592e-19 
            318     4.81175e-18 
            328     3.29316e-17 
            338     2.02281e-16 
            348     1.12856e-15 
            357     4.95679e-15 
            366     2.01563e-14 
            375     7.66747e-14 
            385     3.16887e-13 
            395      1.2205e-12 
            405     4.43325e-12 
            414     1.34641e-11 
            422     3.48014e-11 
            430     8.65805e-11 
            441     2.91049e-10 
            451     8.30542e-10 
            460      2.06062e-9 
            470      5.43452e-9 
            480      1.37964e-8 
            490      3.37299e-8 
            500      7.95939e-8 
            506      1.80761e-7 
            512      3.25807e-7 
            520       5.9757e-7 
            530      1.24931e-6 
            540      2.52277e-6 
            550      5.03198e-6 
            560      9.74932e-6 
            570      1.84411e-5 
            580      3.39527e-5 
            590        6.207e-5 
            600     0.000110528 
            610     0.000193518 
            620     0.000332049 
            630     0.000561269 
            640     0.000932074 
            650      0.00152778 
            658       0.0022409 
            665      0.00310499 
            675      0.00490176 
            685      0.00764105 
            695       0.0117599 
            705       0.0178191 
            716       0.0278629 
            726       0.0412877 
            735       0.0582899 
            745       0.0846008 
            755        0.121539 
            765        0.172888 
            775        0.243603 
            785        0.340443 
            795        0.470786 
            805        0.646113 
            815        0.879966 
            825         1.18843 
            835         1.59234 
            845         2.11937 
            855         2.79919 
            865          3.6716 
            875         4.78115 
            885         6.19285 
            895         7.96798 
            905         10.1852 
            915         305.303 
            925         2057.29 
            935          3004.1 
            945         4358.21 
            955         6278.24 
            965         8013.38 
            975         7678.64 
            985           10525 
            995         11299.3 
           1005         14202.3 
           1015         16644.5 
           1025         15106.1 
           1035         21394.5 
           1045         25244.8 
           1055         28972.3 
           1065         31345.4 
           1075         37111.4 
           1085         42149.1 
           1095         44908.1 
           1105         76893.2 
           1115          271139 
           1125          458609 
           1135          795526 
           1145          792439 
           1155      1.09255e+6 
           1165       1.3019e+6 
           1175      1.15775e+6 
           1185          914952 
           1195          211822 
           1205          264718 
           1215         58338.2 
           1225          269023 
           1235          599615 
           1245      2.40955e+6 
           1255        2.348e+7 
           1265      2.01962e+7 
           1275       5.1526e+7 
           1285      8.34601e+7 
           1295      7.15483e+7 
           1305      2.32361e+7 
           1315      7.61879e+7 
           1325      1.00612e+8 
           1335      8.13206e+7 
           1345      1.18802e+8 
           1355      1.12143e+8 
           1365      9.43287e+7 
           1375       1.0811e+8 
           1385      1.00267e+8 
           1395      1.06906e+8 
           1405      1.09952e+8 
           1415      1.05582e+8 
           1425      1.27741e+8 
           1435      1.09439e+8 
           1442      1.32662e+8 
           1447      1.47406e+8 
           1455       1.4698e+8 
           1465      1.32693e+8 
           1475      1.26422e+8 
           1485      1.44125e+8 
           1495      1.63994e+8 
           1505      1.64151e+8 
           1512      1.33778e+8 
           1517      1.43529e+8 
           1525      1.20552e+8 
           1535      1.08955e+8 
           1545      1.49312e+8 
           1555       1.1205e+8 
           1565      9.60041e+7 
           1575      1.24976e+8 
           1585      1.49642e+8 
           1595      1.63529e+8 
           1605      1.51846e+8 
           1615       1.4922e+8 
           1625      1.27955e+8 
           1635      1.34434e+8 
           1645      1.51261e+8 
           1655      1.19946e+8 
           1665      1.46426e+8 
           1672      8.32028e+7 
           1677      1.41686e+8 
           1685      1.62914e+8 
           1695      1.44698e+8 
           1705      1.33649e+8 
           1715      1.29187e+8 
           1725      1.26719e+8 
           1735      1.42183e+8 
           1745      1.39853e+8 
           1755      1.62506e+8 
           1765      1.25902e+8 
           1775      1.45652e+8 
           1785      1.45727e+8 
           1795      1.71012e+8 
           1805      1.58646e+8 
           1815      1.56285e+8 
           1825      1.48017e+8 
           1835      1.40791e+8 
           1845      1.26221e+8 
           1855       1.3683e+8 
           1865      1.39028e+8 
           1875      1.47461e+8 
           1885        1.422e+8 
           1895      1.43893e+8 
           1905      1.34247e+8 
           1915      1.42998e+8 
           1925      1.45949e+8 
           1935      1.39102e+8 
           1945      1.47932e+8 
           1955      1.45072e+8 
           1967      1.56599e+8 
           1976      1.57211e+8 
           1984      1.48596e+8 
           1995      1.42134e+8 
           2005      1.40457e+8 
           2015      1.29649e+8 
           2025      1.34316e+8 
           2035      1.36092e+8 
           2045      1.44556e+8 
           2055      1.34598e+8 
           2065      1.31999e+8 
           2074      1.43467e+8 
           2078      1.46806e+8 
           2085      1.43327e+8 
           2095      1.36056e+8 
           2105      1.30201e+8 
           2115      1.29975e+8 
           2125       1.3366e+8 
           2135      1.08765e+8 
           2145      1.24203e+8 
           2155      1.28212e+8 
           2165      1.19773e+8 
           2175      1.17169e+8 
           2185      1.17069e+8 
           2195      1.24997e+8 
           2205      1.18055e+8 
           2215      1.06164e+8 
           2225      1.01948e+8 
           2235      1.16053e+8 
           2245      1.02853e+8 
           2255      9.76676e+7 
           2265      1.01323e+8 
           2275       1.0775e+8 
           2285      1.11932e+8 
           2295      1.04972e+8 
           2305      1.00014e+8 
           2315      9.42311e+7 
           2325      9.29902e+7 
           2335      8.43668e+7 
           2345      7.72638e+7 
           2355      9.26875e+7 
           2365      7.69055e+7 
           2375      8.36126e+7 
           2385      7.09519e+7 
           2395      8.15127e+7 
           2405      7.60946e+7 
           2415      8.00196e+7 
           2425      8.83298e+7 
           2435      8.37109e+7 
           2445      9.08735e+7 
           2455      8.69531e+7 
           2465       8.6621e+7 
           2475      8.26014e+7 
           2485      8.81301e+7 
           2495       8.4036e+7 
           2505      9.60281e+7 
           2513      8.22221e+7 
           2518      8.51817e+7 
           2525      7.73771e+7 
           2535      7.72016e+7 
           2545      7.59098e+7 
           2555      8.28363e+7 
           2565      8.10293e+7 
           2575      8.88782e+7 
           2585      8.80622e+7 
           2595       8.4761e+7 
           2605      8.03253e+7 
           2615      7.91888e+7 
           2625       8.6618e+7 
           2635      8.69711e+7 
           2645      9.98846e+7 
           2655      9.81182e+7 
           2665      8.62917e+7 
           2675      9.22235e+7 
           2685      8.94162e+7 
           2695      8.65806e+7 
           2705      8.97928e+7 
           2715      8.42926e+7 
           2725      8.56689e+7 
           2735      9.33334e+7 
           2745      7.50607e+7 
           2755      7.61249e+7 
           2765      7.87043e+7 
           2775      8.70517e+7 
           2785      8.40962e+7 
           2795      5.77197e+7 
           2805      6.79001e+7 
           2815      8.84557e+7 
           2825      9.18761e+7 
           2835      8.65652e+7 
           2845      8.28905e+7 
           2855      7.96948e+7 
           2865      8.70979e+7 
           2875      8.35624e+7 
           2885      8.51522e+7 
           2895      8.03711e+7 
           2910      9.13429e+7 
           2930      8.66992e+7 
           2950      8.64367e+7 
           2970      8.83259e+7 
           2990      8.87875e+7 
           3010      9.04806e+7 
           3030      8.86007e+7 
           3050      8.71469e+7 
           3070      8.60311e+7 
           3090      8.73831e+7 
           3110      8.43309e+7 
           3130      8.37104e+7 
           3150      8.51642e+7 
           3170      8.41904e+7 
           3190      8.04096e+7 
           3210      8.21419e+7 
           3230      8.00192e+7 
           3250       8.0753e+7 
           3270      8.06032e+7 
           3290      8.10392e+7 
           3310       8.1201e+7 
           3330      7.90123e+7 
           3350      7.76353e+7 
           3370      7.72805e+7 
           3390      7.65713e+7 
           3410      7.77686e+7 
           3430      7.72966e+7 
           3450      7.64663e+7 
           3470      7.51869e+7 
           3490       7.4538e+7 
           3510      7.52688e+7 
           3530      7.52256e+7 
           3550      7.50619e+7 
           3570      7.33246e+7 
           3590       7.2773e+7 
           3610      7.23273e+7 
           3630      7.18842e+7 
           3640      7.13249e+7 
           3650      7.30158e+7 
           3670      7.24823e+7 
           3690      6.96706e+7 
           3710      7.04132e+7 
           3730      7.15095e+7 
           3750      9.13125e+7 
           3770      9.82265e+7 
           3790      1.24346e+8 
           3810        1.448e+8 
           3830       1.1265e+8 
           3850       1.5654e+8 
           3870      1.76866e+8 
           3890      9.81153e+7 
           3910      1.73761e+8 
           3930      1.75768e+8 
           3950      1.73113e+8 
           3970      9.26113e+7 
           3990      1.66027e+8 
           4010      1.78278e+8 
           4030      1.75858e+8 
           4050      1.74886e+8 
           4070      1.67595e+8 
           4090      1.33539e+8 
           4110      1.00473e+8 
           4130      1.57025e+8 
           4150      1.63324e+8 
           4170      1.60704e+8 
           4190      1.58871e+8 
           4210      1.57187e+8 
           4230      1.54017e+8 
           4250      1.51365e+8 
           4270      1.47424e+8 
           4290        1.475e+8 
           4310      1.39259e+8 
           4330        1.063e+8 
           4350      8.98536e+7 
           4370      1.35023e+8 
           4390      1.35184e+8 
           4410      1.34971e+8 
           4430      1.32982e+8 
           4450      1.33473e+8 
           4470      1.31208e+8 
           4490      1.27641e+8 
           4510      1.28324e+8 
           4530      1.25767e+8 
           4550      1.22581e+8 
           4570       1.2374e+8 
           4590      1.20443e+8 
           4610      1.21547e+8 
           4630      1.17304e+8 
           4650      1.18184e+8 
           4670      1.16089e+8 
           4690      1.13446e+8 
           4710      1.09698e+8 
           4730      1.11788e+8 
           4750      1.10251e+8 
           4770       1.0906e+8 
           4790      1.07452e+8 
           4810      1.04864e+8 
           4830      1.00675e+8 
           4850        7.873e+7 
           4870      6.30771e+7 
           4890      9.50894e+7 
           4910      9.81277e+7 
           4930      9.67395e+7 
           4950      9.66927e+7 
           4970      9.61693e+7 
           4990      9.43953e+7 
           5010      9.14803e+7 
           5030       9.1277e+7 
           5050      8.94563e+7 
           5070      8.96987e+7 
           5090      8.86186e+7 
           5110      8.73362e+7 
           5130      8.64776e+7 
           5150      8.46311e+7 
           5170      8.29529e+7 
           5190      8.22505e+7 
           5210      8.17229e+7 
           5230      8.00097e+7 
           5250      8.03074e+7 
           5270      7.77498e+7 
           5290      7.86573e+7 
           5310      7.66363e+7 
           5330      7.57798e+7 
           5350       7.6104e+7 
           5370      7.49412e+7 
           5390      7.40593e+7 
           5410      7.27172e+7 
           5430      7.22183e+7 
           5450      7.18491e+7 
           5470      7.08965e+7 
           5490      7.02034e+7 
           5510      6.93113e+7 
           5530      6.85497e+7 
           5550      6.79685e+7 
           5570      6.71509e+7 
           5590      6.65073e+7 
           5610      6.59705e+7 
           5630      6.52317e+7 
           5650       6.4229e+7 
           5670      6.35833e+7 
           5690      6.30487e+7 
           5710      6.24021e+7 
           5730      6.17791e+7 
           5750        6.099e+7 
           5770      6.03699e+7 
           5790      5.95895e+7 
           5810      5.90259e+7 
           5830       5.8411e+7 
           5850      5.78252e+7 
           5870      5.70601e+7 
           5890      5.60901e+7 
           5910      5.59301e+7 
           5930      5.53981e+7 
           5950      5.45198e+7 
           5970      5.41138e+7 
           5990      5.33835e+7 
           6010       5.2936e+7 
           6030      5.25046e+7 
           6050      5.18565e+7 
           6070      5.13916e+7 
           6090      5.08514e+7 
           6110      5.03253e+7 
           6130      4.97468e+7 
           6150      4.84268e+7 
           6170      4.86873e+7 
           6190      4.83073e+7 
           6210       4.7811e+7 
           6230      4.72502e+7 
           6250      4.63079e+7 
           6270      4.63762e+7 
           6290      4.59027e+7 
           6310      4.52895e+7 
           6330      4.49446e+7 
           6350      4.38715e+7 
           6370      4.36679e+7 
           6390      4.35666e+7 
           6410      4.30302e+7 
           6430      4.26973e+7 
           6450      4.18054e+7 
           6470      4.18137e+7 
           6490      4.10886e+7 
           6510      4.05681e+7 
           6530      3.94117e+7 
           6550       3.4125e+7 
           6570      2.73578e+7 
           6590      3.72062e+7 
           6610      3.85075e+7 
           6630      3.84632e+7 
           6650      3.82305e+7 
           6670       3.7883e+7 
           6690      3.75895e+7 
           6710      3.72746e+7 
           6730      3.68196e+7 
           6750      3.65298e+7 
           6770      3.62387e+7 
           6790      3.58711e+7 
           6810      3.55462e+7 
           6830      3.51574e+7 
           6850      3.48528e+7 
           6870      3.45448e+7 
           6890      3.42359e+7 
           6910      3.38967e+7 
           6930      3.35508e+7 
           6950      3.32753e+7 
           6970      3.29597e+7 
           6990      3.26873e+7 
           7010      3.22205e+7 
           7030      3.20641e+7 
           7050      3.17255e+7 
           7070       3.1483e+7 
           7090      3.12187e+7 
           7110      3.06386e+7 
           7130      3.05715e+7 
           7150      3.03027e+7 
           7170      3.00665e+7 
           7190      2.97959e+7 
           7210      2.95424e+7 
           7230      2.92394e+7 
           7250      2.89314e+7 
           7270      2.87582e+7 
           7290       2.8468e+7 
           7310      2.82102e+7 
           7330      2.79899e+7 
           7350      2.77646e+7 
           7370      2.75267e+7 
           7390       2.7262e+7 
           7410      2.69943e+7 
           7430       2.6613e+7 
           7450      2.64574e+7 
           7470      2.61161e+7 
           7490      2.59983e+7 
           7510      2.57972e+7 
           7530      2.56358e+7 
           7550      2.54327e+7 
           7570      2.52072e+7 
           7590      2.49914e+7 
           7610      2.47958e+7 
           7630      2.45677e+7 
           7650      2.43312e+7 
           7670      2.41161e+7 
           7690      2.39214e+7 
           7710      2.37037e+7 
           7730      2.35377e+7 
           7750      2.33367e+7 
           7770      2.26145e+7 
           7790      2.29511e+7 
           7810      2.27683e+7 
           7830      2.25476e+7 
           7850      2.22923e+7 
           7870      2.20417e+7 
           7890      2.17878e+7 
           7910      2.17549e+7 
           7930      2.16249e+7 
           7950      2.12653e+7 
           7970      2.12957e+7 
           7990      2.07761e+7 
           8010      2.09379e+7 
           8030      2.07549e+7 
           8050      2.05961e+7 
           8070      2.04195e+7 
           8090      2.02582e+7 
           8110      2.00862e+7 
           8130      1.99454e+7 
           8150       1.9788e+7 
           8170       1.9632e+7 
           8190       1.9315e+7 
           8210      1.92092e+7 
           8230      1.90003e+7 
           8250      1.90046e+7 
           8270      1.90108e+7 
           8290      1.88178e+7 
           8310       1.8717e+7 
           8330      1.84795e+7 
           8350      1.84278e+7 
           8370      1.83022e+7 
           8390      1.81337e+7 
           8410      1.79416e+7 
           8430      1.77601e+7 
           8450      1.73611e+7 
           8470      1.72294e+7 
           8490      1.73981e+7 
           8510      1.65803e+7 
           8530      1.73352e+7 
           8550      1.56469e+7 
           8570      1.74385e+7 
           8590      1.61024e+7 
           8610       1.5704e+7 
           8630      1.75261e+7 
           8650      1.66819e+7 
           8670      1.38004e+7 
           8690      1.69487e+7 
           8710       1.7743e+7 
           8730      1.68892e+7 
           8750      1.31388e+7 
           8770       1.5965e+7 
           8790      1.76438e+7 
           8810      1.77536e+7 
           8830      1.71176e+7 
           8850      1.49879e+7 
           8870      1.26004e+7 
           8890      1.62242e+7 
           8910      1.70484e+7 
           8930      1.71091e+7 
           8950      1.71348e+7 
           8970      1.67958e+7 
           8990       1.5828e+7 
           9010      1.23172e+7 
           9030       1.3512e+7 
           9050      1.57987e+7 
           9070      1.59512e+7 
           9090      1.59075e+7 
           9110      1.60806e+7 
           9130      1.60337e+7 
           9150      1.59619e+7 
           9170      1.56993e+7 
           9190      1.51921e+7 
