# Kurucz ODFNEW /NOVER (2003)
# teff = 9250 K (value for the effective temperature for the model. Temperatures are given in K)
# logg = 3 log(cm/s2) (value for Log(G) for the model.)
# meta = -1.5  (value for the Metallicity for the model.)
# lh = 1.25  (l/Hp where l is the  mixing length of the convective element and Hp is the pressure scale height)
# vtur = 2 km/s (Microturbulence velocity)
# alpha = 0  (Alpha)
#
# column 1: WAVELENGTH (ANGSTROM), Wavelength in Angstrom
# column 2: FLUX (ERG/CM2/S/A), Flux in erg/cm2/s/A
          273.5     2.20441e-23 
          278.5     1.33595e-22 
            284     6.47469e-22 
            290     3.27786e-21 
            296      1.5456e-20 
            301      5.3648e-20 
            308     2.85597e-19 
            318     2.73077e-18 
            328       2.268e-17 
            338     1.65585e-16 
            348     1.07534e-15 
            357     5.28017e-15 
            366     2.39279e-14 
            375     1.00566e-13 
            385     4.57108e-13 
            395     1.91865e-12 
            405     7.48475e-12 
            414     2.40396e-11 
            422     6.49319e-11 
            430     1.68766e-10 
            441     5.91746e-10 
            451      1.75115e-9 
            460      4.45773e-9 
            470      1.20489e-8 
            480      3.11799e-8 
            490      7.74876e-8 
            500      1.85291e-7 
            506      3.47587e-7 
            512      5.97665e-7 
            520      1.12718e-6 
            530      2.43057e-6 
            540      5.05058e-6 
            550      1.02675e-5 
            560      2.02612e-5 
            570      3.89855e-5 
            580      7.29605e-5 
            590     0.000134512 
            600     0.000241777 
            610     0.000425762 
            620     0.000735299 
            630      0.00124665 
            640      0.00207661 
            650       0.0034018 
            658      0.00499073 
            665      0.00692284 
            675       0.0109093 
            685       0.0169487 
            695       0.0259735 
            705       0.0392863 
            716       0.0610498 
            726       0.0900089 
            735        0.126403 
            745        0.182437 
            755        0.260547 
            765        0.368351 
            775         0.51572 
            785        0.715341 
            795        0.983213 
            805         1.33995 
            815         1.81098 
            825         2.42795 
            835         3.22997 
            845         4.26581 
            855         5.59303 
            865         7.28359 
            875         9.42137 
            885         12.1086 
            895         15.4656 
            905          19.633 
            915           103.8 
            925         666.918 
            935         1136.49 
            945         2091.82 
            955         3416.91 
            965         4494.58 
            975         3078.08 
            985         11353.2 
            995         58680.8 
           1005         33229.7 
           1015         9432.27 
           1025         5468.29 
           1035         12567.3 
           1045           58302 
           1055          372829 
           1065          696180 
           1075      1.10294e+6 
           1085      1.37149e+6 
           1095      1.39475e+6 
           1105      7.03985e+6 
           1115      2.48736e+7 
           1125      2.73159e+7 
           1135      2.80044e+7 
           1145      2.28766e+7 
           1155      1.66913e+7 
           1165      1.08292e+7 
           1175      3.98361e+6 
           1185        5.833e+6 
           1195         54218.5 
           1205         37755.3 
           1215         11460.9 
           1225         41121.7 
           1235         80879.9 
           1245          271387 
           1255      3.13314e+6 
           1265      8.56068e+6 
           1275      1.88193e+7 
           1285      3.16058e+7 
           1295       3.7742e+7 
           1305      3.48453e+7 
           1315      4.90338e+7 
           1325      5.60816e+7 
           1335      5.90093e+7 
           1345      6.74459e+7 
           1355      6.53748e+7 
           1365      6.30839e+7 
           1375      6.60593e+7 
           1385      6.64207e+7 
           1395      6.70206e+7 
           1405      7.30815e+7 
           1415      7.42856e+7 
           1425      7.68922e+7 
           1435      7.23227e+7 
           1442      7.87859e+7 
           1447      8.11554e+7 
           1455      8.22549e+7 
           1465      7.87942e+7 
           1475      7.78437e+7 
           1485      7.89924e+7 
           1495      8.09529e+7 
           1505      8.21993e+7 
           1512       8.0237e+7 
           1517       8.2672e+7 
           1525      8.01238e+7 
           1535        7.908e+7 
           1545      8.15318e+7 
           1555      7.67785e+7 
           1565      7.08368e+7 
           1575      7.41469e+7 
           1585      7.76125e+7 
           1595      8.04363e+7 
           1605      7.64946e+7 
           1615      7.67838e+7 
           1625      7.22978e+7 
           1635      7.41163e+7 
           1645      7.55638e+7 
           1655       6.7603e+7 
           1665      7.53207e+7 
           1672      6.62393e+7 
           1677      7.11817e+7 
           1685      7.51674e+7 
           1695      7.14573e+7 
           1705      7.02782e+7 
           1715      7.16269e+7 
           1725      7.02532e+7 
           1735       7.2413e+7 
           1745      7.08283e+7 
           1755      7.31497e+7 
           1765      6.81039e+7 
           1775      7.19638e+7 
           1785      7.06939e+7 
           1795      7.33366e+7 
           1805      7.10404e+7 
           1815      7.03523e+7 
           1825      6.83958e+7 
           1835      6.82006e+7 
           1845      6.57202e+7 
           1855      6.67696e+7 
           1865      6.67736e+7 
           1875      6.80382e+7 
           1885      6.80487e+7 
           1895      6.69695e+7 
           1905      6.53412e+7 
           1915      6.55913e+7 
           1925      6.61244e+7 
           1935      6.49548e+7 
           1945      6.69206e+7 
           1955      6.62702e+7 
           1967      6.64174e+7 
           1976      6.51692e+7 
           1984      6.47098e+7 
           1995      6.39111e+7 
           2005      6.28966e+7 
           2015      6.08885e+7 
           2025      6.11063e+7 
           2035      6.21129e+7 
           2045      6.21699e+7 
           2055      6.02496e+7 
           2065      5.99537e+7 
           2074      6.13017e+7 
           2078      6.18145e+7 
           2085       6.1726e+7 
           2095      6.03485e+7 
           2105       6.0239e+7 
           2115      5.97936e+7 
           2125      5.96585e+7 
           2135      5.59479e+7 
           2145      5.88681e+7 
           2155      5.84374e+7 
           2165       5.6657e+7 
           2175      5.62806e+7 
           2185      5.61982e+7 
           2195      5.82559e+7 
           2205      5.64417e+7 
           2215      5.38416e+7 
           2225      5.35155e+7 
           2235      5.65755e+7 
           2245      5.38646e+7 
           2255      5.27433e+7 
           2265      5.23947e+7 
           2275      5.45802e+7 
           2285       5.5012e+7 
           2295       5.3063e+7 
           2305      5.29929e+7 
           2315      5.23547e+7 
           2325      5.26231e+7 
           2335      5.17325e+7 
           2345      4.86362e+7 
           2355      5.14553e+7 
           2365      4.88624e+7 
           2375      5.04387e+7 
           2385      4.66178e+7 
           2395       4.9389e+7 
           2405      4.82575e+7 
           2415      4.87184e+7 
           2425       4.9814e+7 
           2435      4.83052e+7 
           2445       4.9751e+7 
           2455      4.89677e+7 
           2465      4.82625e+7 
           2475      4.71119e+7 
           2485        4.879e+7 
           2495      4.77056e+7 
           2505      4.96434e+7 
           2513      4.79182e+7 
           2518      4.80234e+7 
           2525      4.59352e+7 
           2535      4.56955e+7 
           2545      4.57558e+7 
           2555      4.74251e+7 
           2565       4.7087e+7 
           2575       4.8527e+7 
           2585      4.85988e+7 
           2595      4.83609e+7 
           2605      4.71904e+7 
           2615      4.68924e+7 
           2625      4.72892e+7 
           2635      4.76434e+7 
           2645      4.99913e+7 
           2655      4.95556e+7 
           2665      4.79925e+7 
           2675      4.86762e+7 
           2685       4.8979e+7 
           2695      4.78636e+7 
           2705      4.79465e+7 
           2715      4.69004e+7 
           2725      4.69251e+7 
           2735      4.81993e+7 
           2745      4.49339e+7 
           2755        4.506e+7 
           2765       4.6172e+7 
           2775      4.74836e+7 
           2785      4.72219e+7 
           2795      4.29775e+7 
           2805      4.50743e+7 
           2815      4.77221e+7 
           2825      4.73471e+7 
           2835       4.6477e+7 
           2845      4.58046e+7 
           2855      4.50965e+7 
           2865      4.57782e+7 
           2875       4.5396e+7 
           2885        4.605e+7 
           2895      4.59167e+7 
           2910      4.69483e+7 
           2930      4.58839e+7 
           2950      4.56837e+7 
           2970      4.56941e+7 
           2990      4.55736e+7 
           3010      4.58224e+7 
           3030      4.56832e+7 
           3050      4.53209e+7 
           3070      4.48563e+7 
           3090      4.49561e+7 
           3110      4.45784e+7 
           3130      4.41951e+7 
           3150       4.4152e+7 
           3170      4.39641e+7 
           3190      4.31776e+7 
           3210      4.34163e+7 
           3230      4.29598e+7 
           3250      4.30033e+7 
           3270      4.30356e+7 
           3290       4.2949e+7 
           3310      4.28338e+7 
           3330      4.23718e+7 
           3350      4.18909e+7 
           3370      4.18397e+7 
           3390        4.159e+7 
           3410      4.17159e+7 
           3430      4.14806e+7 
           3450      4.13524e+7 
           3470      4.10742e+7 
           3490      4.08955e+7 
           3510      4.08039e+7 
           3530      4.06603e+7 
           3550      4.04754e+7 
           3570      4.01976e+7 
           3590      4.00082e+7 
           3610      3.98205e+7 
           3630      3.96174e+7 
           3640      3.95052e+7 
           3650      3.98178e+7 
           3670      3.93962e+7 
           3690      3.81735e+7 
           3710      4.35819e+7 
           3730      4.97607e+7 
           3750      7.15418e+7 
           3770      7.73662e+7 
           3790      9.49318e+7 
           3810      1.09097e+8 
           3830      8.63384e+7 
           3850      1.18035e+8 
           3870      1.29156e+8 
           3890      7.47877e+7 
           3910      1.26554e+8 
           3930      1.28362e+8 
           3950      1.24407e+8 
           3970      7.09698e+7 
           3990      1.19036e+8 
           4010      1.24388e+8 
           4030      1.23006e+8 
           4050      1.21575e+8 
           4070       1.1838e+8 
           4090      9.82063e+7 
           4110       7.5002e+7 
           4130      1.12615e+8 
           4150      1.13626e+8 
           4170      1.12406e+8 
           4190      1.11198e+8 
           4210       1.0976e+8 
           4230      1.08131e+8 
           4250      1.06738e+8 
           4270       1.0518e+8 
           4290       1.0353e+8 
           4310      1.00436e+8 
           4330      7.98492e+7 
           4350      6.75993e+7 
           4370       9.6413e+7 
           4390      9.66449e+7 
           4410      9.59543e+7 
           4430      9.50611e+7 
           4450      9.39022e+7 
           4470      9.25529e+7 
           4490      9.08818e+7 
           4510      9.02498e+7 
           4530      8.91187e+7 
           4550      8.76946e+7 
           4570      8.69972e+7 
           4590      8.57919e+7 
           4610      8.50119e+7 
           4630      8.37641e+7 
           4650      8.29319e+7 
           4670         8.19e+7 
           4690      8.08673e+7 
           4710      7.96131e+7 
           4730      7.89564e+7 
           4750      7.80107e+7 
           4770      7.70516e+7 
           4790      7.59383e+7 
           4810      7.47512e+7 
           4830      7.26994e+7 
           4850      5.96601e+7 
           4870      4.80377e+7 
           4890       6.9291e+7 
           4910      7.03107e+7 
           4930      6.96561e+7 
           4950      6.91835e+7 
           4970      6.84463e+7 
           4990      6.76355e+7 
           5010      6.66868e+7 
           5030      6.60742e+7 
           5050      6.52387e+7 
           5070      6.45814e+7 
           5090      6.38451e+7 
           5110      6.31126e+7 
           5130      6.23953e+7 
           5150      6.16843e+7 
           5170      6.07062e+7 
           5190      6.01638e+7 
           5210      5.96264e+7 
           5230      5.88765e+7 
           5250      5.83099e+7 
           5270      5.75738e+7 
           5290      5.70248e+7 
           5310      5.63288e+7 
           5330      5.57491e+7 
           5350      5.51764e+7 
           5370      5.45572e+7 
           5390      5.39689e+7 
           5410      5.33711e+7 
           5430       5.2796e+7 
           5450      5.22405e+7 
           5470      5.16741e+7 
           5490      5.11245e+7 
           5510      5.05754e+7 
           5530      5.00254e+7 
           5550      4.95078e+7 
           5570      4.89804e+7 
           5590       4.8463e+7 
           5610      4.79541e+7 
           5630      4.74512e+7 
           5650      4.69506e+7 
           5670      4.64606e+7 
           5690      4.59786e+7 
           5710      4.55011e+7 
           5730      4.50303e+7 
           5750      4.45649e+7 
           5770       4.4106e+7 
           5790      4.36512e+7 
           5810      4.32061e+7 
           5830      4.27639e+7 
           5850      4.23289e+7 
           5870      4.18572e+7 
           5890      4.14421e+7 
           5910      4.10553e+7 
           5930      4.06428e+7 
           5950      4.02295e+7 
           5970      3.98294e+7 
           5990      3.94263e+7 
           6010      3.90392e+7 
           6030      3.86532e+7 
           6050      3.82704e+7 
           6070      3.78929e+7 
           6090      3.75205e+7 
           6110      3.71521e+7 
           6130      3.67888e+7 
           6150      3.64045e+7 
           6170      3.60729e+7 
           6190      3.57251e+7 
           6210      3.53791e+7 
           6230      3.50358e+7 
           6250      3.46827e+7 
           6270       3.4367e+7 
           6290      3.40373e+7 
           6310      3.37093e+7 
           6330      3.33904e+7 
           6350        3.303e+7 
           6370      3.27375e+7 
           6390       3.2448e+7 
           6410      3.21395e+7 
           6430      3.18396e+7 
           6450      3.15211e+7 
           6470      3.12222e+7 
           6490      3.08547e+7 
           6510      3.04654e+7 
           6530      2.98011e+7 
           6550      2.65408e+7 
           6570      2.12554e+7 
           6590      2.84082e+7 
           6610      2.89893e+7 
           6630      2.88901e+7 
           6650      2.86918e+7 
           6670      2.84777e+7 
           6690      2.82201e+7 
           6710      2.79676e+7 
           6730      2.77118e+7 
           6750      2.74635e+7 
           6770      2.72168e+7 
           6790      2.69726e+7 
           6810      2.67307e+7 
           6830      2.64912e+7 
           6850      2.62548e+7 
           6870      2.60216e+7 
           6890      2.57906e+7 
           6910      2.55626e+7 
           6930       2.5336e+7 
           6950      2.51132e+7 
           6970      2.48925e+7 
           6990      2.46747e+7 
           7010      2.44559e+7 
           7030      2.42446e+7 
           7050      2.40329e+7 
           7070      2.38233e+7 
           7090      2.36186e+7 
           7110      2.34062e+7 
           7130      2.32113e+7 
           7150      2.30116e+7 
           7170      2.28153e+7 
           7190      2.26193e+7 
           7210      2.24259e+7 
           7230      2.22342e+7 
           7250      2.20458e+7 
           7270      2.18591e+7 
           7290      2.16727e+7 
           7310      2.14894e+7 
           7330      2.13092e+7 
           7350      2.11306e+7 
           7370      2.09536e+7 
           7390      2.07783e+7 
           7410      2.06039e+7 
           7430       2.0431e+7 
           7450       2.0261e+7 
           7470      2.00899e+7 
           7490      1.99263e+7 
           7510      1.97629e+7 
           7530      1.96009e+7 
           7550      1.94404e+7 
           7570      1.92806e+7 
           7590      1.91229e+7 
           7610      1.89672e+7 
           7630      1.88122e+7 
           7650      1.86593e+7 
           7670      1.85077e+7 
           7690       1.8358e+7 
           7710      1.82084e+7 
           7730      1.80632e+7 
           7750      1.79181e+7 
           7770      1.76599e+7 
           7790      1.76321e+7 
           7810      1.74912e+7 
           7830       1.7351e+7 
           7850       1.7212e+7 
           7870      1.70698e+7 
           7890      1.69283e+7 
           7910      1.68073e+7 
           7930      1.66747e+7 
           7950      1.65403e+7 
           7970      1.64135e+7 
           7990      1.62724e+7 
           8010      1.61572e+7 
           8030      1.60312e+7 
           8050      1.59063e+7 
           8070      1.57825e+7 
           8090      1.56602e+7 
           8110      1.55389e+7 
           8130      1.54187e+7 
           8150         1.53e+7 
           8170      1.51823e+7 
           8190      1.50605e+7 
           8210      1.50068e+7 
           8230      1.48994e+7 
           8250      1.47963e+7 
           8270      1.47028e+7 
           8290      1.45985e+7 
           8310      1.44918e+7 
           8330      1.43652e+7 
           8350      1.42473e+7 
           8370      1.40836e+7 
           8390      1.39389e+7 
           8410      1.37593e+7 
           8430      1.37248e+7 
           8450      1.36383e+7 
           8470      1.30567e+7 
           8490      1.38111e+7 
           8510      1.26679e+7 
           8530      1.39423e+7 
           8550      1.20271e+7 
           8570      1.41772e+7 
           8590      1.29155e+7 
           8610      1.24968e+7 
           8630      1.44562e+7 
           8650      1.38386e+7 
           8670      1.11071e+7 
           8690      1.42802e+7 
           8710      1.47481e+7 
           8730      1.41783e+7 
           8750      1.07657e+7 
           8770      1.34072e+7 
           8790      1.45086e+7 
           8810      1.45297e+7 
           8830      1.42432e+7 
           8850      1.27157e+7 
           8870       1.0473e+7 
           8890      1.35477e+7 
           8910      1.39752e+7 
           8930      1.39585e+7 
           8950      1.38737e+7 
           8970      1.36911e+7 
           8990      1.31753e+7 
           9010      1.03389e+7 
           9030      1.14505e+7 
           9050      1.30752e+7 
           9070      1.32008e+7 
           9090      1.31291e+7 
           9110      1.30992e+7 
           9130      1.30165e+7 
           9150      1.29116e+7 
           9170      1.27787e+7 
           9190      1.25558e+7 
           9210      1.17912e+7 
