# Kurucz ODFNEW /NOVER (2003)
# teff = 22000 K (value for the effective temperature for the model. Temperatures are given in K)
# logg = 3.5 log(cm/s2) (value for Log(G) for the model.)
# meta = 0.2  (value for the Metallicity for the model.)
# lh = 1.25  (l/Hp where l is the  mixing length of the convective element and Hp is the pressure scale height)
# vtur = 2 km/s (Microturbulence velocity)
# alpha = 0  (Alpha)
#
# column 1: WAVELENGTH (ANGSTROM), Wavelength in Angstrom
# column 2: FLUX (ERG/CM2/S/A), Flux in erg/cm2/s/A
          147.2     6.58429e-18 
            151     3.40496e-17 
          155.2      1.9186e-16 
          158.8     7.89599e-16 
            162     2.64718e-15 
            166     1.13032e-14 
          170.3     5.00897e-14 
          173.4     1.41019e-13 
          176.8     4.20753e-13 
          180.2     1.20831e-12 
          181.7     1.90151e-12 
          186.1     6.92659e-12 
            191     2.73927e-11 
          193.9     5.99195e-11 
          198.4     1.93463e-10 
          201.8     4.53954e-10 
            205     9.88595e-10 
          210.5      3.57564e-9 
          216.2      1.26859e-8 
          219.8      2.73236e-8 
            223      5.29689e-8 
          226.8      1.13557e-7 
            230      4.71118e-6 
            234      1.15635e-5 
            240      3.10782e-5 
          246.5      8.59886e-5 
          252.4     0.000209648 
          256.8     0.000379864 
            260     0.000638991 
            264      0.00108896 
          268.5      0.00195513 
          273.5      0.00364656 
          278.5      0.00671983 
            284        0.013317 
            290        0.025924 
            296       0.0493099 
            301       0.0820978 
            308        0.167166 
            318        0.443064 
            328         1.04201 
            338         2.44803 
            348         5.31852 
            357         14.8089 
            366         28.5733 
            375         49.2206 
            385         90.3337 
            395         165.044 
            405         281.241 
            414         451.602 
            422          668.57 
            430         999.505 
            441         1650.45 
            451         2511.15 
            460         3602.07 
            470         5412.35 
            480         7873.71 
            490         11407.3 
            500         16122.5 
            506           97056 
            512      1.21615e+6 
            520      1.46192e+6 
            530      1.87131e+6 
            540      2.10612e+6 
            550      3.21758e+6 
            560      3.87866e+6 
            570      4.90687e+6 
            580      4.74921e+6 
            590      6.56154e+6 
            600      7.87051e+6 
            610       9.6677e+6 
            620      1.08373e+7 
            630      1.19957e+7 
            640      1.15815e+7 
            650      8.65559e+6 
            658      1.42934e+7 
            665      1.74639e+7 
            675       1.8928e+7 
            685      1.99747e+7 
            695      2.60577e+7 
            705      2.72838e+7 
            716      3.12543e+7 
            726      3.31567e+7 
            735       3.5098e+7 
            745      4.08241e+7 
            755      4.46649e+7 
            765        4.903e+7 
            775      5.35421e+7 
            785      5.81425e+7 
            795      6.13711e+7 
            805      6.48729e+7 
            815      6.82137e+7 
            825      7.55036e+7 
            835      6.89079e+7 
            845      8.05191e+7 
            855       8.3795e+7 
            865      9.08763e+7 
            875      9.84454e+7 
            885      1.08249e+8 
            895      1.14859e+8 
            905      1.13084e+8 
            915      1.98996e+8 
            925      2.02466e+9 
            935      5.02464e+9 
            945      9.39013e+9 
            955     1.22178e+10 
            965     1.25472e+10 
            975      1.74252e+9 
            985      8.87633e+9 
            995     1.04838e+10 
           1005     1.38517e+10 
           1015     1.41257e+10 
           1025      7.93064e+9 
           1035      9.82175e+9 
           1045     1.76559e+10 
           1055     1.60853e+10 
           1065     1.22346e+10 
           1075     1.50141e+10 
           1085     1.27984e+10 
           1095     1.52747e+10 
           1105     1.31948e+10 
           1115     1.20435e+10 
           1125      9.63088e+9 
           1135     1.40775e+10 
           1145     1.25965e+10 
           1155     1.31525e+10 
           1165     1.30237e+10 
           1175      7.03265e+9 
           1185     1.26026e+10 
           1195      1.0739e+10 
           1205      5.28087e+9 
           1215      5.80677e+9 
           1225     1.06972e+10 
           1235     1.28588e+10 
           1245     1.24537e+10 
           1255     1.22556e+10 
           1265     1.22709e+10 
           1275      1.2815e+10 
           1285     1.27804e+10 
           1295      7.44305e+9 
           1305      8.18462e+9 
           1315     1.22773e+10 
           1325     1.13101e+10 
           1335     1.04031e+10 
           1345     1.14004e+10 
           1355     1.10606e+10 
           1365      9.75334e+9 
           1375      9.56258e+9 
           1385      9.28456e+9 
           1395      6.43374e+9 
           1405      7.16273e+9 
           1415        7.984e+9 
           1425      8.14042e+9 
           1435      8.45216e+9 
           1442      8.72613e+9 
           1447      8.53278e+9 
           1455      8.24133e+9 
           1465      7.40478e+9 
           1475      7.70991e+9 
           1485      7.62487e+9 
           1495      7.45343e+9 
           1505      6.64151e+9 
           1512       5.7694e+9 
           1517      6.04279e+9 
           1525      6.35327e+9 
           1535      5.26651e+9 
           1545      5.14158e+9 
           1555       5.0375e+9 
           1565       5.4763e+9 
           1575      5.88886e+9 
           1585      6.00599e+9 
           1595      5.89345e+9 
           1605      6.09371e+9 
           1615       6.0273e+9 
           1625      5.82095e+9 
           1635      6.31014e+9 
           1645      6.29227e+9 
           1655      6.12967e+9 
           1665      6.40918e+9 
           1672       6.0694e+9 
           1677       6.5869e+9 
           1685      6.48311e+9 
           1695      6.01582e+9 
           1705      5.84956e+9 
           1715      5.43584e+9 
           1725      5.40363e+9 
           1735      5.73913e+9 
           1745      5.52557e+9 
           1755      5.63145e+9 
           1765      5.48679e+9 
           1775      5.12896e+9 
           1785      5.28424e+9 
           1795      5.55993e+9 
           1805      5.65275e+9 
           1815      4.81744e+9 
           1825      5.14382e+9 
           1835      4.92826e+9 
           1845      4.43893e+9 
           1855      4.37434e+9 
           1865      4.47107e+9 
           1875      4.90668e+9 
           1885      4.25191e+9 
           1895      3.91687e+9 
           1905      4.39708e+9 
           1915       3.9905e+9 
           1925      3.80336e+9 
           1935      4.12224e+9 
           1945      4.18542e+9 
           1955      3.73218e+9 
           1967      4.18648e+9 
           1976       4.3495e+9 
           1984      4.01704e+9 
           1995       3.9243e+9 
           2005      4.17942e+9 
           2015      4.05917e+9 
           2025      4.24767e+9 
           2035       3.7902e+9 
           2045      3.93996e+9 
           2055      3.78618e+9 
           2065      3.74854e+9 
           2074      4.05274e+9 
           2078      3.50732e+9 
           2085      3.81927e+9 
           2095      3.57895e+9 
           2105       3.7098e+9 
           2115      3.74908e+9 
           2125      3.77428e+9 
           2135      3.70727e+9 
           2145      3.48266e+9 
           2155      3.68185e+9 
           2165      3.68819e+9 
           2175      3.65156e+9 
           2185      3.46987e+9 
           2195      3.57281e+9 
           2205       3.5559e+9 
           2215      3.46773e+9 
           2225      3.36579e+9 
           2235      3.35436e+9 
           2245      3.39421e+9 
           2255      3.24467e+9 
           2265      3.33453e+9 
           2275      3.28636e+9 
           2285      3.30975e+9 
           2295      2.99637e+9 
           2305      3.17875e+9 
           2315      3.05202e+9 
           2325      3.01293e+9 
           2335      2.87973e+9 
           2345      2.90777e+9 
           2355      2.92436e+9 
           2365      2.88129e+9 
           2375      2.84005e+9 
           2385      2.80556e+9 
           2395      2.81068e+9 
           2405      2.72027e+9 
           2415      2.73086e+9 
           2425       2.7358e+9 
           2435      2.63154e+9 
           2445      2.66986e+9 
           2455      2.68247e+9 
           2465      2.61233e+9 
           2475      2.56771e+9 
           2485      2.54385e+9 
           2495      2.24094e+9 
           2505       2.4771e+9 
           2513      2.34729e+9 
           2518      2.46359e+9 
           2525      2.40144e+9 
           2535      2.36846e+9 
           2545      2.27439e+9 
           2555      2.34434e+9 
           2565      2.30754e+9 
           2575      2.33743e+9 
           2585      2.30343e+9 
           2595      2.28409e+9 
           2605      2.26831e+9 
           2615      2.23507e+9 
           2625      2.21977e+9 
           2635      2.20604e+9 
           2645      2.19877e+9 
           2655      2.19816e+9 
           2665      2.09375e+9 
           2675      2.12287e+9 
           2685      2.10975e+9 
           2695      2.03183e+9 
           2705      1.99233e+9 
           2715      1.99521e+9 
           2725      1.99094e+9 
           2735      1.98895e+9 
           2745      1.91374e+9 
           2755      1.91352e+9 
           2765      1.90355e+9 
           2775      1.92674e+9 
           2785      1.89326e+9 
           2795      1.82148e+9 
           2805       1.8473e+9 
           2815      1.84932e+9 
           2825      1.82685e+9 
           2835       1.7418e+9 
           2845      1.76398e+9 
           2855      1.73939e+9 
           2865      1.75362e+9 
           2875      1.73228e+9 
           2885      1.71549e+9 
           2895      1.68514e+9 
           2910      1.65932e+9 
           2930      1.63459e+9 
           2950      1.58506e+9 
           2970      1.56715e+9 
           2990      1.53383e+9 
           3010      1.48087e+9 
           3030      1.48338e+9 
           3050      1.45707e+9 
           3070      1.43387e+9 
           3090      1.38025e+9 
           3110      1.37241e+9 
           3130      1.34293e+9 
           3150      1.32183e+9 
           3170      1.28574e+9 
           3190       1.2596e+9 
           3210      1.24542e+9 
           3230      1.21856e+9 
           3250      1.20075e+9 
           3270      1.17515e+9 
           3290      1.15235e+9 
           3310      1.13344e+9 
           3330      1.11009e+9 
           3350      1.09046e+9 
           3370      1.07002e+9 
           3390       1.0539e+9 
           3410      1.03548e+9 
           3430      1.01101e+9 
           3450      9.89767e+8 
           3470      9.73854e+8 
           3490      9.55425e+8 
           3510      9.41694e+8 
           3530      9.30055e+8 
           3550      9.13657e+8 
           3570      9.01231e+8 
           3590      8.74322e+8 
           3610      8.58677e+8 
           3630      8.49299e+8 
           3640      8.48847e+8 
           3650      8.28762e+8 
           3670       8.2009e+8 
           3690      7.97252e+8 
           3710      7.75131e+8 
           3730      7.58501e+8 
           3750      8.26166e+8 
           3770      8.26224e+8 
           3790      8.56343e+8 
           3810      8.88225e+8 
           3830      7.83769e+8 
           3850      8.92713e+8 
           3870      8.77825e+8 
           3890      7.47454e+8 
           3910      8.75604e+8 
           3930      8.41567e+8 
           3950       8.3961e+8 
           3970       6.9342e+8 
           3990      8.10081e+8 
           4010      8.03028e+8 
           4030      7.62672e+8 
           4050      7.76771e+8 
           4070      7.43639e+8 
           4090      7.07782e+8 
           4110      6.35922e+8 
           4130      7.08318e+8 
           4150      7.03454e+8 
           4170      6.99669e+8 
           4190      6.93843e+8 
           4210      6.87585e+8 
           4230      6.72087e+8 
           4250      6.55368e+8 
           4270      6.36247e+8 
           4290      6.31413e+8 
           4310       6.1348e+8 
           4330      5.73446e+8 
           4350      5.27849e+8 
           4370      5.82802e+8 
           4390      5.78657e+8 
           4410      5.75455e+8 
           4430      5.68101e+8 
           4450      5.61751e+8 
           4470      5.38295e+8 
           4490      5.43601e+8 
           4510      5.40365e+8 
           4530      5.30189e+8 
           4550      5.23845e+8 
           4570      5.15067e+8 
           4590       5.0703e+8 
           4610      4.94841e+8 
           4630      4.87657e+8 
           4650      4.74987e+8 
           4670      4.74779e+8 
           4690      4.71441e+8 
           4710      4.52892e+8 
           4730       4.5237e+8 
           4750       4.4573e+8 
           4770       4.4667e+8 
           4790      4.38251e+8 
           4810      4.28818e+8 
           4830      4.22367e+8 
           4850      4.01338e+8 
           4870      3.60259e+8 
           4890      4.05685e+8 
           4910      4.01215e+8 
           4930       3.8769e+8 
           4950      3.88837e+8 
           4970      3.86034e+8 
           4990       3.7936e+8 
           5010      3.62259e+8 
           5030      3.67737e+8 
           5050      3.58183e+8 
           5070       3.5847e+8 
           5090      3.52997e+8 
           5110      3.46935e+8 
           5130       3.3828e+8 
           5150      3.35388e+8 
           5170      3.34039e+8 
           5190      3.29763e+8 
           5210      3.23058e+8 
           5230      3.20413e+8 
           5250      3.16501e+8 
           5270      3.11322e+8 
           5290      3.08246e+8 
           5310       3.0363e+8 
           5330      2.99565e+8 
           5350      2.94868e+8 
           5370      2.92336e+8 
           5390      2.88226e+8 
           5410       2.8476e+8 
           5430      2.80111e+8 
           5450      2.76537e+8 
           5470      2.72831e+8 
           5490      2.69672e+8 
           5510      2.66762e+8 
           5530       2.6268e+8 
           5550       2.6013e+8 
           5570      2.56432e+8 
           5590      2.53624e+8 
           5610      2.49951e+8 
           5630      2.47311e+8 
           5650      2.41928e+8 
           5670       2.3808e+8 
           5690      2.35118e+8 
           5710       2.3397e+8 
           5730      2.31376e+8 
           5750      2.27923e+8 
           5770      2.26256e+8 
           5790      2.23257e+8 
           5810      2.20551e+8 
           5830      2.17311e+8 
           5850      2.15035e+8 
           5870      2.06815e+8 
           5890       2.0752e+8 
           5910      2.06528e+8 
           5930       2.0368e+8 
           5950       2.0078e+8 
           5970      2.00125e+8 
           5990      1.96617e+8 
           6010      1.95144e+8 
           6030       1.9238e+8 
           6050      1.90297e+8 
           6070      1.88401e+8 
           6090      1.86099e+8 
           6110      1.83974e+8 
           6130      1.81974e+8 
           6150      1.78561e+8 
           6170      1.77128e+8 
           6190      1.75504e+8 
           6210      1.73613e+8 
           6230      1.71666e+8 
           6250      1.69074e+8 
           6270      1.67451e+8 
           6290      1.65673e+8 
           6310      1.63574e+8 
           6330      1.62025e+8 
           6350      1.59306e+8 
           6370      1.57973e+8 
           6390      1.56358e+8 
           6410       1.5466e+8 
           6430      1.53152e+8 
           6450      1.51298e+8 
           6470      1.49105e+8 
           6490      1.47543e+8 
           6510      1.46167e+8 
           6530      1.44124e+8 
           6550      1.39434e+8 
           6570      1.23662e+8 
           6590      1.37764e+8 
           6610      1.38104e+8 
           6630      1.36853e+8 
           6650      1.35366e+8 
           6670       1.3282e+8 
           6690      1.31446e+8 
           6710       1.3114e+8 
           6730      1.29439e+8 
           6750        1.284e+8 
           6770      1.27026e+8 
           6790      1.24318e+8 
           6810      1.24019e+8 
           6830      1.22769e+8 
           6850      1.21636e+8 
           6870      1.20354e+8 
           6890      1.18989e+8 
           6910       1.1767e+8 
           6930      1.16506e+8 
           6950      1.15392e+8 
           6970      1.14203e+8 
           6990      1.12965e+8 
           7010      1.11784e+8 
           7030      1.10638e+8 
           7050      1.09436e+8 
           7070      1.06511e+8 
           7090       1.0723e+8 
           7110      1.04981e+8 
           7130      1.04037e+8 
           7150      1.03912e+8 
           7170      1.02923e+8 
           7190      1.01929e+8 
           7210      1.00893e+8 
           7230      9.81085e+7 
           7250      9.86861e+7 
           7270      9.78445e+7 
           7290      9.60678e+7 
           7310      9.58813e+7 
           7330       9.4903e+7 
           7350      9.40176e+7 
           7370      9.30919e+7 
           7390       9.2161e+7 
           7410      9.12594e+7 
           7430      9.02706e+7 
           7450      8.94471e+7 
           7470      8.82329e+7 
           7490      8.76549e+7 
           7510      8.67745e+7 
           7530      8.59089e+7 
           7550      8.51768e+7 
           7570      8.43657e+7 
           7590      8.35162e+7 
           7610       8.2668e+7 
           7630      8.19181e+7 
           7650      8.11491e+7 
           7670      8.03743e+7 
           7690         7.96e+7 
           7710      7.88263e+7 
           7730      7.80659e+7 
           7750      7.73562e+7 
           7770      7.60661e+7 
           7790      7.59119e+7 
           7810      7.51345e+7 
           7830      7.44931e+7 
           7850      7.37227e+7 
           7870      7.30018e+7 
           7890      7.21117e+7 
           7910      7.16693e+7 
           7930      7.09368e+7 
           7950      7.01392e+7 
           7970      6.95801e+7 
           7990      6.87896e+7 
           8010      6.83115e+7 
           8030      6.76912e+7 
           8050      6.71111e+7 
           8070       6.6559e+7 
           8090      6.58216e+7 
           8110      6.51251e+7 
           8130      6.47937e+7 
           8150      6.41131e+7 
           8170      6.36867e+7 
           8190      6.28818e+7 
           8210      6.20951e+7 
           8230      6.15156e+7 
           8250      6.12619e+7 
           8270      6.01838e+7 
           8290      6.00856e+7 
           8310      5.95785e+7 
           8330      5.90756e+7 
           8350      5.82472e+7 
           8370      5.78348e+7 
           8390       5.7463e+7 
           8410      5.69078e+7 
           8430      5.63359e+7 
           8450      5.52886e+7 
           8470      5.51066e+7 
           8490      5.49048e+7 
           8510      5.38303e+7 
           8530       5.4215e+7 
           8550      5.20704e+7 
           8570      5.41205e+7 
