# Kurucz ODFNEW /NOVER (2003)
# teff = 33000 K (value for the effective temperature for the model. Temperatures are given in K)
# logg = 4.5 log(cm/s2) (value for Log(G) for the model.)
# meta = 0  (value for the Metallicity for the model.)
# lh = 1.25  (l/Hp where l is the  mixing length of the convective element and Hp is the pressure scale height)
# vtur = 2 km/s (Microturbulence velocity)
# alpha = 0.4  (Alpha)
#
# column 1: WAVELENGTH (ANGSTROM), Wavelength in Angstrom
# column 2: FLUX (ERG/CM2/S/A), Flux in erg/cm2/s/A
          147.2       2.9006e-6 
            151      7.88206e-6 
          155.2      2.25127e-5 
          158.8      5.30567e-5 
            162     0.000110224 
            166      0.00026487 
          170.3     0.000646967 
          173.4      0.00120615 
          176.8      0.00233426 
          180.2      0.00438624 
          181.7      0.00579057 
          186.1       0.0125191 
            191        0.028415 
          193.9       0.0452349 
          198.4       0.0910361 
          201.8        0.150856 
            205        0.239054 
          210.5         0.51146 
          216.2         1.07411 
          219.8         1.69962 
            223         2.51284 
          226.8         4.04742 
            230         1207.03 
            234          2596.5 
            240         4203.21 
          246.5         7144.95 
          252.4         11843.7 
          256.8         16057.8 
            260         25328.9 
            264           36007 
          268.5         53798.1 
          273.5         74925.6 
          278.5           96035 
            284          208641 
            290          300949 
            296          401182 
            301          551283 
            308      1.33724e+6 
            318       2.7342e+6 
            328       3.9608e+6 
            338      6.80226e+6 
            348      1.03023e+7 
            357      2.17875e+7 
            366      4.34562e+7 
            375      5.23497e+7 
            385       7.6787e+7 
            395      1.41099e+8 
            405      1.72725e+8 
            414      2.37187e+8 
            422         2.62e+8 
            430       2.9955e+8 
            441        3.665e+8 
            451      4.20624e+8 
            460      4.45256e+8 
            470      5.27182e+8 
            480       6.1024e+8 
            490      6.60649e+8 
            500      8.03172e+8 
            506      1.28204e+9 
            512      9.16099e+9 
            520      8.50957e+9 
            530      7.76232e+9 
            540      7.36547e+9 
            550      8.46763e+9 
            560     1.06728e+10 
            570     1.12674e+10 
            580     1.02812e+10 
            590     1.10281e+10 
            600      8.45517e+9 
            610     1.06661e+10 
            620     1.25387e+10 
            630     1.21875e+10 
            640     1.19255e+10 
            650     1.17727e+10 
            658      9.47036e+9 
            665     1.14435e+10 
            675     1.27557e+10 
            685     1.03667e+10 
            695     1.33291e+10 
            705     1.03281e+10 
            716     1.41798e+10 
            726     1.37547e+10 
            735     1.38376e+10 
            745     1.30994e+10 
            755     1.31275e+10 
            765     1.37019e+10 
            775     1.40995e+10 
            785     1.43814e+10 
            795     1.43891e+10 
            805     1.37373e+10 
            815     1.36677e+10 
            825      1.4504e+10 
            835     1.16014e+10 
            845     1.39237e+10 
            855     1.37916e+10 
            865     1.41891e+10 
            875     1.42415e+10 
            885      1.4465e+10 
            895     1.45556e+10 
            905     1.41101e+10 
            915      1.4805e+10 
            925     4.24971e+10 
            935      6.7699e+10 
            945     9.33233e+10 
            955     1.03771e+11 
            965     1.19347e+11 
            975     5.07933e+10 
            985     9.91229e+10 
            995     8.83465e+10 
           1005     9.13826e+10 
           1015      9.5822e+10 
           1025     7.15468e+10 
           1035      9.1539e+10 
           1045     1.05689e+11 
           1055     1.00303e+11 
           1065     8.47772e+10 
           1075     8.90687e+10 
           1085     8.20102e+10 
           1095     8.79782e+10 
           1105     8.32922e+10 
           1115     8.14322e+10 
           1125     6.33397e+10 
           1135     7.77571e+10 
           1145     7.34766e+10 
           1155     6.97021e+10 
           1165     6.89603e+10 
           1175     4.71463e+10 
           1185     6.28989e+10 
           1195      6.0215e+10 
           1205     5.64332e+10 
           1215       4.333e+10 
           1225     5.58834e+10 
           1235     5.95984e+10 
           1245     5.74029e+10 
           1255     5.71328e+10 
           1265     5.79493e+10 
           1275     5.91435e+10 
           1285     5.87216e+10 
           1295      5.3294e+10 
           1305     5.37014e+10 
           1315     5.67352e+10 
           1325     5.43928e+10 
           1335     5.28242e+10 
           1345     5.19084e+10 
           1355     5.12969e+10 
           1365     4.88051e+10 
           1375     4.74383e+10 
           1385     4.56638e+10 
           1395     3.34658e+10 
           1405     3.53938e+10 
           1415     4.32438e+10 
           1425     3.91121e+10 
           1435     4.13625e+10 
           1442     4.11793e+10 
           1447     4.08449e+10 
           1455      3.8895e+10 
           1465     3.78147e+10 
           1475      3.7882e+10 
           1485     3.76742e+10 
           1495     3.64657e+10 
           1505      3.5028e+10 
           1512     3.43435e+10 
           1517     3.44842e+10 
           1525     3.34365e+10 
           1535     2.92961e+10 
           1545     2.56464e+10 
           1555     2.54874e+10 
           1565     2.78868e+10 
           1575     2.90965e+10 
           1585      2.8903e+10 
           1595     2.89104e+10 
           1605     2.74004e+10 
           1615     2.61377e+10 
           1625      2.6556e+10 
           1635     2.67183e+10 
           1645     2.64516e+10 
           1655     2.66211e+10 
           1665     2.59789e+10 
           1672     2.43037e+10 
           1677      2.7745e+10 
           1685     2.65229e+10 
           1695     2.55513e+10 
           1705     2.50905e+10 
           1715     2.41096e+10 
           1725      2.3051e+10 
           1735     2.37973e+10 
           1745     2.35476e+10 
           1755     2.31405e+10 
           1765     2.27219e+10 
           1775     2.19512e+10 
           1785     2.21316e+10 
           1795     2.16881e+10 
           1805     2.16323e+10 
           1815      2.0928e+10 
           1825     2.06585e+10 
           1835     2.05213e+10 
           1845     1.93178e+10 
           1855     1.94899e+10 
           1865     1.95014e+10 
           1875     1.90432e+10 
           1885     1.80878e+10 
           1895     1.75995e+10 
           1905     1.80713e+10 
           1915     1.74454e+10 
           1925     1.64513e+10 
           1935     1.72919e+10 
           1945     1.74481e+10 
           1955      1.5967e+10 
           1967     1.65537e+10 
           1976      1.6933e+10 
           1984     1.62243e+10 
           1995     1.58206e+10 
           2005     1.60137e+10 
           2015      1.5947e+10 
           2025     1.58634e+10 
           2035     1.52066e+10 
           2045     1.50123e+10 
           2055     1.24945e+10 
           2065     1.20796e+10 
           2074     1.24261e+10 
           2078     1.22526e+10 
           2085     1.27494e+10 
           2095       1.327e+10 
           2105     1.37538e+10 
           2115     1.38363e+10 
           2125      1.3532e+10 
           2135     1.34254e+10 
           2145     1.31621e+10 
           2155     1.31579e+10 
           2165      1.2638e+10 
           2175     1.27928e+10 
           2185     1.24195e+10 
           2195     1.25709e+10 
           2205     1.23758e+10 
           2215     1.19195e+10 
           2225     1.19739e+10 
           2235     1.17856e+10 
           2245     1.16247e+10 
           2255     1.12337e+10 
           2265     1.13051e+10 
           2275     1.11688e+10 
           2285     1.08461e+10 
           2295      9.93067e+9 
           2305     1.03999e+10 
           2315     1.03566e+10 
           2325     1.03026e+10 
           2335     1.01454e+10 
           2345     1.00433e+10 
           2355       9.8604e+9 
           2365      9.70647e+9 
           2375      9.50468e+9 
           2385      9.14036e+9 
           2395      9.15877e+9 
           2405      9.14724e+9 
           2415      8.97282e+9 
           2425      8.90858e+9 
           2435      8.73771e+9 
           2445      8.64936e+9 
           2455      8.52216e+9 
           2465      8.42402e+9 
           2475      8.28843e+9 
           2485      8.04006e+9 
           2495      6.00017e+9 
           2505      7.63782e+9 
           2513      7.44192e+9 
           2518      7.54312e+9 
           2525      7.74362e+9 
           2535      7.68557e+9 
           2545      7.47872e+9 
           2555      7.42549e+9 
           2565      7.32075e+9 
           2575      7.26627e+9 
           2585       7.1831e+9 
           2595      7.05176e+9 
           2605      7.01494e+9 
           2615      6.88205e+9 
           2625      6.82371e+9 
           2635      6.73783e+9 
           2645       6.6369e+9 
           2655      6.55653e+9 
           2665      6.40399e+9 
           2675      6.27722e+9 
           2685      6.29221e+9 
           2695      6.15017e+9 
           2705      6.09448e+9 
           2715      6.01849e+9 
           2725      5.93381e+9 
           2735      5.80589e+9 
           2745      5.82666e+9 
           2755       5.7497e+9 
           2765      5.65349e+9 
           2775      5.64363e+9 
           2785      5.53858e+9 
           2795      5.34566e+9 
           2805       5.3847e+9 
           2815      5.36173e+9 
           2825      5.27758e+9 
           2835      5.17244e+9 
           2845      5.17617e+9 
           2855      5.08683e+9 
           2865      5.01925e+9 
           2875      4.95568e+9 
           2885      4.90373e+9 
           2895       4.8389e+9 
           2910       4.7144e+9 
           2930      4.65421e+9 
           2950      4.51686e+9 
           2970      4.42548e+9 
           2990      4.29526e+9 
           3010      4.15762e+9 
           3030      4.05704e+9 
           3050      4.00603e+9 
           3070      3.94333e+9 
           3090      3.80119e+9 
           3110      3.76819e+9 
           3130      3.66012e+9 
           3150       3.5964e+9 
           3170      3.50985e+9 
           3190      3.43481e+9 
           3210      3.34871e+9 
           3230      3.28169e+9 
           3250      3.23047e+9 
           3270      3.13478e+9 
           3290      3.08223e+9 
           3310      3.01429e+9 
           3330       2.9398e+9 
           3350      2.87372e+9 
           3370      2.81626e+9 
           3390      2.77857e+9 
           3410      2.71824e+9 
           3430      2.67085e+9 
           3450      2.59848e+9 
           3470      2.55372e+9 
           3490       2.5013e+9 
           3510      2.45386e+9 
           3530      2.41561e+9 
           3550      2.36237e+9 
           3570      2.31942e+9 
           3590      2.26205e+9 
           3610      2.22434e+9 
           3630      2.17631e+9 
           3640      2.15601e+9 
           3650      2.07844e+9 
           3670      2.04748e+9 
           3690      2.00825e+9 
           3710      1.93452e+9 
           3730       1.8946e+9 
           3750      1.88696e+9 
           3770      1.83987e+9 
           3790      1.89885e+9 
           3810      1.93925e+9 
           3830      1.75078e+9 
           3850      1.93429e+9 
           3870      1.88275e+9 
           3890      1.64503e+9 
           3910      1.88667e+9 
           3930      1.83314e+9 
           3950      1.78169e+9 
           3970      1.51477e+9 
           3990      1.74452e+9 
           4010      1.72001e+9 
           4030      1.64824e+9 
           4050      1.66909e+9 
           4070      1.59294e+9 
           4090       1.4963e+9 
           4110      1.37165e+9 
           4130      1.52272e+9 
           4150      1.50657e+9 
           4170      1.50134e+9 
           4190      1.47062e+9 
           4210      1.44508e+9 
           4230      1.42616e+9 
           4250      1.38447e+9 
           4270      1.35349e+9 
           4290      1.32661e+9 
           4310      1.29113e+9 
           4330      1.21238e+9 
           4350      1.12687e+9 
           4370      1.23554e+9 
           4390      1.21164e+9 
           4410      1.20125e+9 
           4430      1.19276e+9 
           4450      1.16952e+9 
           4470      1.12518e+9 
           4490      1.13469e+9 
           4510      1.11524e+9 
           4530      1.10323e+9 
           4550       1.0785e+9 
           4570      1.06816e+9 
           4590      1.04712e+9 
           4610      1.02549e+9 
           4630      1.00442e+9 
           4650      9.58963e+8 
           4670      9.75055e+8 
           4690       9.5523e+8 
           4710      9.35077e+8 
           4730      9.44126e+8 
           4750      9.26892e+8 
           4770      9.18308e+8 
           4790      9.03562e+8 
           4810      8.86278e+8 
           4830      8.66761e+8 
           4850      8.19956e+8 
           4870      7.46711e+8 
           4890      8.27613e+8 
           4910      8.17884e+8 
           4930      7.94181e+8 
           4950       7.9099e+8 
           4970      7.86924e+8 
           4990      7.74864e+8 
           5010      7.48758e+8 
           5030      7.47565e+8 
           5050       7.3588e+8 
           5070      7.29968e+8 
           5090      7.17976e+8 
           5110      7.07216e+8 
           5130      6.96301e+8 
           5150      6.86415e+8 
           5170      6.75801e+8 
           5190      6.67302e+8 
           5210      6.58053e+8 
           5230      6.48911e+8 
           5250      6.38523e+8 
           5270      6.28721e+8 
           5290      6.21593e+8 
           5310      6.12577e+8 
           5330      6.04117e+8 
           5350      5.95607e+8 
           5370      5.87325e+8 
           5390      5.78319e+8 
           5410      5.66714e+8 
           5430       5.6325e+8 
           5450      5.55166e+8 
           5470      5.47463e+8 
           5490      5.40081e+8 
           5510      5.32668e+8 
           5530      5.25373e+8 
           5550      5.18634e+8 
           5570      5.11492e+8 
           5590      5.03558e+8 
           5610      4.97927e+8 
           5630      4.91341e+8 
           5650      4.84458e+8 
           5670      4.77215e+8 
           5690      4.66524e+8 
           5710       4.5827e+8 
           5730      4.52896e+8 
           5750      4.45843e+8 
           5770      4.41558e+8 
           5790      4.35669e+8 
           5810      4.29718e+8 
           5830      4.23715e+8 
           5850      4.19491e+8 
           5870      4.05103e+8 
           5890      4.08188e+8 
           5910      4.04286e+8 
           5930      3.99732e+8 
           5950      3.95176e+8 
           5970      3.91508e+8 
           5990      3.86556e+8 
           6010      3.82892e+8 
           6030      3.77881e+8 
           6050      3.73441e+8 
           6070       3.6898e+8 
           6090      3.64478e+8 
           6110      3.59815e+8 
           6130      3.55486e+8 
           6150      3.50369e+8 
           6170      3.46191e+8 
           6190      3.42493e+8 
           6210      3.38473e+8 
           6230      3.34265e+8 
           6250      3.29921e+8 
           6270      3.26162e+8 
           6290      3.22282e+8 
           6310      3.18056e+8 
           6330      3.14649e+8 
           6350       3.1054e+8 
           6370      3.07209e+8 
           6390      3.03527e+8 
           6410      2.99839e+8 
           6430      2.96446e+8 
           6450      2.92862e+8 
           6470      2.88778e+8 
           6490      2.85489e+8 
           6510      2.81693e+8 
           6530      2.77673e+8 
           6550      2.68727e+8 
           6570      2.42525e+8 
           6590      2.67209e+8 
           6610      2.66267e+8 
           6630      2.63583e+8 
           6650      2.60356e+8 
           6670      2.54894e+8 
           6690      2.51941e+8 
           6710      2.51278e+8 
           6730      2.48181e+8 
           6750      2.46035e+8 
           6770      2.43474e+8 
           6790      2.40113e+8 
           6810      2.37974e+8 
           6830      2.35161e+8 
           6850      2.32722e+8 
           6870      2.30044e+8 
           6890      2.26845e+8 
           6910      2.24256e+8 
           6930      2.22696e+8 
           6950      2.20254e+8 
           6970      2.17845e+8 
           6990      2.15435e+8 
           7010      2.12928e+8 
           7030      2.10468e+8 
           7050      2.08275e+8 
           7070      2.03405e+8 
           7090       2.0402e+8 
           7110      2.01525e+8 
           7130      1.99485e+8 
           7150      1.97567e+8 
           7170      1.95221e+8 
           7190      1.93276e+8 
           7210      1.91336e+8 
           7230      1.88037e+8 
           7250      1.86937e+8 
           7270      1.85346e+8 
           7290      1.82183e+8 
           7310       1.8142e+8 
           7330      1.79555e+8 
           7350      1.77686e+8 
           7370      1.75863e+8 
           7390      1.74057e+8 
           7410      1.72248e+8 
           7430      1.70482e+8 
           7450      1.68679e+8 
           7470      1.66393e+8 
           7490      1.64962e+8 
           7510       1.6355e+8 
           7530      1.61832e+8 
           7550      1.60314e+8 
           7570      1.58673e+8 
           7590      1.56707e+8 
           7610      1.55181e+8 
           7630      1.53864e+8 
           7650      1.52288e+8 
           7670      1.50874e+8 
           7690      1.49109e+8 
           7710      1.47791e+8 
           7730      1.46006e+8 
           7750      1.44934e+8 
           7770      1.43515e+8 
           7790      1.42133e+8 
           7810      1.40702e+8 
           7830       1.3937e+8 
           7850      1.38031e+8 
           7870      1.36406e+8 
           7890      1.35043e+8 
           7910      1.34006e+8 
           7930      1.32708e+8 
           7950      1.31498e+8 
           7970      1.30104e+8 
           7990      1.28916e+8 
           8010      1.27698e+8 
           8030      1.26426e+8 
           8050      1.25264e+8 
           8070      1.24088e+8 
           8090      1.22796e+8 
           8110       1.2096e+8 
           8130       1.2057e+8 
           8150      1.19344e+8 
           8170       1.1832e+8 
           8190      1.16609e+8 
           8210      1.15192e+8 
           8230      1.13971e+8 
           8250      1.13302e+8 
           8270      1.11499e+8 
           8290      1.11165e+8 
           8310      1.10292e+8 
           8330      1.09133e+8 
           8350      1.07768e+8 
           8370      1.07033e+8 
           8390      1.06294e+8 
           8410      1.05245e+8 
           8430      1.04349e+8 
           8450      1.02943e+8 
           8470      1.02473e+8 
           8490      1.01395e+8 
           8510      1.00279e+8 
           8530      9.95659e+7 
           8550       9.8405e+7 
           8570       9.8254e+7 
