# Kurucz ODFNEW /NOVER (2003)
# teff = 25000 K (value for the effective temperature for the model. Temperatures are given in K)
# logg = 4 log(cm/s2) (value for Log(G) for the model.)
# meta = -1  (value for the Metallicity for the model.)
# lh = 1.25  (l/Hp where l is the  mixing length of the convective element and Hp is the pressure scale height)
# vtur = 2 km/s (Microturbulence velocity)
# alpha = 0  (Alpha)
#
# column 1: WAVELENGTH (ANGSTROM), Wavelength in Angstrom
# column 2: FLUX (ERG/CM2/S/A), Flux in erg/cm2/s/A
          147.2     4.17886e-14 
            151     1.92107e-13 
          155.2     9.55015e-13 
          158.8        3.54e-12 
            162     1.08272e-11 
            166      4.1289e-11 
          170.3     1.62515e-10 
          173.4     4.18759e-10 
          176.8      1.13834e-9 
          180.2      2.98023e-9 
          181.7      4.50468e-9 
          186.1      1.45674e-8 
            191      5.05008e-8 
          193.9      1.02286e-7 
          198.4      2.93315e-7 
          201.8      6.29815e-7 
            205      1.26273e-6 
          210.5      3.96911e-6 
          216.2      1.22096e-5 
          219.8      2.40704e-5 
            223      4.31729e-5 
          226.8      8.45107e-5 
            230      0.00440318 
            234       0.0102597 
            240       0.0238772 
          246.5       0.0570697 
          252.4        0.122376 
          256.8        0.196025 
            260        0.306271 
            264         0.48036 
          268.5        0.789858 
          273.5         1.34133 
          278.5          2.2403 
            284         3.88458 
            290         6.81249 
            296         11.6722 
            301         17.8221 
            308          30.373 
            318         70.8836 
            328         145.451 
            338         293.264 
            348         558.325 
            357         1011.99 
            366          1726.8 
            375         2766.83 
            385         4654.95 
            395         7571.05 
            405         11945.8 
            414         17797.3 
            422         24545.7 
            430         33824.1 
            441         51501.7 
            451         74073.1 
            460          100314 
            470          140162 
            480          191210 
            490          258611 
            500          345054 
            506      2.29243e+6 
            512      7.91459e+6 
            520      9.26735e+6 
            530      1.15661e+7 
            540      1.24437e+7 
            550      1.66683e+7 
            560      1.90527e+7 
            570      2.27162e+7 
            580      2.26676e+7 
            590      2.86817e+7 
            600      3.28655e+7 
            610      3.79696e+7 
            620      4.21106e+7 
            630      4.71192e+7 
            640      4.94834e+7 
            650      5.25772e+7 
            658      6.12745e+7 
            665      6.65254e+7 
            675      7.06486e+7 
            685      7.59986e+7 
            695      8.84761e+7 
            705      9.35258e+7 
            716      1.04298e+8 
            726       1.1098e+8 
            735      1.18334e+8 
            745       1.3056e+8 
            755      1.40309e+8 
            765      1.50473e+8 
            775      1.62051e+8 
            785      1.74137e+8 
            795      1.83386e+8 
            805      1.94206e+8 
            815      2.03427e+8 
            825       2.1864e+8 
            835       2.1961e+8 
            845      2.38128e+8 
            855      2.49643e+8 
            865      2.64799e+8 
            875      2.81573e+8 
            885      2.98344e+8 
            895       3.1237e+8 
            905      3.20624e+8 
            915      4.65408e+8 
            925      3.22368e+9 
            935      8.65953e+9 
            945     2.00678e+10 
            955     2.53121e+10 
            965     3.15891e+10 
            975      9.79249e+9 
            985     3.16527e+10 
            995     2.96189e+10 
           1005     3.15628e+10 
           1015     3.00202e+10 
           1025     1.30974e+10 
           1035      2.5525e+10 
           1045     3.32111e+10 
           1055     3.15332e+10 
           1065     2.78372e+10 
           1075     2.99913e+10 
           1085     2.72621e+10 
           1095     2.95838e+10 
           1105     2.77176e+10 
           1115     2.74751e+10 
           1125     2.46765e+10 
           1135     2.69911e+10 
           1145     2.49257e+10 
           1155     2.55767e+10 
           1165     2.53383e+10 
           1175     1.95139e+10 
           1185     2.39743e+10 
           1195     2.24079e+10 
           1205     1.83154e+10 
           1215       9.4071e+9 
           1225     1.97701e+10 
           1235     2.17893e+10 
           1245     2.14676e+10 
           1255     2.10484e+10 
           1265     2.07972e+10 
           1275     2.09346e+10 
           1285     2.04857e+10 
           1295     1.76968e+10 
           1305     1.80827e+10 
           1315     1.93826e+10 
           1325     1.85057e+10 
           1335     1.78116e+10 
           1345     1.78202e+10 
           1355     1.78236e+10 
           1365     1.69682e+10 
           1375     1.66531e+10 
           1385     1.64494e+10 
           1395     1.44574e+10 
           1405     1.47928e+10 
           1415      1.5241e+10 
           1425     1.47935e+10 
           1435     1.48416e+10 
           1442     1.49348e+10 
           1447     1.46643e+10 
           1455     1.43684e+10 
           1465     1.38317e+10 
           1475     1.36759e+10 
           1485     1.34104e+10 
           1495     1.31496e+10 
           1505     1.24715e+10 
           1512     1.17543e+10 
           1517      1.1933e+10 
           1525     1.19081e+10 
           1535     1.08749e+10 
           1545     1.08824e+10 
           1555     1.04025e+10 
           1565     1.07825e+10 
           1575     1.09696e+10 
           1585     1.08047e+10 
           1595     1.07217e+10 
           1605     1.03693e+10 
           1615     1.01399e+10 
           1625     1.00988e+10 
           1635      1.0219e+10 
           1645      9.94969e+9 
           1655      9.90037e+9 
           1665      9.85152e+9 
           1672      9.57973e+9 
           1677       9.8908e+9 
           1685      9.66031e+9 
           1695      9.35102e+9 
           1705      9.06514e+9 
           1715      8.74801e+9 
           1725       8.6213e+9 
           1735      8.65787e+9 
           1745      8.48667e+9 
           1755      8.47867e+9 
           1765       8.1901e+9 
           1775      7.98293e+9 
           1785      7.97815e+9 
           1795      7.98679e+9 
           1805      7.94502e+9 
           1815       7.5239e+9 
           1825      7.56835e+9 
           1835      7.40632e+9 
           1845      6.89308e+9 
           1855      6.84097e+9 
           1865      6.90926e+9 
           1875      6.98653e+9 
           1885      6.43517e+9 
           1895      6.07505e+9 
           1905      6.37757e+9 
           1915      6.11955e+9 
           1925      5.90283e+9 
           1935      6.08878e+9 
           1945      6.15898e+9 
           1955      5.69999e+9 
           1967      5.93484e+9 
           1976      6.10841e+9 
           1984      5.75394e+9 
           1995      5.60812e+9 
           2005       5.6749e+9 
           2015      5.67262e+9 
           2025      5.72257e+9 
           2035      5.39956e+9 
           2045      5.37111e+9 
           2055      5.19594e+9 
           2065      5.19831e+9 
           2074      5.34501e+9 
           2078      5.06682e+9 
           2085      5.12202e+9 
           2095      4.93969e+9 
           2105      5.02822e+9 
           2115      4.98642e+9 
           2125      5.01861e+9 
           2135      4.91782e+9 
           2145      4.74639e+9 
           2155      4.80165e+9 
           2165      4.75322e+9 
           2175      4.67457e+9 
           2185      4.60639e+9 
           2195      4.58133e+9 
           2205      4.51972e+9 
           2215       4.4648e+9 
           2225      4.37765e+9 
           2235      4.30825e+9 
           2245      4.29185e+9 
           2255      4.20779e+9 
           2265      4.18357e+9 
           2275      4.12875e+9 
           2285      4.08987e+9 
           2295      3.93665e+9 
           2305      3.97546e+9 
           2315       3.8988e+9 
           2325      3.85293e+9 
           2335      3.77902e+9 
           2345      3.75495e+9 
           2355      3.72441e+9 
           2365       3.6748e+9 
           2375      3.61981e+9 
           2385      3.57501e+9 
           2395      3.53005e+9 
           2405      3.48545e+9 
           2415      3.43559e+9 
           2425      3.41423e+9 
           2435      3.35485e+9 
           2445      3.32337e+9 
           2455       3.2941e+9 
           2465      3.24914e+9 
           2475      3.20775e+9 
           2485      3.16594e+9 
           2495      3.01273e+9 
           2505      3.08371e+9 
           2513      2.99377e+9 
           2518      3.03596e+9 
           2525      3.01206e+9 
           2535      2.97475e+9 
           2545      2.91146e+9 
           2555      2.90106e+9 
           2565      2.86841e+9 
           2575      2.84429e+9 
           2585      2.81027e+9 
           2595      2.77752e+9 
           2605      2.75956e+9 
           2615      2.72853e+9 
           2625      2.69952e+9 
           2635      2.66518e+9 
           2645      2.63672e+9 
           2655      2.60615e+9 
           2665      2.56218e+9 
           2675      2.53679e+9 
           2685      2.52509e+9 
           2695      2.46639e+9 
           2705      2.45777e+9 
           2715      2.43316e+9 
           2725      2.39062e+9 
           2735      2.38168e+9 
           2745      2.34036e+9 
           2755      2.32122e+9 
           2765      2.28288e+9 
           2775      2.28045e+9 
           2785       2.2521e+9 
           2795      2.19122e+9 
           2805      2.19046e+9 
           2815      2.18125e+9 
           2825      2.13699e+9 
           2835      2.09888e+9 
           2845       2.1091e+9 
           2855      2.08395e+9 
           2865      2.06443e+9 
           2875      2.04198e+9 
           2885      2.02047e+9 
           2895       1.9975e+9 
           2910      1.96384e+9 
           2930      1.92251e+9 
           2950      1.86908e+9 
           2970      1.84348e+9 
           2990      1.80289e+9 
           3010      1.76229e+9 
           3030      1.73205e+9 
           3050      1.69697e+9 
           3070       1.6629e+9 
           3090      1.62128e+9 
           3110      1.59555e+9 
           3130      1.56384e+9 
           3150      1.53323e+9 
           3170      1.50138e+9 
           3190      1.46089e+9 
           3210      1.44369e+9 
           3230      1.41456e+9 
           3250      1.38754e+9 
           3270      1.36185e+9 
           3290      1.33368e+9 
           3310      1.31056e+9 
           3330      1.28532e+9 
           3350      1.25898e+9 
           3370      1.23728e+9 
           3390      1.21446e+9 
           3410      1.19193e+9 
           3430      1.16401e+9 
           3450      1.13837e+9 
           3470      1.12069e+9 
           3490      1.09999e+9 
           3510      1.08358e+9 
           3530      1.06644e+9 
           3550      1.04758e+9 
           3570      1.03416e+9 
           3590      1.00855e+9 
           3610      9.92376e+8 
           3630      9.73809e+8 
           3640       9.7202e+8 
           3650      9.53439e+8 
           3670      9.41257e+8 
           3690      9.20568e+8 
           3710      8.89758e+8 
           3730      8.56928e+8 
           3750      9.00132e+8 
           3770      8.99619e+8 
           3790      9.40925e+8 
           3810      9.76697e+8 
           3830      8.59069e+8 
           3850      9.96995e+8 
           3870      9.97684e+8 
           3890      8.14549e+8 
           3910      9.80727e+8 
           3930      9.60331e+8 
           3950      9.47612e+8 
           3970      7.56523e+8 
           3990      9.10274e+8 
           4010      9.02927e+8 
           4030      8.54437e+8 
           4050      8.80632e+8 
           4070      8.57124e+8 
           4090      7.98541e+8 
           4110       7.0468e+8 
           4130      8.07244e+8 
           4150      8.00292e+8 
           4170       7.9337e+8 
           4190      7.82188e+8 
           4210      7.70714e+8 
           4230      7.57211e+8 
           4250       7.4326e+8 
           4270      7.26251e+8 
           4290      7.18369e+8 
           4310       7.0247e+8 
           4330      6.43753e+8 
           4350      5.88831e+8 
           4370      6.67649e+8 
           4390      6.46626e+8 
           4410      6.51118e+8 
           4430      6.40107e+8 
           4450      6.32407e+8 
           4470      5.98139e+8 
           4490      6.11603e+8 
           4510      6.03838e+8 
           4530      5.94112e+8 
           4550      5.84406e+8 
           4570      5.74973e+8 
           4590      5.66433e+8 
           4610      5.57504e+8 
           4630      5.48955e+8 
           4650        5.375e+8 
           4670      5.32285e+8 
           4690      5.25014e+8 
           4710      5.09629e+8 
           4730      5.08207e+8 
           4750      5.00013e+8 
           4770      4.94935e+8 
           4790      4.87428e+8 
           4810      4.79426e+8 
           4830      4.69941e+8 
           4850       4.3803e+8 
           4870       3.9333e+8 
           4890        4.489e+8 
           4910      4.44813e+8 
           4930      4.29478e+8 
           4950      4.32933e+8 
           4970      4.27321e+8 
           4990      4.21073e+8 
           5010      4.08862e+8 
           5030      4.09131e+8 
           5050      4.00505e+8 
           5070      3.97762e+8 
           5090      3.92127e+8 
           5110      3.86567e+8 
           5130      3.80753e+8 
           5150      3.75501e+8 
           5170      3.70755e+8 
           5190      3.65679e+8 
           5210      3.60462e+8 
           5230      3.55713e+8 
           5250      3.50876e+8 
           5270      3.46034e+8 
           5290      3.41403e+8 
           5310      3.36752e+8 
           5330      3.32227e+8 
           5350      3.27681e+8 
           5370      3.23455e+8 
           5390      3.19114e+8 
           5410      3.14905e+8 
           5430      3.10648e+8 
           5450      3.06546e+8 
           5470      3.02533e+8 
           5490      2.98595e+8 
           5510      2.94744e+8 
           5530      2.90866e+8 
           5550      2.87135e+8 
           5570      2.83389e+8 
           5590      2.79773e+8 
           5610      2.76142e+8 
           5630       2.7265e+8 
           5650      2.68977e+8 
           5670      2.65337e+8 
           5690      2.61753e+8 
           5710      2.58952e+8 
           5730      2.55713e+8 
           5750      2.52342e+8 
           5770      2.49407e+8 
           5790      2.46283e+8 
           5810      2.43228e+8 
           5830      2.40155e+8 
           5850      2.37228e+8 
           5870      2.27611e+8 
           5890      2.30791e+8 
           5910      2.28531e+8 
           5930      2.25663e+8 
           5950      2.22882e+8 
           5970      2.20366e+8 
           5990      2.17595e+8 
           6010      2.15054e+8 
           6030      2.12428e+8 
           6050      2.09915e+8 
           6070      2.07439e+8 
           6090      2.04962e+8 
           6110      2.02532e+8 
           6130       2.0014e+8 
           6150      1.97655e+8 
           6170      1.95406e+8 
           6190      1.93152e+8 
           6210      1.90904e+8 
           6230      1.88671e+8 
           6250      1.86443e+8 
           6270      1.84307e+8 
           6290      1.82184e+8 
           6310      1.80066e+8 
           6330      1.78018e+8 
           6350      1.75862e+8 
           6370      1.73923e+8 
           6390       1.7196e+8 
           6410      1.70008e+8 
           6430      1.68105e+8 
           6450      1.66204e+8 
           6470      1.64233e+8 
           6490      1.62417e+8 
           6510       1.6063e+8 
           6530      1.58242e+8 
           6550      1.51983e+8 
           6570      1.35506e+8 
           6590      1.51861e+8 
           6610      1.51719e+8 
           6630      1.50248e+8 
           6650       1.4869e+8 
           6670      1.45657e+8 
           6690      1.44097e+8 
           6710      1.43884e+8 
           6730      1.42281e+8 
           6750      1.40786e+8 
           6770      1.39265e+8 
           6790      1.37588e+8 
           6810      1.36261e+8 
           6830      1.34802e+8 
           6850      1.33382e+8 
           6870       1.3196e+8 
           6890      1.30544e+8 
           6910       1.2915e+8 
           6930      1.27794e+8 
           6950      1.26459e+8 
           6970       1.2513e+8 
           6990      1.23805e+8 
           7010      1.22517e+8 
           7030      1.21242e+8 
           7050      1.19979e+8 
           7070      1.16844e+8 
           7090      1.17505e+8 
           7110      1.16286e+8 
           7130      1.15093e+8 
           7150      1.13912e+8 
           7170      1.12728e+8 
           7190      1.11599e+8 
           7210      1.10459e+8 
           7230      1.08717e+8 
           7250      1.08211e+8 
           7270      1.07132e+8 
           7290      1.05191e+8 
           7310      1.04969e+8 
           7330      1.03934e+8 
           7350      1.02895e+8 
           7370      1.01866e+8 
           7390      1.00853e+8 
           7410      9.98494e+7 
           7430      9.88554e+7 
           7450      9.78977e+7 
           7470      9.68949e+7 
           7490      9.59752e+7 
           7510      9.49971e+7 
           7530      9.41011e+7 
           7550      9.31869e+7 
           7570       9.2281e+7 
           7590      9.13833e+7 
           7610      9.04872e+7 
           7630      8.96187e+7 
           7650      8.87581e+7 
           7670      8.79052e+7 
           7690      8.70599e+7 
           7710      8.62222e+7 
           7730      8.53984e+7 
           7750      8.45881e+7 
           7770      8.37164e+7 
           7790      8.29891e+7 
           7810      8.21446e+7 
           7830      8.14306e+7 
           7850      8.07288e+7 
           7870      7.99663e+7 
           7890      7.91498e+7 
           7910      7.84912e+7 
           7930      7.77483e+7 
           7950      7.69165e+7 
           7970      7.61099e+7 
           7990      7.54107e+7 
           8010      7.47058e+7 
           8030      7.40186e+7 
           8050      7.33606e+7 
           8070      7.27487e+7 
           8090      7.19347e+7 
           8110      7.13569e+7 
           8130      7.08125e+7 
           8150      7.00513e+7 
           8170      6.95564e+7 
           8190      6.88071e+7 
           8210       6.7986e+7 
           8230      6.75559e+7 
           8250      6.69907e+7 
           8270      6.60226e+7 
           8290      6.57319e+7 
           8310      6.51703e+7 
           8330      6.45646e+7 
           8350      6.36667e+7 
           8370      6.33037e+7 
           8390      6.28417e+7 
           8410      6.22715e+7 
           8430       6.1653e+7 
           8450      6.06914e+7 
           8470      6.04681e+7 
           8490       5.9917e+7 
           8510      5.92144e+7 
           8530      5.89526e+7 
           8550      5.75382e+7 
           8570      5.86395e+7 
           8590      5.61867e+7 
