# Kurucz ODFNEW /NOVER (2003)
# teff = 8750 K (value for the effective temperature for the model. Temperatures are given in K)
# logg = 2 log(cm/s2) (value for Log(G) for the model.)
# meta = -2.5  (value for the Metallicity for the model.)
# lh = 1.25  (l/Hp where l is the  mixing length of the convective element and Hp is the pressure scale height)
# vtur = 2 km/s (Microturbulence velocity)
# alpha = 0  (Alpha)
#
# column 1: WAVELENGTH (ANGSTROM), Wavelength in Angstrom
# column 2: FLUX (ERG/CM2/S/A), Flux in erg/cm2/s/A
          273.5     1.25868e-23 
          278.5     9.08914e-23 
            284     4.53625e-22 
            290     2.31207e-21 
            296     1.09477e-20 
            301     3.80933e-20 
            308     2.03408e-19 
            318     1.95231e-18 
            328     1.62697e-17 
            338     1.19092e-16 
            348     7.75925e-16 
            357     3.82142e-15 
            366     1.73696e-14 
            375     7.31438e-14 
            385      3.3323e-13 
            395     1.40179e-12 
            405     5.48196e-12 
            414     1.76531e-11 
            422      4.7784e-11 
            430     1.24539e-10 
            441     4.38424e-10 
            451      1.30101e-9 
            460      3.31935e-9 
            470      8.99665e-9 
            480       2.3351e-8 
            490      5.82165e-8 
            500      1.39631e-7 
            506      3.32079e-7 
            512      6.14968e-7 
            520      1.15875e-6 
            530      2.50768e-6 
            540      5.18119e-6 
            550      1.05647e-5 
            560       2.0815e-5 
            570       3.9985e-5 
            580      7.42697e-5 
            590     0.000137467 
            600     0.000246705 
            610     0.000433699 
            620     0.000747647 
            630      0.00126526 
            640      0.00210393 
            650      0.00344041 
            658      0.00503989 
            665      0.00698196 
            675       0.0109821 
            685       0.0170298 
            695       0.0260507 
            705       0.0393333 
            716       0.0610035 
            726       0.0897873 
            735        0.125901 
            745        0.181399 
            755        0.258637 
            765        0.365055 
            775        0.510301 
            785        0.706721 
            795         0.96998 
            805         1.31996 
            815         1.78126 
            825         2.38461 
            835         3.16794 
            845         4.17802 
            855         5.47038 
            865         7.11392 
            875         9.19011 
            885         11.7965 
            895         15.0485 
            905         19.0811 
            915          60.121 
            925         286.559 
            935         464.628 
            945         850.971 
            955         1613.49 
            965         1881.45 
            975         1081.77 
            985          144413 
            995          922888 
           1005          282962 
           1015         3266.92 
           1025         2145.76 
           1035         5323.04 
           1045          600442 
           1055       4.3548e+6 
           1065      7.97651e+6 
           1075      1.12804e+7 
           1085      1.26316e+7 
           1095      1.19737e+7 
           1105      1.51519e+7 
           1115       1.8377e+7 
           1125       1.6628e+7 
           1135      1.50247e+7 
           1145      1.13853e+7 
           1155      7.09221e+6 
           1165       3.7947e+6 
           1175      1.13898e+6 
           1185      7.43412e+6 
           1195         19080.4 
           1205           13679 
           1215         6411.08 
           1225         15330.3 
           1235         28009.7 
           1245           32736 
           1255          554369 
           1265      2.29262e+6 
           1275      5.34866e+6 
           1285       1.0006e+7 
           1295       1.3279e+7 
           1305      1.50395e+7 
           1315      1.97981e+7 
           1325      2.32931e+7 
           1335       2.5723e+7 
           1345      2.95444e+7 
           1355      3.02816e+7 
           1365      3.12043e+7 
           1375      3.27666e+7 
           1385      3.41472e+7 
           1395      3.48596e+7 
           1405      3.77145e+7 
           1415      3.90535e+7 
           1425      4.04739e+7 
           1435      3.94434e+7 
           1442      4.23497e+7 
           1447      4.27017e+7 
           1455       4.3593e+7 
           1465      4.31385e+7 
           1475      4.37487e+7 
           1485      4.42855e+7 
           1495      4.48362e+7 
           1505      4.55863e+7 
           1512      4.55112e+7 
           1517      4.62004e+7 
           1525      4.54659e+7 
           1535      4.52991e+7 
           1545      4.63371e+7 
           1555      4.46898e+7 
           1565      4.21978e+7 
           1575       4.3559e+7 
           1585      4.52275e+7 
           1595      4.63947e+7 
           1605      4.47976e+7 
           1615      4.50982e+7 
           1625       4.3121e+7 
           1635      4.38861e+7 
           1645      4.42382e+7 
           1655      4.12748e+7 
           1665      4.46956e+7 
           1672      4.20003e+7 
           1677      4.29183e+7 
           1685      4.42061e+7 
           1695      4.29767e+7 
           1705      4.26645e+7 
           1715      4.34416e+7 
           1725      4.28229e+7 
           1735      4.39114e+7 
           1745       4.3125e+7 
           1755      4.40011e+7 
           1765      4.22584e+7 
           1775      4.37171e+7 
           1785      4.29886e+7 
           1795      4.37538e+7 
           1805      4.30738e+7 
           1815      4.27834e+7 
           1825      4.21304e+7 
           1835      4.21658e+7 
           1845      4.14466e+7 
           1855      4.17224e+7 
           1865      4.15654e+7 
           1875      4.18411e+7 
           1885      4.17801e+7 
           1895      4.15459e+7 
           1905      4.10839e+7 
           1915      4.08943e+7 
           1925      4.11242e+7 
           1935      4.04869e+7 
           1945      4.12527e+7 
           1955      4.10073e+7 
           1967      4.09505e+7 
           1976      4.04297e+7 
           1984      4.04556e+7 
           1995       4.0129e+7 
           2005      3.95376e+7 
           2015      3.86358e+7 
           2025      3.88128e+7 
           2035       3.9181e+7 
           2045      3.90168e+7 
           2055      3.80991e+7 
           2065      3.81039e+7 
           2074      3.87793e+7 
           2078      3.87837e+7 
           2085       3.8704e+7 
           2095      3.83663e+7 
           2105      3.83725e+7 
           2115       3.8093e+7 
           2125      3.79439e+7 
           2135      3.69628e+7 
           2145      3.77358e+7 
           2155      3.74115e+7 
           2165      3.66231e+7 
           2175      3.65881e+7 
           2185       3.6598e+7 
           2195      3.73678e+7 
           2205      3.65841e+7 
           2215      3.56947e+7 
           2225      3.53343e+7 
           2235      3.65649e+7 
           2245      3.57757e+7 
           2255      3.49812e+7 
           2265      3.46458e+7 
           2275      3.56769e+7 
           2285      3.57152e+7 
           2295       3.5085e+7 
           2305      3.51627e+7 
           2315      3.49031e+7 
           2325      3.50154e+7 
           2335      3.44315e+7 
           2345      3.29176e+7 
           2355      3.42628e+7 
           2365      3.30327e+7 
           2375      3.38084e+7 
           2385      3.20128e+7 
           2395      3.34261e+7 
           2405      3.31063e+7 
           2415      3.31912e+7 
           2425      3.38335e+7 
           2435      3.32264e+7 
           2445      3.35551e+7 
           2455      3.35198e+7 
           2465      3.29074e+7 
           2475      3.26949e+7 
           2485      3.31888e+7 
           2495      3.26909e+7 
           2505      3.34678e+7 
           2513      3.28793e+7 
           2518      3.30144e+7 
           2525      3.21669e+7 
           2535       3.1784e+7 
           2545      3.19064e+7 
           2555      3.27531e+7 
           2565      3.24295e+7 
           2575      3.29349e+7 
           2585      3.30493e+7 
           2595      3.27575e+7 
           2605      3.23677e+7 
           2615      3.21884e+7 
           2625      3.22247e+7 
           2635      3.24119e+7 
           2645      3.35593e+7 
           2655      3.33957e+7 
           2665      3.27434e+7 
           2675      3.29929e+7 
           2685      3.31876e+7 
           2695      3.28567e+7 
           2705      3.28701e+7 
           2715      3.24102e+7 
           2725      3.24082e+7 
           2735      3.27191e+7 
           2745      3.13582e+7 
           2755      3.14456e+7 
           2765      3.19612e+7 
           2775      3.26158e+7 
           2785      3.25277e+7 
           2795      3.08018e+7 
           2805      3.17653e+7 
           2815      3.26905e+7 
           2825      3.25477e+7 
           2835      3.21657e+7 
           2845      3.20447e+7 
           2855      3.17078e+7 
           2865      3.18201e+7 
           2875      3.18566e+7 
           2885      3.20485e+7 
           2895      3.21341e+7 
           2910      3.22886e+7 
           2930      3.18545e+7 
           2950      3.17366e+7 
           2970      3.18082e+7 
           2990      3.16854e+7 
           3010      3.18262e+7 
           3030      3.17661e+7 
           3050      3.16428e+7 
           3070      3.14481e+7 
           3090      3.14673e+7 
           3110      3.13463e+7 
           3130      3.11738e+7 
           3150      3.11282e+7 
           3170       3.1068e+7 
           3190      3.07711e+7 
           3210      3.08229e+7 
           3230       3.0625e+7 
           3250      3.06716e+7 
           3270      3.06639e+7 
           3290      3.05982e+7 
           3310      3.05259e+7 
           3330      3.03686e+7 
           3350      3.01672e+7 
           3370      3.01054e+7 
           3390      3.00414e+7 
           3410      3.00461e+7 
           3430      2.99388e+7 
           3450        2.987e+7 
           3470       2.9756e+7 
           3490      2.96686e+7 
           3510      2.95953e+7 
           3530      2.95104e+7 
           3550      2.94152e+7 
           3570      2.93071e+7 
           3590      2.92103e+7 
           3610      2.91159e+7 
           3630      2.90161e+7 
           3640      2.89593e+7 
           3650      2.92363e+7 
           3670      2.87871e+7 
           3690      2.96241e+7 
           3710      3.78615e+7 
           3730      5.08032e+7 
           3750      7.82767e+7 
           3770      7.99744e+7 
           3790      9.10344e+7 
           3810      1.00787e+8 
           3830      8.25066e+7 
           3850      1.06071e+8 
           3870      1.10072e+8 
           3890      7.51935e+7 
           3910      1.07567e+8 
           3930      1.06204e+8 
           3950       1.0518e+8 
           3970       7.1118e+7 
           3990      1.01875e+8 
           4010      1.02525e+8 
           4030      1.01233e+8 
           4050      1.00183e+8 
           4070      9.84597e+7 
           4090      8.91934e+7 
           4110      7.06152e+7 
           4130      9.44667e+7 
           4150      9.39828e+7 
           4170      9.28949e+7 
           4190      9.17742e+7 
           4210      9.06471e+7 
           4230      8.95035e+7 
           4250      8.83982e+7 
           4270      8.73241e+7 
           4290      8.61863e+7 
           4310      8.46379e+7 
           4330      7.37489e+7 
           4350      6.33089e+7 
           4370       8.1515e+7 
           4390      8.09636e+7 
           4410      8.01514e+7 
           4430      7.92182e+7 
           4450      7.82718e+7 
           4470      7.72034e+7 
           4490      7.62238e+7 
           4510      7.54678e+7 
           4530      7.45752e+7 
           4550      7.36208e+7 
           4570      7.28425e+7 
           4590      7.19623e+7 
           4610      7.11762e+7 
           4630      7.03043e+7 
           4650      6.95249e+7 
           4670       6.8713e+7 
           4690      6.79158e+7 
           4710      6.70804e+7 
           4730      6.63577e+7 
           4750      6.55964e+7 
           4770      6.48438e+7 
           4790      6.40982e+7 
           4810      6.32732e+7 
           4830      6.21802e+7 
           4850      5.52254e+7 
           4870      4.52182e+7 
           4890      5.98271e+7 
           4910      5.97095e+7 
           4930      5.91253e+7 
           4950      5.85286e+7 
           4970      5.78785e+7 
           4990      5.72339e+7 
           5010      5.65467e+7 
           5030      5.59714e+7 
           5050      5.53354e+7 
           5070      5.47473e+7 
           5090      5.41463e+7 
           5110       5.3553e+7 
           5130      5.29674e+7 
           5150       5.2392e+7 
           5170      5.17718e+7 
           5190      5.12393e+7 
           5210      5.07092e+7 
           5230      5.01486e+7 
           5250      4.96251e+7 
           5270      4.90796e+7 
           5290      4.85705e+7 
           5310       4.8041e+7 
           5330      4.75419e+7 
           5350      4.70436e+7 
           5370      4.65436e+7 
           5390      4.60562e+7 
           5410      4.55709e+7 
           5430       4.5094e+7 
           5450      4.46254e+7 
           5470      4.41611e+7 
           5490      4.37025e+7 
           5510      4.32493e+7 
           5530      4.28003e+7 
           5550      4.23627e+7 
           5570      4.19267e+7 
           5590      4.14982e+7 
           5610      4.10736e+7 
           5630      4.06551e+7 
           5650      4.02427e+7 
           5670      3.98351e+7 
           5690      3.94322e+7 
           5710      3.90351e+7 
           5730      3.86426e+7 
           5750      3.82558e+7 
           5770      3.78733e+7 
           5790      3.74953e+7 
           5810      3.71226e+7 
           5830      3.67553e+7 
           5850      3.63921e+7 
           5870      3.59959e+7 
           5890      3.56747e+7 
           5910       3.5328e+7 
           5930      3.49819e+7 
           5950      3.46407e+7 
           5970      3.43033e+7 
           5990      3.39696e+7 
           6010      3.36417e+7 
           6030      3.33173e+7 
           6050      3.29966e+7 
           6070      3.26803e+7 
           6090      3.23675e+7 
           6110       3.2058e+7 
           6130      3.17529e+7 
           6150      3.14482e+7 
           6170      3.11536e+7 
           6190      3.08592e+7 
           6210      3.05679e+7 
           6230      3.02807e+7 
           6250      2.99937e+7 
           6270      2.97154e+7 
           6290      2.94382e+7 
           6310      2.91639e+7 
           6330      2.88934e+7 
           6350      2.86192e+7 
           6370      2.83581e+7 
           6390      2.80996e+7 
           6410      2.78411e+7 
           6430      2.75862e+7 
           6450      2.73312e+7 
           6470      2.70842e+7 
           6490      2.68209e+7 
           6510      2.65017e+7 
           6530      2.60922e+7 
           6550      2.40434e+7 
           6570      1.93519e+7 
           6590      2.51187e+7 
           6610      2.52868e+7 
           6630      2.51473e+7 
           6650      2.49648e+7 
           6670      2.47399e+7 
           6690      2.45207e+7 
           6710      2.43061e+7 
           6730      2.40912e+7 
           6750      2.38792e+7 
           6770      2.36692e+7 
           6790      2.34614e+7 
           6810      2.32563e+7 
           6830      2.30525e+7 
           6850      2.28523e+7 
           6870      2.26531e+7 
           6890      2.24567e+7 
           6910      2.22622e+7 
           6930      2.20704e+7 
           6950      2.18804e+7 
           6970      2.16922e+7 
           6990      2.15065e+7 
           7010      2.13227e+7 
           7030      2.11405e+7 
           7050      2.09609e+7 
           7070      2.07814e+7 
           7090      2.06066e+7 
           7110      2.04327e+7 
           7130      2.02604e+7 
           7150      2.00898e+7 
           7170      1.99214e+7 
           7190      1.97546e+7 
           7210      1.95894e+7 
           7230      1.94257e+7 
           7250      1.92642e+7 
           7270      1.91042e+7 
           7290      1.89456e+7 
           7310      1.87892e+7 
           7330      1.86342e+7 
           7350      1.84813e+7 
           7370      1.83292e+7 
           7390       1.8179e+7 
           7410      1.80309e+7 
           7430      1.78835e+7 
           7450      1.77381e+7 
           7470      1.75939e+7 
           7490      1.74517e+7 
           7510      1.73108e+7 
           7530      1.71711e+7 
           7550      1.70327e+7 
           7570      1.68962e+7 
           7590      1.67608e+7 
           7610      1.66266e+7 
           7630      1.64943e+7 
           7650      1.63624e+7 
           7670       1.6233e+7 
           7690      1.61041e+7 
           7710      1.59763e+7 
           7730      1.58509e+7 
           7750      1.57259e+7 
           7770      1.55808e+7 
           7790      1.54798e+7 
           7810      1.53586e+7 
           7830      1.52384e+7 
           7850      1.51199e+7 
           7870      1.50012e+7 
           7890      1.48841e+7 
           7910      1.47704e+7 
           7930      1.46564e+7 
           7950      1.45434e+7 
           7970      1.44314e+7 
           7990      1.43197e+7 
           8010      1.42107e+7 
           8030       1.4102e+7 
           8050      1.39943e+7 
           8070       1.3888e+7 
           8090       1.3782e+7 
           8110      1.36774e+7 
           8130      1.35737e+7 
           8150      1.34715e+7 
           8170      1.33695e+7 
           8190      1.32683e+7 
           8210      1.32484e+7 
           8230      1.31574e+7 
           8250      1.30688e+7 
           8270      1.29798e+7 
           8290      1.28821e+7 
           8310      1.27657e+7 
           8330      1.26295e+7 
           8350      1.25253e+7 
           8370      1.22757e+7 
           8390      1.22108e+7 
           8410      1.20681e+7 
           8430      1.22675e+7 
           8450      1.22449e+7 
           8470      1.15722e+7 
           8490      1.27224e+7 
           8510      1.14335e+7 
           8530      1.29363e+7 
           8550       1.1066e+7 
           8570      1.31831e+7 
           8590      1.21619e+7 
           8610      1.17777e+7 
           8630       1.3523e+7 
           8650      1.31936e+7 
           8670      1.06029e+7 
           8690      1.34586e+7 
           8710      1.36064e+7 
           8730      1.32831e+7 
           8750        1.034e+7 
           8770      1.27395e+7 
           8790      1.32155e+7 
           8810      1.31546e+7 
           8830      1.30028e+7 
           8850      1.21514e+7 
           8870       1.0065e+7 
           8890      1.25738e+7 
           8910      1.26665e+7 
           8930      1.26022e+7 
           8950       1.2514e+7 
           8970      1.23922e+7 
           8990      1.21628e+7 
           9010      9.92034e+6 
           9030      1.09927e+7 
           9050      1.19644e+7 
           9070      1.19524e+7 
           9090      1.18862e+7 
           9110      1.18091e+7 
           9130       1.1724e+7 
           9150       1.1639e+7 
           9170      1.15408e+7 
           9190      1.14108e+7 
           9210      1.10566e+7 
