# Kurucz ODFNEW /NOVER (2003)
# teff = 19000 K (value for the effective temperature for the model. Temperatures are given in K)
# logg = 3.5 log(cm/s2) (value for Log(G) for the model.)
# meta = -0.5  (value for the Metallicity for the model.)
# lh = 1.25  (l/Hp where l is the  mixing length of the convective element and Hp is the pressure scale height)
# vtur = 2 km/s (Microturbulence velocity)
# alpha = 0.4  (Alpha)
#
# column 1: WAVELENGTH (ANGSTROM), Wavelength in Angstrom
# column 2: FLUX (ERG/CM2/S/A), Flux in erg/cm2/s/A
          147.2     1.66016e-21 
            151     1.09643e-20 
          155.2     7.90119e-20 
          158.8     3.95785e-19 
            162     1.56727e-18 
            166     8.15978e-18 
          170.3     4.41846e-17 
          173.4     1.42347e-16 
          176.8     4.90619e-16 
          180.2     1.61797e-15 
          181.7     2.70199e-15 
          186.1     1.16413e-14 
            191     5.49279e-14 
          193.9     1.32717e-13 
          198.4     4.97134e-13 
          201.8     1.30013e-12 
            205     3.12661e-12 
          210.5     1.32947e-11 
          216.2     5.52967e-11 
          219.8     1.31121e-10 
            223     2.76011e-10 
          226.8     6.50708e-10 
            230      4.54532e-9 
            234      1.20299e-8 
            240       3.9257e-8 
          246.5      1.31578e-7 
          252.4      3.75761e-7 
          256.8      7.80351e-7 
            260      1.34664e-6 
            264      2.55785e-6 
          268.5      5.13515e-6 
          273.5      1.08291e-5 
          278.5      2.23122e-5 
            284      4.80814e-5 
            290     0.000106855 
            296     0.000229423 
            301     0.000424336 
            308     0.000959138 
            318      0.00296916 
            328      0.00837892 
            338       0.0225202 
            348       0.0566755 
            357        0.126561 
            366          0.2683 
            375        0.540481 
            385         1.13798 
            395          2.2936 
            405         4.46655 
            414         7.92205 
            422          12.819 
            430         20.3674 
            441         37.6437 
            451          63.964 
            460         100.542 
            470         162.945 
            480         257.955 
            490         400.861 
            500         610.919 
            506         6442.34 
            512         26974.5 
            520         35218.1 
            530         52630.8 
            540         60687.5 
            550         94582.1 
            560          119746 
            570          157730 
            580          163346 
            590          231968 
            600          304910 
            610          387876 
            620          463895 
            630          563471 
            640          645637 
            650          735804 
            658          923455 
            665      1.01801e+6 
            675       1.1608e+6 
            685      1.34538e+6 
            695      1.63467e+6 
            705      1.85869e+6 
            716      2.18628e+6 
            726      2.46068e+6 
            735      2.76495e+6 
            745      3.21407e+6 
            755      3.65497e+6 
            765      4.12299e+6 
            775      4.67047e+6 
            785      5.24667e+6 
            795      5.77422e+6 
            805      6.40997e+6 
            815      7.02385e+6 
            825       7.8642e+6 
            835      8.28591e+6 
            845      9.28284e+6 
            855        1.016e+7 
            865      1.11776e+7 
            875      1.22945e+7 
            885      1.35709e+7 
            895       1.4724e+7 
            905      1.54004e+7 
            915      2.79524e+7 
            925      1.91463e+8 
            935      7.71019e+8 
            945      2.55566e+9 
            955       4.1102e+9 
            965      5.37853e+9 
            975      9.48457e+8 
            985      5.92221e+9 
            995      5.64395e+9 
           1005      6.53889e+9 
           1015      6.17409e+9 
           1025      1.70815e+9 
           1035      4.20399e+9 
           1045      7.76659e+9 
           1055      7.29986e+9 
           1065      6.01684e+9 
           1075      7.16018e+9 
           1085       6.3971e+9 
           1095      7.28119e+9 
           1105      6.16886e+9 
           1115      5.76507e+9 
           1125      5.51569e+9 
           1135      6.94371e+9 
           1145      6.14279e+9 
           1155      6.52148e+9 
           1165      6.74392e+9 
           1175      5.15749e+9 
           1185      6.72934e+9 
           1195      4.68028e+9 
           1205      2.30525e+9 
           1215      1.23541e+9 
           1225      4.35996e+9 
           1235      6.14781e+9 
           1245      6.43735e+9 
           1255      6.23065e+9 
           1265      5.75326e+9 
           1275      6.16927e+9 
           1285      6.18701e+9 
           1295      3.87709e+9 
           1305      3.72499e+9 
           1315      5.89377e+9 
           1325      5.62425e+9 
           1335      5.08415e+9 
           1345      5.58131e+9 
           1355      5.49574e+9 
           1365      5.01295e+9 
           1375      5.01741e+9 
           1385      5.06031e+9 
           1395      4.23612e+9 
           1405      4.51478e+9 
           1415      4.64104e+9 
           1425      4.70136e+9 
           1435      4.74565e+9 
           1442      4.89047e+9 
           1447      4.80113e+9 
           1455      4.69153e+9 
           1465      4.45639e+9 
           1475      4.40517e+9 
           1485      4.30504e+9 
           1495      4.27393e+9 
           1505      3.99844e+9 
           1512      3.68351e+9 
           1517      3.83099e+9 
           1525      3.89312e+9 
           1535      3.52567e+9 
           1545      3.62316e+9 
           1555      3.43353e+9 
           1565      3.51454e+9 
           1575      3.67295e+9 
           1585      3.64489e+9 
           1595      3.68433e+9 
           1605       3.6058e+9 
           1615      3.57949e+9 
           1625      3.46851e+9 
           1635      3.58405e+9 
           1645      3.55161e+9 
           1655      3.38517e+9 
           1665      3.55527e+9 
           1672      3.42287e+9 
           1677      3.50818e+9 
           1685      3.50985e+9 
           1695      3.35159e+9 
           1705      3.20522e+9 
           1715      3.05126e+9 
           1725      3.02941e+9 
           1735      3.12587e+9 
           1745      3.03794e+9 
           1755      3.09331e+9 
           1765      2.91844e+9 
           1775      2.90538e+9 
           1785      2.89633e+9 
           1795      2.98949e+9 
           1805      2.97438e+9 
           1815      2.73916e+9 
           1825      2.83037e+9 
           1835      2.72867e+9 
           1845      2.53715e+9 
           1855       2.4687e+9 
           1865      2.50458e+9 
           1875      2.64596e+9 
           1885      2.41673e+9 
           1895      2.26949e+9 
           1905      2.43497e+9 
           1915      2.30965e+9 
           1925      2.23865e+9 
           1935      2.32222e+9 
           1945      2.33973e+9 
           1955      2.17865e+9 
           1967       2.3279e+9 
           1976      2.40361e+9 
           1984      2.24932e+9 
           1995      2.19193e+9 
           2005      2.24424e+9 
           2015      2.19762e+9 
           2025      2.28272e+9 
           2035      2.12443e+9 
           2045      2.14253e+9 
           2055      2.06116e+9 
           2065      2.09743e+9 
           2074      2.16326e+9 
           2078      2.02739e+9 
           2085      2.09067e+9 
           2095      1.98775e+9 
           2105       2.0246e+9 
           2115      2.01788e+9 
           2125      2.04791e+9 
           2135      1.99538e+9 
           2145      1.92155e+9 
           2155      1.97985e+9 
           2165      1.94978e+9 
           2175      1.92537e+9 
           2185      1.88253e+9 
           2195      1.90092e+9 
           2205      1.86582e+9 
           2215      1.83089e+9 
           2225      1.77801e+9 
           2235      1.79668e+9 
           2245      1.78699e+9 
           2255      1.73035e+9 
           2265      1.75146e+9 
           2275      1.73573e+9 
           2285      1.73688e+9 
           2295      1.67013e+9 
           2305      1.67297e+9 
           2315      1.63339e+9 
           2325      1.61665e+9 
           2335      1.55571e+9 
           2345      1.53589e+9 
           2355      1.55324e+9 
           2365      1.51312e+9 
           2375      1.51149e+9 
           2385      1.47758e+9 
           2395      1.49581e+9 
           2405      1.45689e+9 
           2415      1.44685e+9 
           2425      1.45685e+9 
           2435      1.41035e+9 
           2445      1.41843e+9 
           2455      1.41484e+9 
           2465      1.38367e+9 
           2475      1.36667e+9 
           2485        1.371e+9 
           2495      1.31809e+9 
           2505      1.34643e+9 
           2513       1.2954e+9 
           2518      1.32205e+9 
           2525      1.28956e+9 
           2535      1.27208e+9 
           2545      1.24052e+9 
           2555      1.26926e+9 
           2565       1.2461e+9 
           2575      1.25979e+9 
           2585      1.25226e+9 
           2595      1.24162e+9 
           2605      1.22983e+9 
           2615      1.21835e+9 
           2625      1.20526e+9 
           2635      1.19423e+9 
           2645      1.20654e+9 
           2655      1.19549e+9 
           2665      1.16527e+9 
           2675      1.16926e+9 
           2685      1.16135e+9 
           2695      1.13594e+9 
           2705      1.13271e+9 
           2715      1.11692e+9 
           2725      1.09844e+9 
           2735      1.10341e+9 
           2745      1.06339e+9 
           2755      1.05936e+9 
           2765      1.05639e+9 
           2775      1.06435e+9 
           2785      1.05001e+9 
           2795      1.00803e+9 
           2805      1.02528e+9 
           2815      1.02656e+9 
           2825      1.00935e+9 
           2835      9.81381e+8 
           2845      9.83897e+8 
           2855      9.80251e+8 
           2865      9.79984e+8 
           2875      9.66615e+8 
           2885      9.60061e+8 
           2895      9.51373e+8 
           2910      9.38609e+8 
           2930      9.16668e+8 
           2950      8.96835e+8 
           2970      8.87658e+8 
           2990      8.68196e+8 
           3010      8.54909e+8 
           3030      8.43496e+8 
           3050      8.27732e+8 
           3070      8.13065e+8 
           3090       7.9555e+8 
           3110      7.83131e+8 
           3130      7.70925e+8 
           3150      7.57028e+8 
           3170      7.43044e+8 
           3190      7.23724e+8 
           3210      7.17183e+8 
           3230      7.05296e+8 
           3250      6.93895e+8 
           3270      6.82791e+8 
           3290      6.70617e+8 
           3310      6.60611e+8 
           3330      6.49201e+8 
           3350      6.37041e+8 
           3370      6.27512e+8 
           3390      6.17409e+8 
           3410      6.07499e+8 
           3430      5.95311e+8 
           3450      5.83903e+8 
           3470      5.75658e+8 
           3490      5.66512e+8 
           3510      5.59769e+8 
           3530      5.51449e+8 
           3550      5.42831e+8 
           3570      5.36086e+8 
           3590      5.24664e+8 
           3610      5.16727e+8 
           3630      5.08762e+8 
           3640      5.07449e+8 
           3650      5.00204e+8 
           3670      4.94263e+8 
           3690      4.79181e+8 
           3710      4.72496e+8 
           3730      4.68634e+8 
           3750      5.27247e+8 
           3770      5.35318e+8 
           3790      5.65431e+8 
           3810      5.92496e+8 
           3830      5.15467e+8 
           3850      6.07139e+8 
           3870      6.08551e+8 
           3890      4.90228e+8 
           3910      6.02941e+8 
           3930      5.84428e+8 
           3950      5.83258e+8 
           3970      4.56256e+8 
           3990      5.60334e+8 
           4010      5.56797e+8 
           4030      5.27485e+8 
           4050      5.44291e+8 
           4070      5.29176e+8 
           4090      4.94443e+8 
           4110      4.30208e+8 
           4130       4.9717e+8 
           4150      4.94336e+8 
           4170      4.90841e+8 
           4190       4.8608e+8 
           4210      4.79858e+8 
           4230      4.71562e+8 
           4250      4.63109e+8 
           4270      4.51136e+8 
           4290      4.48065e+8 
           4310      4.39089e+8 
           4330      4.01044e+8 
           4350      3.63878e+8 
           4370      4.18099e+8 
           4390      4.05658e+8 
           4410       4.0867e+8 
           4430      4.01149e+8 
           4450      3.97742e+8 
           4470      3.77335e+8 
           4490      3.82838e+8 
           4510      3.80784e+8 
           4530      3.73959e+8 
           4550       3.6855e+8 
           4570      3.63365e+8 
           4590       3.5822e+8 
           4610       3.5269e+8 
           4630      3.47277e+8 
           4650      3.40934e+8 
           4670      3.37553e+8 
           4690      3.33653e+8 
           4710      3.22504e+8 
           4730      3.21938e+8 
           4750      3.17096e+8 
           4770      3.15286e+8 
           4790      3.10393e+8 
           4810      3.04528e+8 
           4830      2.99234e+8 
           4850      2.78785e+8 
           4870      2.47734e+8 
           4890      2.87004e+8 
           4910       2.8428e+8 
           4930      2.74709e+8 
           4950       2.7726e+8 
           4970      2.74011e+8 
           4990      2.69958e+8 
           5010      2.61218e+8 
           5030      2.62123e+8 
           5050      2.55176e+8 
           5070      2.55702e+8 
           5090      2.52097e+8 
           5110      2.48382e+8 
           5130      2.44817e+8 
           5150      2.41598e+8 
           5170      2.39014e+8 
           5190      2.35833e+8 
           5210      2.30875e+8 
           5230      2.29774e+8 
           5250       2.2681e+8 
           5270      2.23681e+8 
           5290      2.21077e+8 
           5310      2.18132e+8 
           5330         2.15e+8 
           5350      2.11777e+8 
           5370      2.09889e+8 
           5390      2.07219e+8 
           5410      2.04441e+8 
           5430      2.01174e+8 
           5450       1.9894e+8 
           5470      1.96379e+8 
           5490      1.94414e+8 
           5510      1.91826e+8 
           5530      1.89369e+8 
           5550        1.872e+8 
           5570      1.84753e+8 
           5590      1.82625e+8 
           5610      1.80021e+8 
           5630      1.78281e+8 
           5650      1.74767e+8 
           5670       1.7295e+8 
           5690      1.71317e+8 
           5710      1.69622e+8 
           5730      1.67626e+8 
           5750      1.65505e+8 
           5770       1.6368e+8 
           5790      1.61697e+8 
           5810      1.59704e+8 
           5830      1.57779e+8 
           5850      1.55954e+8 
           5870      1.50027e+8 
           5890      1.51703e+8 
           5910       1.5043e+8 
           5930        1.487e+8 
           5950      1.46584e+8 
           5970      1.45297e+8 
           5990      1.43373e+8 
           6010      1.41982e+8 
           6030      1.40306e+8 
           6050      1.38722e+8 
           6070      1.37114e+8 
           6090      1.35473e+8 
           6110      1.34012e+8 
           6130      1.32508e+8 
           6150      1.30621e+8 
           6170      1.29459e+8 
           6190      1.28054e+8 
           6210      1.26605e+8 
           6230      1.25172e+8 
           6250      1.23601e+8 
           6270      1.22363e+8 
           6290      1.20977e+8 
           6310      1.19502e+8 
           6330      1.18353e+8 
           6350      1.16469e+8 
           6370      1.15386e+8 
           6390      1.14425e+8 
           6410      1.13134e+8 
           6430      1.12049e+8 
           6450      1.10766e+8 
           6470      1.09525e+8 
           6490      1.08385e+8 
           6510      1.07143e+8 
           6530       1.0563e+8 
           6550      1.01237e+8 
           6570       8.9546e+7 
           6590      1.01391e+8 
           6610      1.01485e+8 
           6630      1.00557e+8 
           6650      9.95525e+7 
           6670      9.76777e+7 
           6690      9.66989e+7 
           6710      9.64329e+7 
           6730      9.54281e+7 
           6750      9.44666e+7 
           6770      9.34901e+7 
           6790      9.23273e+7 
           6810      9.15258e+7 
           6830      9.05464e+7 
           6850      8.96652e+7 
           6870      8.87527e+7 
           6890      8.78335e+7 
           6910      8.69392e+7 
           6930       8.5991e+7 
           6950      8.51848e+7 
           6970      8.43244e+7 
           6990      8.34416e+7 
           7010      8.25982e+7 
           7030      8.17706e+7 
           7050      8.09283e+7 
           7070      7.89713e+7 
           7090      7.93657e+7 
           7110      7.85398e+7 
           7130      7.77737e+7 
           7150      7.69855e+7 
           7170      7.62415e+7 
           7190      7.55046e+7 
           7210      7.47674e+7 
           7230      7.34679e+7 
           7250      7.32638e+7 
           7270      7.25904e+7 
           7290      7.13774e+7 
           7310      7.11707e+7 
           7330      7.04953e+7 
           7350      6.98193e+7 
           7370      6.91482e+7 
           7390      6.84826e+7 
           7410      6.78267e+7 
           7430      6.71297e+7 
           7450      6.65261e+7 
           7470       6.5855e+7 
           7490      6.52553e+7 
           7510       6.4633e+7 
           7530      6.40397e+7 
           7550      6.34457e+7 
           7570      6.28545e+7 
           7590      6.22471e+7 
           7610       6.1679e+7 
           7630      6.11056e+7 
           7650      6.05336e+7 
           7670      5.99743e+7 
           7690      5.94156e+7 
           7710       5.8865e+7 
           7730      5.83174e+7 
           7750      5.77835e+7 
           7770      5.68749e+7 
           7790      5.67328e+7 
           7810       5.6182e+7 
           7830       5.5703e+7 
           7850      5.51353e+7 
           7870      5.46516e+7 
           7890      5.40584e+7 
           7910      5.37396e+7 
           7930       5.3267e+7 
           7950      5.26596e+7 
           7970      5.22017e+7 
           7990      5.16261e+7 
           8010      5.12829e+7 
           8030      5.08432e+7 
           8050      5.03996e+7 
           8070      4.99777e+7 
           8090      4.94586e+7 
           8110      4.90471e+7 
           8130      4.86705e+7 
           8150      4.81744e+7 
           8170      4.78423e+7 
           8190       4.7368e+7 
           8210      4.67837e+7 
           8230      4.64415e+7 
           8250      4.61557e+7 
           8270      4.55499e+7 
           8290      4.53161e+7 
           8310      4.49259e+7 
           8330      4.45546e+7 
           8350      4.39864e+7 
           8370       4.3664e+7 
           8390      4.33555e+7 
           8410      4.29375e+7 
           8430       4.2505e+7 
           8450      4.18266e+7 
           8470      4.14912e+7 
           8490      4.15426e+7 
           8510      4.05298e+7 
           8530      4.11084e+7 
           8550      3.90847e+7 
           8570      4.11159e+7 
