# Kurucz ODFNEW /NOVER (2003)
# teff = 21000 K (value for the effective temperature for the model. Temperatures are given in K)
# logg = 5 log(cm/s2) (value for Log(G) for the model.)
# meta = 0  (value for the Metallicity for the model.)
# lh = 1.25  (l/Hp where l is the  mixing length of the convective element and Hp is the pressure scale height)
# vtur = 2 km/s (Microturbulence velocity)
# alpha = 0  (Alpha)
#
# column 1: WAVELENGTH (ANGSTROM), Wavelength in Angstrom
# column 2: FLUX (ERG/CM2/S/A), Flux in erg/cm2/s/A
          147.2     9.24496e-18 
            151     4.94865e-17 
          155.2     2.87579e-16 
          158.8     1.20604e-15 
            162       4.092e-15 
            166     1.76443e-14 
          170.3     7.85502e-14 
          173.4     2.20643e-13 
          176.8     6.56421e-13 
          180.2     1.87518e-12 
          181.7     2.94196e-12 
          186.1     1.05978e-11 
            191     4.12398e-11 
          193.9     8.91081e-11 
          198.4     2.82108e-10 
          201.8     6.52739e-10 
            205      1.40374e-9 
          210.5      4.95093e-9 
          216.2      1.71172e-8 
          219.8      3.62872e-8 
            223      6.92998e-8 
          226.8      1.46098e-7 
            230      7.60723e-7 
            234      1.84416e-6 
            240      5.30377e-6 
          246.5      1.55597e-5 
          252.4      3.95453e-5 
          256.8       7.5613e-5 
            260     0.000123095 
            264     0.000217721 
          268.5     0.000404299 
          273.5     0.000784107 
          278.5      0.00149026 
            284      0.00294649 
            290      0.00598467 
            296       0.0117835 
            301       0.0203236 
            308       0.0418451 
            318        0.114147 
            328         0.28593 
            338        0.687547 
            348         1.55745 
            357         3.17259 
            366         6.18433 
            375         11.4788 
            385         22.1991 
            395         41.3129 
            405          74.519 
            414         123.822 
            422         189.439 
            430         285.349 
            441         491.869 
            451         786.238 
            460         1172.03 
            470         1798.55 
            480         2699.89 
            490         3990.41 
            500         5792.14 
            506         43229.5 
            512          198177 
            520          250294 
            530          343603 
            540          399803 
            550          573700 
            560          697574 
            570          893031 
            580          939696 
            590      1.26958e+6 
            600       1.5561e+6 
            610      1.91868e+6 
            620      2.22755e+6 
            630      2.62391e+6 
            640      2.87578e+6 
            650      3.02783e+6 
            658      3.85566e+6 
            665      4.31127e+6 
            675      4.86431e+6 
            685      5.48043e+6 
            695      6.57612e+6 
            705      7.32759e+6 
            716      8.39869e+6 
            726      9.31109e+6 
            735      1.02414e+7 
            745       1.1672e+7 
            755      1.30257e+7 
            765      1.44673e+7 
            775      1.60702e+7 
            785      1.77707e+7 
            795       1.9216e+7 
            805      2.09501e+7 
            815      2.26647e+7 
            825      2.50063e+7 
            835      2.62032e+7 
            845      2.86579e+7 
            855      3.08918e+7 
            865      3.35913e+7 
            875      3.65041e+7 
            885      3.97559e+7 
            895      4.25804e+7 
            905      4.39914e+7 
            915      6.14619e+7 
            925      2.08688e+8 
            935      4.87554e+8 
            945      1.74978e+9 
            955      4.45619e+9 
            965      6.40326e+9 
            975      1.23958e+9 
            985     1.01589e+10 
            995     1.03617e+10 
           1005     1.22337e+10 
           1015       9.0388e+9 
           1025      1.24634e+9 
           1035      5.83263e+9 
           1045     1.43185e+10 
           1055     1.43472e+10 
           1065     1.13169e+10 
           1075     1.38219e+10 
           1085      1.2247e+10 
           1095     1.37882e+10 
           1105     1.21325e+10 
           1115     1.15183e+10 
           1125     1.05084e+10 
           1135      1.2794e+10 
           1145     1.08045e+10 
           1155     1.17298e+10 
           1165     1.20361e+10 
           1175      8.67559e+9 
           1185     1.17562e+10 
           1195      8.40952e+9 
           1205      4.75236e+9 
           1215      1.29597e+9 
           1225      4.82565e+9 
           1235      9.86688e+9 
           1245     1.07009e+10 
           1255     1.05172e+10 
           1265      9.84067e+9 
           1275     1.05708e+10 
           1285      1.0803e+10 
           1295      7.45922e+9 
           1305      6.96287e+9 
           1315     1.00909e+10 
           1325      9.39536e+9 
           1335      8.49542e+9 
           1345      9.37687e+9 
           1355       9.1171e+9 
           1365       8.2365e+9 
           1375      8.24864e+9 
           1385      8.35071e+9 
           1395      7.23423e+9 
           1405       7.5593e+9 
           1415      7.50119e+9 
           1425      7.60073e+9 
           1435      7.55956e+9 
           1442      7.84815e+9 
           1447       7.7179e+9 
           1455      7.52275e+9 
           1465      7.02476e+9 
           1475      6.96204e+9 
           1485       6.7244e+9 
           1495      6.75864e+9 
           1505      6.19559e+9 
           1512      5.65339e+9 
           1517      5.90659e+9 
           1525      6.01244e+9 
           1535      5.38979e+9 
           1545      5.50537e+9 
           1555      5.21246e+9 
           1565      5.31572e+9 
           1575      5.58907e+9 
           1585      5.56301e+9 
           1595      5.59994e+9 
           1605      5.49674e+9 
           1615      5.45012e+9 
           1625      5.26583e+9 
           1635       5.4519e+9 
           1645      5.39626e+9 
           1655       5.0966e+9 
           1665      5.42123e+9 
           1672      5.19212e+9 
           1677      5.31713e+9 
           1685      5.34093e+9 
           1695      5.08285e+9 
           1705       4.8307e+9 
           1715      4.58112e+9 
           1725      4.49714e+9 
           1735      4.67936e+9 
           1745       4.5076e+9 
           1755      4.62493e+9 
           1765      4.30118e+9 
           1775      4.31563e+9 
           1785       4.3283e+9 
           1795      4.46296e+9 
           1805      4.44128e+9 
           1815      4.08016e+9 
           1825      4.20331e+9 
           1835      4.01307e+9 
           1845      3.70927e+9 
           1855      3.61979e+9 
           1865      3.66892e+9 
           1875      3.90754e+9 
           1885      3.54112e+9 
           1895      3.33263e+9 
           1905      3.56297e+9 
           1915      3.36098e+9 
           1925      3.26352e+9 
           1935      3.36994e+9 
           1945       3.4253e+9 
           1955      3.16522e+9 
           1967      3.38289e+9 
           1976      3.50025e+9 
           1984      3.24755e+9 
           1995      3.16896e+9 
           2005      3.24388e+9 
           2015      3.13995e+9 
           2025      3.29753e+9 
           2035      3.05761e+9 
           2045      3.07958e+9 
           2055      2.97064e+9 
           2065      3.01509e+9 
           2074      3.09705e+9 
           2078      2.90786e+9 
           2085      2.99141e+9 
           2095      2.83219e+9 
           2105      2.89411e+9 
           2115      2.87582e+9 
           2125      2.91681e+9 
           2135      2.82244e+9 
           2145      2.73707e+9 
           2155      2.80704e+9 
           2165       2.7536e+9 
           2175      2.71592e+9 
           2185      2.65229e+9 
           2195      2.67908e+9 
           2205      2.61772e+9 
           2215      2.56473e+9 
           2225      2.48138e+9 
           2235       2.5179e+9 
           2245      2.48864e+9 
           2255      2.40528e+9 
           2265      2.44004e+9 
           2275      2.41871e+9 
           2285      2.41952e+9 
           2295      2.32188e+9 
           2305      2.31312e+9 
           2315      2.25023e+9 
           2325      2.22394e+9 
           2335      2.14068e+9 
           2345      2.10492e+9 
           2355      2.12173e+9 
           2365      2.06226e+9 
           2375       2.0615e+9 
           2385      2.00808e+9 
           2395      2.04389e+9 
           2405       1.9743e+9 
           2415      1.97465e+9 
           2425      1.98345e+9 
           2435      1.91141e+9 
           2445      1.92958e+9 
           2455      1.91983e+9 
           2465      1.87911e+9 
           2475      1.84957e+9 
           2485      1.86558e+9 
           2495      1.79897e+9 
           2505      1.83051e+9 
           2513      1.74872e+9 
           2518      1.79983e+9 
           2525      1.74389e+9 
           2535      1.72078e+9 
           2545        1.686e+9 
           2555      1.71749e+9 
           2565      1.69216e+9 
           2575      1.70529e+9 
           2585        1.699e+9 
           2595      1.68246e+9 
           2605      1.65647e+9 
           2615      1.64267e+9 
           2625      1.62597e+9 
           2635      1.61495e+9 
           2645      1.62904e+9 
           2655      1.61375e+9 
           2665      1.56479e+9 
           2675      1.57086e+9 
           2685      1.55866e+9 
           2695      1.52045e+9 
           2705      1.51711e+9 
           2715      1.49266e+9 
           2725      1.46671e+9 
           2735      1.47907e+9 
           2745      1.41657e+9 
           2755        1.413e+9 
           2765      1.40704e+9 
           2775      1.42172e+9 
           2785      1.40264e+9 
           2795      1.34208e+9 
           2805      1.36614e+9 
           2815      1.37019e+9 
           2825      1.34144e+9 
           2835       1.2952e+9 
           2845      1.30338e+9 
           2855      1.30032e+9 
           2865      1.30355e+9 
           2875      1.28302e+9 
           2885      1.27314e+9 
           2895       1.2622e+9 
           2910      1.24567e+9 
           2930       1.2156e+9 
           2950       1.1832e+9 
           2970      1.17329e+9 
           2990      1.14522e+9 
           3010      1.12785e+9 
           3030      1.11247e+9 
           3050      1.08959e+9 
           3070      1.06856e+9 
           3090      1.04625e+9 
           3110      1.02715e+9 
           3130      1.01053e+9 
           3150      9.91399e+8 
           3170      9.70981e+8 
           3190      9.42851e+8 
           3210      9.36038e+8 
           3230      9.19824e+8 
           3250      9.03651e+8 
           3270      8.88333e+8 
           3290      8.71579e+8 
           3310      8.57777e+8 
           3330      8.42069e+8 
           3350      8.25431e+8 
           3370      8.12213e+8 
           3390      7.98429e+8 
           3410      7.84846e+8 
           3430      7.68515e+8 
           3450      7.53016e+8 
           3470      7.41764e+8 
           3490      7.29173e+8 
           3510      7.17492e+8 
           3530      7.06513e+8 
           3550      6.94868e+8 
           3570      6.87016e+8 
           3590      6.69678e+8 
           3610      6.60804e+8 
           3630       6.4891e+8 
           3640      6.48335e+8 
           3650      6.39585e+8 
           3670      6.32045e+8 
           3690      6.22058e+8 
           3710      6.01794e+8 
           3730       5.7643e+8 
           3750      5.79942e+8 
           3770      5.71287e+8 
           3790      6.11565e+8 
           3810      6.48476e+8 
           3830      5.54324e+8 
           3850      6.80057e+8 
           3870      7.09243e+8 
           3890      5.15796e+8 
           3910      7.06782e+8 
           3930      7.06827e+8 
           3950      6.86938e+8 
           3970      4.82717e+8 
           3990      6.52173e+8 
           4010      6.72931e+8 
           4030      6.19273e+8 
           4050      6.63494e+8 
           4070      6.38818e+8 
           4090      5.51804e+8 
           4110      4.68768e+8 
           4130      5.93954e+8 
           4150       6.0047e+8 
           4170       5.9988e+8 
           4190      5.94661e+8 
           4210      5.87388e+8 
           4230      5.76562e+8 
           4250      5.65224e+8 
           4270      5.47462e+8 
           4290      5.44232e+8 
           4310      5.25727e+8 
           4330      4.43261e+8 
           4350      3.99575e+8 
           4370      4.95845e+8 
           4390      4.80977e+8 
           4410      4.94891e+8 
           4430      4.86363e+8 
           4450      4.82172e+8 
           4470      4.42156e+8 
           4490      4.62781e+8 
           4510      4.62241e+8 
           4530      4.53708e+8 
           4550      4.47253e+8 
           4570      4.40785e+8 
           4590      4.34235e+8 
           4610      4.26735e+8 
           4630      4.19225e+8 
           4650      4.12647e+8 
           4670      4.08222e+8 
           4690      4.03103e+8 
           4710      3.87562e+8 
           4730      3.87996e+8 
           4750      3.82081e+8 
           4770       3.7986e+8 
           4790      3.72853e+8 
           4810      3.64304e+8 
           4830      3.53461e+8 
           4850      3.07245e+8 
           4870      2.70146e+8 
           4890      3.35419e+8 
           4910      3.38224e+8 
           4930       3.2372e+8 
           4950      3.32241e+8 
           4970      3.28826e+8 
           4990       3.2382e+8 
           5010      3.11048e+8 
           5030      3.13821e+8 
           5050      3.04693e+8 
           5070      3.06148e+8 
           5090      3.01769e+8 
           5110      2.96973e+8 
           5130      2.91985e+8 
           5150      2.87748e+8 
           5170      2.85497e+8 
           5190      2.81623e+8 
           5210      2.75648e+8 
           5230      2.74054e+8 
           5250       2.7048e+8 
           5270      2.66599e+8 
           5290      2.63591e+8 
           5310      2.59899e+8 
           5330      2.56189e+8 
           5350      2.52171e+8 
           5370      2.49917e+8 
           5390      2.46601e+8 
           5410       2.4321e+8 
           5430      2.39429e+8 
           5450      2.36635e+8 
           5470      2.33459e+8 
           5490      2.30937e+8 
           5510      2.27849e+8 
           5530      2.24984e+8 
           5550      2.22265e+8 
           5570      2.19323e+8 
           5590      2.16648e+8 
           5610      2.13669e+8 
           5630      2.11417e+8 
           5650      2.07268e+8 
           5670      2.04788e+8 
           5690      2.02735e+8 
           5710      2.00797e+8 
           5730      1.98411e+8 
           5750      1.95882e+8 
           5770      1.93644e+8 
           5790      1.91218e+8 
           5810      1.88811e+8 
           5830      1.86487e+8 
           5850      1.84256e+8 
           5870      1.74759e+8 
           5890        1.782e+8 
           5910      1.77535e+8 
           5930      1.75483e+8 
           5950        1.729e+8 
           5970      1.71384e+8 
           5990      1.69045e+8 
           6010        1.674e+8 
           6030      1.65369e+8 
           6050      1.63444e+8 
           6070       1.6153e+8 
           6090      1.59567e+8 
           6110      1.57798e+8 
           6130      1.55978e+8 
           6150       1.5357e+8 
           6170       1.5227e+8 
           6190      1.50609e+8 
           6210      1.48868e+8 
           6230      1.47118e+8 
           6250      1.45137e+8 
           6270      1.43743e+8 
           6290      1.42116e+8 
           6310      1.40374e+8 
           6330      1.38953e+8 
           6350      1.36612e+8 
           6370      1.35375e+8 
           6390      1.34234e+8 
           6410      1.32673e+8 
           6430      1.31384e+8 
           6450       1.2981e+8 
           6470      1.28181e+8 
           6490      1.26614e+8 
           6510      1.24815e+8 
           6530      1.22178e+8 
           6550      1.12661e+8 
           6570      9.83609e+7 
           6590      1.15895e+8 
           6610      1.17868e+8 
           6630      1.17209e+8 
           6650      1.16164e+8 
           6670      1.13453e+8 
           6690      1.12389e+8 
           6710      1.12682e+8 
           6730      1.11473e+8 
           6750      1.10342e+8 
           6770      1.09181e+8 
           6790       1.0764e+8 
           6810      1.06806e+8 
           6830      1.05672e+8 
           6850      1.04623e+8 
           6870      1.03536e+8 
           6890      1.02451e+8 
           6910      1.01378e+8 
           6930      1.00237e+8 
           6950      9.93017e+7 
           6970      9.82828e+7 
           6990      9.72509e+7 
           7010      9.62368e+7 
           7030      9.52555e+7 
           7050      9.42004e+7 
           7070      9.17086e+7 
           7090      9.23985e+7 
           7110      9.14025e+7 
           7130      9.04902e+7 
           7150       8.9572e+7 
           7170      8.86993e+7 
           7190      8.78276e+7 
           7210      8.69497e+7 
           7230      8.52225e+7 
           7250      8.51686e+7 
           7270      8.43728e+7 
           7290      8.28542e+7 
           7310      8.26976e+7 
           7330      8.18893e+7 
           7350      8.10956e+7 
           7370      8.02954e+7 
           7390      7.95095e+7 
           7410       7.8731e+7 
           7430      7.78983e+7 
           7450      7.71887e+7 
           7470      7.63776e+7 
           7490      7.56748e+7 
           7510      7.49517e+7 
           7530      7.42484e+7 
           7550      7.35515e+7 
           7570      7.28544e+7 
           7590       7.2144e+7 
           7610      7.14726e+7 
           7630      7.07942e+7 
           7650       7.0122e+7 
           7670      6.94558e+7 
           7690      6.88019e+7 
           7710      6.81539e+7 
           7730      6.75054e+7 
           7750      6.68814e+7 
           7770      6.58075e+7 
           7790      6.56376e+7 
           7810      6.50054e+7 
           7830       6.4428e+7 
           7850      6.37211e+7 
           7870      6.31543e+7 
           7890      6.24714e+7 
           7910      6.21078e+7 
           7930      6.15552e+7 
           7950      6.08525e+7 
           7970      6.03992e+7 
           7990      5.96841e+7 
           8010      5.93277e+7 
           8030      5.87697e+7 
           8050      5.82222e+7 
           8070      5.77142e+7 
           8090      5.71201e+7 
           8110      5.66342e+7 
           8130      5.61467e+7 
           8150      5.56214e+7 
           8170      5.51744e+7 
           8190      5.45919e+7 
           8210      5.39937e+7 
           8230      5.35302e+7 
           8250      5.32118e+7 
           8270      5.25708e+7 
           8290       5.2267e+7 
           8310      5.18368e+7 
           8330      5.13759e+7 
           8350      5.07551e+7 
           8370      5.04219e+7 
           8390      5.00833e+7 
           8410      4.96467e+7 
           8430      4.91819e+7 
           8450      4.83363e+7 
           8470      4.83351e+7 
           8490      4.78019e+7 
           8510      4.74188e+7 
           8530      4.69855e+7 
           8550      4.63299e+7 
           8570      4.64145e+7 
           8590      4.50535e+7 
