# Kurucz ODFNEW /NOVER (2003)
# teff = 9750 K (value for the effective temperature for the model. Temperatures are given in K)
# logg = 4 log(cm/s2) (value for Log(G) for the model.)
# meta = -0.5  (value for the Metallicity for the model.)
# lh = 1.25  (l/Hp where l is the  mixing length of the convective element and Hp is the pressure scale height)
# vtur = 2 km/s (Microturbulence velocity)
# alpha = 0  (Alpha)
#
# column 1: WAVELENGTH (ANGSTROM), Wavelength in Angstrom
# column 2: FLUX (ERG/CM2/S/A), Flux in erg/cm2/s/A
          273.5     3.63467e-23 
          278.5     1.71636e-22 
            284     7.85538e-22 
            290     3.78794e-21 
            296     1.70968e-20 
            301     5.74984e-20 
            308     2.94409e-19 
            318     2.68752e-18 
            328      2.1489e-17 
            338     1.52055e-16 
            348     9.62635e-16 
            357     4.63843e-15 
            366     2.07025e-14 
            375      8.5901e-14 
            385     3.85943e-13 
            395      1.6048e-12 
            405     6.21348e-12 
            414     1.98489e-11 
            422     5.34217e-11 
            430     1.38432e-10 
            441     4.84101e-10 
            451      1.43012e-9 
            460      3.63679e-9 
            470      9.82396e-9 
            480      2.54243e-8 
            490      6.32328e-8 
            500      1.51385e-7 
            506      2.75224e-7 
            512      4.66902e-7 
            520      8.79295e-7 
            530      1.89143e-6 
            540       3.9306e-6 
            550      7.98492e-6 
            560      1.57611e-5 
            570      3.03529e-5 
            580      5.69663e-5 
            590     0.000105011 
            600     0.000189066 
            610     0.000333579 
            620     0.000577276 
            630     0.000980787 
            640      0.00163789 
            650      0.00269034 
            658      0.00395538 
            665      0.00549685 
            675      0.00868596 
            685       0.0135317 
            695       0.0207939 
            705       0.0315391 
            716       0.0491782 
            726       0.0727262 
            735        0.102407 
            745        0.148228 
            755        0.212294 
            765        0.300984 
            775        0.422683 
            785        0.588027 
            795        0.810473 
            805         1.10782 
            815         1.50142 
            825         2.01852 
            835         2.69299 
            845         3.56662 
            855         4.68917 
            865         6.12203 
            875          7.9393 
            885         10.2303 
            895         13.1005 
            905         16.6736 
            915         175.202 
            925         1279.94 
            935         2218.17 
            945         3856.75 
            955         5668.14 
            965         7501.21 
            975         6071.26 
            985           10817 
            995         11982.7 
           1005         14783.1 
           1015         16103.7 
           1025         11019.8 
           1035           20656 
           1045           25803 
           1055         29672.6 
           1065         32655.7 
           1075         38249.1 
           1085         43166.8 
           1095         46928.4 
           1105          133105 
           1115      5.33659e+6 
           1125      8.30807e+6 
           1135      1.07674e+7 
           1145      9.18587e+6 
           1155      8.69427e+6 
           1165      6.74975e+6 
           1175      3.00592e+6 
           1185       1.7102e+6 
           1195          145149 
           1205          110459 
           1215         28102.4 
           1225          116193 
           1235          251791 
           1245          764578 
           1255      7.12976e+6 
           1265      1.40778e+7 
           1275      3.34245e+7 
           1285      5.53108e+7 
           1295      6.14237e+7 
           1305      4.15325e+7 
           1315      7.29396e+7 
           1325       8.5132e+7 
           1335      8.41954e+7 
           1345      1.02367e+8 
           1355       9.5562e+7 
           1365      8.70417e+7 
           1375      9.34757e+7 
           1385      8.84818e+7 
           1395       9.1407e+7 
           1405      1.01891e+8 
           1415      1.01995e+8 
           1425      1.10691e+8 
           1435      1.00142e+8 
           1442      1.12821e+8 
           1447      1.20361e+8 
           1455      1.21748e+8 
           1465      1.11762e+8 
           1475       1.0775e+8 
           1485       1.1182e+8 
           1495      1.19477e+8 
           1505      1.21224e+8 
           1512      1.12537e+8 
           1517      1.20833e+8 
           1525      1.14019e+8 
           1535       1.1246e+8 
           1545      1.22949e+8 
           1555      1.06195e+8 
           1565      9.30155e+7 
           1575      1.08835e+8 
           1585      1.18808e+8 
           1595       1.2563e+8 
           1605       1.1872e+8 
           1615      1.18193e+8 
           1625      1.07243e+8 
           1635      1.11613e+8 
           1645      1.19187e+8 
           1655      9.85072e+7 
           1665      1.17315e+8 
           1672      9.08004e+7 
           1677      1.09892e+8 
           1685      1.20301e+8 
           1695      1.10457e+8 
           1705      1.07357e+8 
           1715      1.08774e+8 
           1725      1.06957e+8 
           1735      1.12102e+8 
           1745       1.0884e+8 
           1755      1.16937e+8 
           1765      1.02105e+8 
           1775      1.12702e+8 
           1785      1.11295e+8 
           1795      1.18934e+8 
           1805      1.13186e+8 
           1815      1.12319e+8 
           1825       1.0761e+8 
           1835        1.055e+8 
           1845      9.84315e+7 
           1855      1.02451e+8 
           1865      1.02842e+8 
           1875        1.065e+8 
           1885      1.05926e+8 
           1895      1.04482e+8 
           1905       9.9938e+7 
           1915      1.03006e+8 
           1925      1.03718e+8 
           1935      1.00868e+8 
           1945      1.05888e+8 
           1955      1.04324e+8 
           1967      1.05996e+8 
           1976       1.0374e+8 
           1984      1.01546e+8 
           1995      9.91133e+7 
           2005      9.75367e+7 
           2015      9.38895e+7 
           2025      9.36535e+7 
           2035      9.59284e+7 
           2045      9.80193e+7 
           2055      9.39632e+7 
           2065      9.28345e+7 
           2074      9.60856e+7 
           2078      9.80978e+7 
           2085      9.72496e+7 
           2095      9.39973e+7 
           2105      9.23666e+7 
           2115      9.21606e+7 
           2125      9.25884e+7 
           2135       8.1911e+7 
           2145      8.95761e+7 
           2155      8.96472e+7 
           2165      8.57989e+7 
           2175      8.46454e+7 
           2185      8.47246e+7 
           2195      8.88805e+7 
           2205      8.54494e+7 
           2215      7.93583e+7 
           2225      7.86086e+7 
           2235      8.56974e+7 
           2245      7.84625e+7 
           2255       7.7168e+7 
           2265      7.70829e+7 
           2275      8.13637e+7 
           2285      8.31713e+7 
           2295      7.84211e+7 
           2305      7.76004e+7 
           2315      7.57575e+7 
           2325      7.58111e+7 
           2335      7.32975e+7 
           2345       6.7998e+7 
           2355      7.48497e+7 
           2365      6.84457e+7 
           2375      7.18245e+7 
           2385      6.43051e+7 
           2395      6.94543e+7 
           2405      6.66438e+7 
           2415      6.79082e+7 
           2425      7.08343e+7 
           2435      6.77503e+7 
           2445      7.16337e+7 
           2455      6.91324e+7 
           2465      6.86718e+7 
           2475      6.61377e+7 
           2485      6.93401e+7 
           2495      6.71816e+7 
           2505      7.23378e+7 
           2513      6.70877e+7 
           2518      6.76355e+7 
           2525      6.37098e+7 
           2535      6.29033e+7 
           2545      6.30846e+7 
           2555      6.64237e+7 
           2565      6.61645e+7 
           2575      6.96401e+7 
           2585      6.96661e+7 
           2595      6.90183e+7 
           2605      6.63465e+7 
           2615      6.59448e+7 
           2625      6.81605e+7 
           2635      6.84255e+7 
           2645      7.36278e+7 
           2655      7.26681e+7 
           2665      6.85327e+7 
           2675      7.04062e+7 
           2685       7.0515e+7 
           2695      6.78194e+7 
           2705      6.86781e+7 
           2715      6.60879e+7 
           2725      6.63191e+7 
           2735      6.99245e+7 
           2745      6.22914e+7 
           2755      6.25945e+7 
           2765      6.45127e+7 
           2775      6.74878e+7 
           2785      6.64309e+7 
           2795      5.55785e+7 
           2805      6.04211e+7 
           2815      6.82838e+7 
           2825      6.82308e+7 
           2835      6.61285e+7 
           2845      6.42123e+7 
           2855       6.2788e+7 
           2865      6.53475e+7 
           2875      6.39731e+7 
           2885      6.52051e+7 
           2895      6.37035e+7 
           2910      6.77286e+7 
           2930      6.53503e+7 
           2950      6.50862e+7 
           2970      6.52846e+7 
           2990        6.524e+7 
           3010      6.58354e+7 
           3030      6.52646e+7 
           3050      6.45816e+7 
           3070      6.37629e+7 
           3090      6.40725e+7 
           3110      6.29745e+7 
           3130      6.24761e+7 
           3150      6.27066e+7 
           3170      6.21953e+7 
           3190      6.04183e+7 
           3210      6.10717e+7 
           3230      6.00252e+7 
           3250      6.02161e+7 
           3270      6.02568e+7 
           3290      6.02922e+7 
           3310      6.01709e+7 
           3330      5.91208e+7 
           3350      5.81954e+7 
           3370      5.81569e+7 
           3390      5.75743e+7 
           3410      5.80122e+7 
           3430      5.76643e+7 
           3450      5.72888e+7 
           3470      5.66773e+7 
           3490      5.63698e+7 
           3510      5.63989e+7 
           3530      5.62363e+7 
           3550      5.59541e+7 
           3570      5.52137e+7 
           3590      5.48925e+7 
           3610      5.45664e+7 
           3630      5.42498e+7 
           3640      5.40289e+7 
           3650      5.45335e+7 
           3670      5.42484e+7 
           3690      5.22426e+7 
           3710      5.32547e+7 
           3730      5.44993e+7 
           3750      6.92887e+7 
           3770      7.45327e+7 
           3790      9.34709e+7 
           3810      1.10763e+8 
           3830      8.67416e+7 
           3850      1.22813e+8 
           3870      1.40425e+8 
           3890      7.40558e+7 
           3910      1.39047e+8 
           3930        1.464e+8 
           3950      1.38209e+8 
           3970      7.06805e+7 
           3990      1.30901e+8 
           4010      1.45858e+8 
           4030      1.45269e+8 
           4050      1.43413e+8 
           4070      1.36613e+8 
           4090      1.03474e+8 
           4110      7.76314e+7 
           4130      1.28317e+8 
           4150      1.33881e+8 
           4170      1.32832e+8 
           4190      1.31526e+8 
           4210       1.2991e+8 
           4230      1.27398e+8 
           4250      1.25841e+8 
           4270      1.23545e+8 
           4290      1.21544e+8 
           4310      1.14633e+8 
           4330      8.35926e+7 
           4350      7.04801e+7 
           4370      1.09976e+8 
           4390      1.12616e+8 
           4410      1.12549e+8 
           4430      1.11683e+8 
           4450      1.10851e+8 
           4470      1.09322e+8 
           4490      1.06943e+8 
           4510      1.06441e+8 
           4530      1.04944e+8 
           4550      1.02842e+8 
           4570      1.02618e+8 
           4590      1.00864e+8 
           4610      1.00533e+8 
           4630      9.84717e+7 
           4650      9.79679e+7 
           4670      9.66642e+7 
           4690      9.50212e+7 
           4710      9.25669e+7 
           4730      9.30268e+7 
           4750      9.17742e+7 
           4770      9.04979e+7 
           4790      8.90886e+7 
           4810      8.70988e+7 
           4830      8.28311e+7 
           4850       6.2993e+7 
           4870      5.06173e+7 
           4890       7.7786e+7 
           4910      8.15697e+7 
           4930       8.1058e+7 
           4950      8.09347e+7 
           4970      8.02435e+7 
           4990      7.92838e+7 
           5010      7.77906e+7 
           5030      7.73906e+7 
           5050      7.61746e+7 
           5070      7.57126e+7 
           5090      7.48308e+7 
           5110      7.39375e+7 
           5130      7.30758e+7 
           5150      7.21386e+7 
           5170      7.06132e+7 
           5190      6.99931e+7 
           5210      6.96803e+7 
           5230       6.8552e+7 
           5250      6.81701e+7 
           5270      6.69347e+7 
           5290      6.66315e+7 
           5310      6.55921e+7 
           5330      6.49363e+7 
           5350      6.44477e+7 
           5370      6.36407e+7 
           5390      6.29566e+7 
           5410      6.21599e+7 
           5430      6.15354e+7 
           5450      6.09312e+7 
           5470      6.02485e+7 
           5490      5.96078e+7 
           5510        5.895e+7 
           5530      5.82558e+7 
           5550      5.76973e+7 
           5570       5.7053e+7 
           5590      5.64405e+7 
           5610      5.58569e+7 
           5630      5.52646e+7 
           5650      5.46463e+7 
           5670      5.40587e+7 
           5690      5.35013e+7 
           5710      5.29412e+7 
           5730      5.23932e+7 
           5750      5.18232e+7 
           5770      5.12823e+7 
           5790      5.07343e+7 
           5810      5.02104e+7 
           5830      4.96869e+7 
           5850      4.91705e+7 
           5870      4.86053e+7 
           5890      4.79533e+7 
           5910       4.7653e+7 
           5930      4.71703e+7 
           5950      4.66526e+7 
           5970      4.61947e+7 
           5990      4.56914e+7 
           6010      4.52418e+7 
           6030      4.48034e+7 
           6050      4.43409e+7 
           6070       4.3906e+7 
           6090      4.34627e+7 
           6110      4.30243e+7 
           6130      4.25816e+7 
           6150      4.19893e+7 
           6170      4.17294e+7 
           6190      4.13402e+7 
           6210      4.09298e+7 
           6230       4.0517e+7 
           6250      4.00305e+7 
           6270      3.97362e+7 
           6290      3.93468e+7 
           6310      3.89398e+7 
           6330      3.85756e+7 
           6350      3.80116e+7 
           6370      3.77157e+7 
           6390      3.74588e+7 
           6410       3.7075e+7 
           6430      3.67236e+7 
           6450      3.62173e+7 
           6470        3.591e+7 
           6490       3.5435e+7 
           6510      3.48558e+7 
           6530      3.36531e+7 
           6550       2.8844e+7 
           6570      2.32191e+7 
           6590      3.15953e+7 
           6610      3.30219e+7 
           6630      3.31144e+7 
           6650      3.29445e+7 
           6670      3.26922e+7 
           6690      3.24532e+7 
           6710      3.21864e+7 
           6730      3.18756e+7 
           6750      3.15895e+7 
           6770      3.13094e+7 
           6790      3.10214e+7 
           6810       3.0738e+7 
           6830      3.04492e+7 
           6850      3.01753e+7 
           6870      2.99049e+7 
           6890      2.96347e+7 
           6910      2.93656e+7 
           6930      2.90975e+7 
           6950       2.8839e+7 
           6970      2.85799e+7 
           6990      2.83264e+7 
           7010      2.80492e+7 
           7030      2.78174e+7 
           7050      2.75681e+7 
           7070      2.73294e+7 
           7090      2.70915e+7 
           7110      2.67754e+7 
           7130      2.66024e+7 
           7150       2.6369e+7 
           7170      2.61474e+7 
           7190      2.59169e+7 
           7210      2.56921e+7 
           7230      2.54651e+7 
           7250      2.52359e+7 
           7270      2.50303e+7 
           7290      2.48074e+7 
           7310      2.45928e+7 
           7330      2.43866e+7 
           7350      2.41801e+7 
           7370      2.39756e+7 
           7390      2.37666e+7 
           7410      2.35582e+7 
           7430      2.33381e+7 
           7450      2.31519e+7 
           7470      2.29302e+7 
           7490      2.27575e+7 
           7510       2.2575e+7 
           7530      2.23935e+7 
           7550      2.22095e+7 
           7570      2.20227e+7 
           7590      2.18394e+7 
           7610      2.16584e+7 
           7630       2.1477e+7 
           7650      2.12954e+7 
           7670      2.11166e+7 
           7690      2.09451e+7 
           7710      2.07688e+7 
           7730      2.06053e+7 
           7750      2.04357e+7 
           7770      1.99725e+7 
           7790      2.01041e+7 
           7810      1.99414e+7 
           7830      1.97733e+7 
           7850      1.96042e+7 
           7870      1.94128e+7 
           7890       1.9231e+7 
           7910      1.91333e+7 
           7930      1.89866e+7 
           7950      1.88053e+7 
           7970      1.86891e+7 
           7990      1.84511e+7 
           8010      1.83902e+7 
           8030       1.8242e+7 
           8050      1.80998e+7 
           8070      1.79535e+7 
           8090      1.78124e+7 
           8110      1.76731e+7 
           8130      1.75361e+7 
           8150      1.73985e+7 
           8170      1.72621e+7 
           8190      1.70892e+7 
           8210      1.70194e+7 
           8230      1.68879e+7 
           8250      1.67762e+7 
           8270      1.67045e+7 
           8290      1.65785e+7 
           8310      1.64655e+7 
           8330      1.63029e+7 
           8350      1.62212e+7 
           8370      1.60916e+7 
           8390       1.5947e+7 
           8410      1.57988e+7 
           8430      1.56619e+7 
           8450      1.54163e+7 
           8470       1.5185e+7 
           8490      1.53472e+7 
           8510      1.46702e+7 
           8530      1.52564e+7 
           8550      1.38885e+7 
           8570      1.53405e+7 
           8590      1.41935e+7 
           8610      1.38384e+7 
           8630      1.54411e+7 
           8650      1.46764e+7 
           8670      1.22212e+7 
           8690      1.50246e+7 
           8710      1.56543e+7 
           8730      1.48674e+7 
           8750      1.16041e+7 
           8770      1.40155e+7 
           8790      1.55408e+7 
           8810      1.57174e+7 
           8830      1.52182e+7 
           8850      1.32135e+7 
           8870        1.114e+7 
           8890      1.42656e+7 
           8910      1.51241e+7 
           8930      1.52445e+7 
           8950      1.52103e+7 
           8970      1.48817e+7 
           8990      1.39365e+7 
           9010      1.08898e+7 
           9030      1.19102e+7 
           9050      1.39708e+7 
           9070      1.43214e+7 
           9090      1.42953e+7 
           9110      1.43974e+7 
           9130      1.43498e+7 
           9150       1.4225e+7 
           9170      1.40058e+7 
           9190      1.35626e+7 
           9210      1.23251e+7 
