# Kurucz ODFNEW /NOVER (2003)
# teff = 22000 K (value for the effective temperature for the model. Temperatures are given in K)
# logg = 3.5 log(cm/s2) (value for Log(G) for the model.)
# meta = -1  (value for the Metallicity for the model.)
# lh = 1.25  (l/Hp where l is the  mixing length of the convective element and Hp is the pressure scale height)
# vtur = 2 km/s (Microturbulence velocity)
# alpha = 0.4  (Alpha)
#
# column 1: WAVELENGTH (ANGSTROM), Wavelength in Angstrom
# column 2: FLUX (ERG/CM2/S/A), Flux in erg/cm2/s/A
          147.2     1.23933e-17 
            151     6.81801e-17 
          155.2      4.1059e-16 
          158.8     1.78524e-15 
            162     6.26992e-15 
            166     2.82848e-14 
          170.3     1.32612e-13 
          173.4     3.86282e-13 
          176.8     1.19708e-12 
          180.2     3.56078e-12 
          181.7     5.68765e-12 
          186.1     2.15509e-11 
            191     8.85311e-11 
          193.9     1.97617e-10 
          198.4     6.56047e-10 
          201.8      1.56813e-9 
            205      3.46833e-9 
          210.5      1.28279e-8 
          216.2      4.63424e-8 
          219.8      1.00701e-7 
            223      1.96505e-7 
          226.8      4.23923e-7 
            230      1.01375e-5 
            234      2.48305e-5 
            240      6.67517e-5 
          246.5     0.000184383 
          252.4     0.000448303 
          256.8      0.00080663 
            260      0.00130796 
            264      0.00223148 
          268.5      0.00399543 
          273.5      0.00743615 
          278.5       0.0136019 
            284       0.0259328 
            290       0.0503724 
            296       0.0950982 
            301        0.158092 
            308        0.305684 
            318        0.802679 
            328         1.88564 
            338         4.31324 
            348          9.2683 
            357          18.674 
            366         35.0586 
            375         62.0234 
            385         114.936 
            395         204.794 
            405         354.026 
            414         569.525 
            422         841.043 
            430         1232.47 
            441         2041.51 
            451         3164.59 
            460         4574.52 
            470         6810.12 
            480         9913.51 
            490         14250.9 
            500         20170.1 
            506          175361 
            512          618589 
            520          765301 
            530      1.04889e+6 
            540      1.15918e+6 
            550      1.67878e+6 
            560      2.00906e+6 
            570      2.50689e+6 
            580      2.52333e+6 
            590      3.38483e+6 
            600       4.1413e+6 
            610      5.00288e+6 
            620      5.73709e+6 
            630      6.68431e+6 
            640      7.31725e+6 
            650      7.92933e+6 
            658      9.71486e+6 
            665      1.05899e+7 
            675      1.15444e+7 
            685      1.28613e+7 
            695      1.52642e+7 
            705      1.66617e+7 
            716      1.90784e+7 
            726      2.07707e+7 
            735      2.27352e+7 
            745      2.56931e+7 
            755      2.83116e+7 
            765      3.10344e+7 
            775      3.42248e+7 
            785      3.74782e+7 
            795      4.02375e+7 
            805      4.35704e+7 
            815      4.65897e+7 
            825      5.09358e+7 
            835      5.21172e+7 
            845      5.75996e+7 
            855      6.15372e+7 
            865      6.63358e+7 
            875      7.15103e+7 
            885      7.71184e+7 
            895      8.20454e+7 
            905      8.50122e+7 
            915         1.45e+8 
            925      1.36215e+9 
            935      4.17416e+9 
            945      9.68754e+9 
            955     1.22649e+10 
            965     1.49381e+10 
            975      4.14447e+9 
            985     1.50214e+10 
            995     1.41064e+10 
           1005     1.52225e+10 
           1015     1.46969e+10 
           1025      6.41027e+9 
           1035     1.19287e+10 
           1045     1.67061e+10 
           1055     1.58026e+10 
           1065     1.36838e+10 
           1075     1.52615e+10 
           1085      1.3967e+10 
           1095     1.53391e+10 
           1105     1.38295e+10 
           1115     1.35774e+10 
           1125     1.23131e+10 
           1135     1.42556e+10 
           1145     1.30287e+10 
           1155     1.35843e+10 
           1165     1.36813e+10 
           1175     1.05963e+10 
           1185     1.32545e+10 
           1195     1.17594e+10 
           1205      7.84502e+9 
           1215       4.7454e+9 
           1225     1.05812e+10 
           1235     1.20494e+10 
           1245     1.21164e+10 
           1255     1.17643e+10 
           1265     1.15764e+10 
           1275     1.18565e+10 
           1285     1.15682e+10 
           1295      8.86278e+9 
           1305      9.17277e+9 
           1315     1.10893e+10 
           1325     1.05687e+10 
           1335     1.01267e+10 
           1345     1.02374e+10 
           1355     1.02807e+10 
           1365      9.70441e+9 
           1375      9.54624e+9 
           1385      9.52554e+9 
           1395      7.97684e+9 
           1405      8.37592e+9 
           1415      8.87849e+9 
           1425      8.71869e+9 
           1435      8.80013e+9 
           1442      8.91364e+9 
           1447      8.75121e+9 
           1455      8.57089e+9 
           1465      8.25348e+9 
           1475       8.1674e+9 
           1485      7.99166e+9 
           1495      7.86083e+9 
           1505       7.4234e+9 
           1512      6.98537e+9 
           1517      7.14599e+9 
           1525      7.17942e+9 
           1535      6.57727e+9 
           1545      6.66743e+9 
           1555      6.35463e+9 
           1565      6.57639e+9 
           1575      6.72961e+9 
           1585      6.60987e+9 
           1595      6.61121e+9 
           1605      6.43242e+9 
           1615      6.32296e+9 
           1625       6.2635e+9 
           1635      6.37455e+9 
           1645      6.25677e+9 
           1655      6.15622e+9 
           1665      6.18197e+9 
           1672      6.01496e+9 
           1677      6.19575e+9 
           1685      6.08518e+9 
           1695       5.8784e+9 
           1705      5.68562e+9 
           1715      5.46786e+9 
           1725        5.413e+9 
           1735      5.45716e+9 
           1745      5.35731e+9 
           1755      5.37863e+9 
           1765      5.17225e+9 
           1775      5.05937e+9 
           1785      5.04245e+9 
           1795      5.10604e+9 
           1805       5.0791e+9 
           1815      4.77615e+9 
           1825      4.85358e+9 
           1835      4.73739e+9 
           1845      4.40883e+9 
           1855      4.36427e+9 
           1865      4.41237e+9 
           1875      4.50227e+9 
           1885      4.14503e+9 
           1895      3.90061e+9 
           1905      4.12946e+9 
           1915       3.9566e+9 
           1925       3.8243e+9 
           1935      3.95089e+9 
           1945      3.98924e+9 
           1955      3.70448e+9 
           1967      3.88668e+9 
           1976      4.00824e+9 
           1984      3.76973e+9 
           1995      3.68047e+9 
           2005      3.73597e+9 
           2015      3.72357e+9 
           2025      3.78078e+9 
           2035      3.55449e+9 
           2045      3.55161e+9 
           2055      3.44675e+9 
           2065      3.47414e+9 
           2074      3.56535e+9 
           2078      3.37462e+9 
           2085      3.42887e+9 
           2095      3.28694e+9 
           2105      3.34506e+9 
           2115      3.32235e+9 
           2125      3.35739e+9 
           2135      3.29172e+9 
           2145      3.16505e+9 
           2155      3.22725e+9 
           2165      3.19638e+9 
           2175      3.14659e+9 
           2185      3.09734e+9 
           2195       3.0899e+9 
           2205      3.05101e+9 
           2215      3.01377e+9 
           2225       2.9509e+9 
           2235      2.91596e+9 
           2245      2.91164e+9 
           2255      2.84787e+9 
           2265      2.84554e+9 
           2275      2.80872e+9 
           2285      2.79133e+9 
           2295      2.69031e+9 
           2305      2.71495e+9 
           2315      2.65935e+9 
           2325      2.63178e+9 
           2335      2.56438e+9 
           2345      2.54803e+9 
           2355      2.54818e+9 
           2365      2.50829e+9 
           2375      2.47565e+9 
           2385       2.4448e+9 
           2395      2.42384e+9 
           2405      2.39102e+9 
           2415      2.35427e+9 
           2425      2.35521e+9 
           2435      2.30877e+9 
           2445      2.29301e+9 
           2455      2.27918e+9 
           2465      2.24566e+9 
           2475      2.21992e+9 
           2485      2.19313e+9 
           2495      2.08287e+9 
           2505      2.14072e+9 
           2513      2.07628e+9 
           2518      2.10459e+9 
           2525      2.08602e+9 
           2535      2.06057e+9 
           2545      2.00759e+9 
           2555      2.02122e+9 
           2565      1.98825e+9 
           2575      1.98767e+9 
           2585      1.96505e+9 
           2595      1.94456e+9 
           2605      1.93366e+9 
           2615      1.91333e+9 
           2625      1.89463e+9 
           2635      1.86986e+9 
           2645      1.86049e+9 
           2655      1.84056e+9 
           2665      1.80848e+9 
           2675      1.79619e+9 
           2685      1.78827e+9 
           2695      1.74857e+9 
           2705      1.74396e+9 
           2715      1.72643e+9 
           2725      1.69577e+9 
           2735      1.69251e+9 
           2745       1.6541e+9 
           2755      1.64415e+9 
           2765        1.624e+9 
           2775      1.62548e+9 
           2785      1.60489e+9 
           2795      1.55099e+9 
           2805      1.56159e+9 
           2815      1.55893e+9 
           2825      1.52993e+9 
           2835      1.50022e+9 
           2845      1.50891e+9 
           2855      1.49268e+9 
           2865      1.48067e+9 
           2875      1.46496e+9 
           2885      1.45125e+9 
           2895      1.43544e+9 
           2910      1.41201e+9 
           2930      1.38165e+9 
           2950        1.348e+9 
           2970      1.33093e+9 
           2990      1.30194e+9 
           3010      1.27554e+9 
           3030      1.25519e+9 
           3050      1.23125e+9 
           3070      1.20799e+9 
           3090      1.17772e+9 
           3110      1.16126e+9 
           3130      1.13977e+9 
           3150      1.11855e+9 
           3170      1.09661e+9 
           3190      1.06809e+9 
           3210      1.05669e+9 
           3230      1.03635e+9 
           3250      1.01778e+9 
           3270      1.00016e+9 
           3290      9.80448e+8 
           3310      9.64544e+8 
           3330      9.46911e+8 
           3350       9.2832e+8 
           3370      9.13254e+8 
           3390      8.97331e+8 
           3410       8.8162e+8 
           3430      8.61666e+8 
           3450      8.43507e+8 
           3470      8.31183e+8 
           3490      8.16952e+8 
           3510      8.07057e+8 
           3530        7.944e+8 
           3550       7.8108e+8 
           3570      7.71112e+8 
           3590      7.53248e+8 
           3610      7.41225e+8 
           3630      7.28591e+8 
           3640      7.27067e+8 
           3650      7.13333e+8 
           3670      7.04656e+8 
           3690      6.84726e+8 
           3710      6.69426e+8 
           3730      6.57284e+8 
           3750      7.19115e+8 
           3770      7.23751e+8 
           3790      7.52877e+8 
           3810      7.81456e+8 
           3830      6.90029e+8 
           3850      7.95141e+8 
           3870      7.89711e+8 
           3890      6.58251e+8 
           3910      7.77973e+8 
           3930      7.56659e+8 
           3950      7.51914e+8 
           3970      6.11481e+8 
           3990      7.24135e+8 
           4010      7.15711e+8 
           4030      6.81253e+8 
           4050      6.98198e+8 
           4070      6.79482e+8 
           4090      6.41324e+8 
           4110      5.68035e+8 
           4130      6.40534e+8 
           4150      6.35403e+8 
           4170      6.29821e+8 
           4190       6.2172e+8 
           4210      6.13234e+8 
           4230      6.02733e+8 
           4250      5.91629e+8 
           4270      5.77856e+8 
           4290      5.72235e+8 
           4310      5.60751e+8 
           4330        5.206e+8 
           4350      4.75986e+8 
           4370      5.34234e+8 
           4390      5.18724e+8 
           4410      5.20402e+8 
           4430       5.1174e+8 
           4450      5.05895e+8 
           4470      4.81524e+8 
           4490      4.88755e+8 
           4510      4.83912e+8 
           4530      4.76105e+8 
           4550      4.68398e+8 
           4570      4.61097e+8 
           4590      4.54548e+8 
           4610       4.4767e+8 
           4630      4.41175e+8 
           4650      4.31865e+8 
           4670      4.27793e+8 
           4690      4.22611e+8 
           4710      4.09673e+8 
           4730      4.08826e+8 
           4750      4.02368e+8 
           4770      3.98901e+8 
           4790      3.92967e+8 
           4810      3.86465e+8 
           4830      3.79541e+8 
           4850      3.57903e+8 
           4870       3.2166e+8 
           4890      3.63573e+8 
           4910      3.60039e+8 
           4930      3.48056e+8 
           4950      3.49938e+8 
           4970      3.45709e+8 
           4990       3.4075e+8 
           5010       3.3095e+8 
           5030      3.31227e+8 
           5050       3.2366e+8 
           5070      3.22357e+8 
           5090      3.17851e+8 
           5110      3.13435e+8 
           5130      3.08849e+8 
           5150      3.04693e+8 
           5170      3.00959e+8 
           5190      2.96938e+8 
           5210      2.92233e+8 
           5230       2.8908e+8 
           5250      2.85228e+8 
           5270      2.81371e+8 
           5290       2.7774e+8 
           5310      2.74035e+8 
           5330      2.70351e+8 
           5350      2.66596e+8 
           5370      2.63452e+8 
           5390      2.59983e+8 
           5410       2.5661e+8 
           5430      2.53024e+8 
           5450      2.49863e+8 
           5470      2.46655e+8 
           5490      2.43648e+8 
           5510       2.4053e+8 
           5530      2.37438e+8 
           5550      2.34483e+8 
           5570      2.31466e+8 
           5590      2.28619e+8 
           5610      2.25616e+8 
           5630      2.22934e+8 
           5650      2.19647e+8 
           5670      2.16893e+8 
           5690      2.14208e+8 
           5710      2.11947e+8 
           5730       2.0938e+8 
           5750      2.06616e+8 
           5770      2.04326e+8 
           5790      2.01827e+8 
           5810      1.99346e+8 
           5830      1.96883e+8 
           5850      1.94549e+8 
           5870      1.87146e+8 
           5890      1.89418e+8 
           5910      1.87555e+8 
           5930      1.85285e+8 
           5950      1.82967e+8 
           5970      1.81003e+8 
           5990      1.78736e+8 
           6010      1.76735e+8 
           6030      1.74632e+8 
           6050      1.72604e+8 
           6070       1.7059e+8 
           6090      1.68587e+8 
           6110      1.66638e+8 
           6130       1.6472e+8 
           6150      1.62644e+8 
           6170      1.60889e+8 
           6190      1.59074e+8 
           6210       1.5726e+8 
           6230      1.55456e+8 
           6250      1.53633e+8 
           6270      1.51917e+8 
           6290        1.502e+8 
           6310      1.48455e+8 
           6330      1.46841e+8 
           6350       1.4489e+8 
           6370      1.43415e+8 
           6390      1.41928e+8 
           6410      1.40338e+8 
           6430      1.38819e+8 
           6450      1.37272e+8 
           6470      1.35686e+8 
           6490      1.34225e+8 
           6510      1.32753e+8 
           6530      1.30978e+8 
           6550      1.26447e+8 
           6570      1.13023e+8 
           6590      1.25845e+8 
           6610      1.25628e+8 
           6630      1.24348e+8 
           6650      1.23065e+8 
           6670      1.20736e+8 
           6690      1.19468e+8 
           6710      1.19175e+8 
           6730      1.17869e+8 
           6750      1.16667e+8 
           6770      1.15428e+8 
           6790      1.14055e+8 
           6810       1.1298e+8 
           6830      1.11786e+8 
           6850      1.10636e+8 
           6870      1.09474e+8 
           6890      1.08324e+8 
           6910      1.07193e+8 
           6930      1.06073e+8 
           6950      1.04995e+8 
           6970      1.03913e+8 
           6990      1.02825e+8 
           7010       1.0178e+8 
           7030      1.00736e+8 
           7050      9.97032e+7 
           7070      9.71728e+7 
           7090       9.7697e+7 
           7110      9.66936e+7 
           7130      9.57221e+7 
           7150      9.47452e+7 
           7170       9.3785e+7 
           7190      9.28632e+7 
           7210      9.19356e+7 
           7230      9.04475e+7 
           7250      9.00854e+7 
           7270      8.92126e+7 
           7290      8.76321e+7 
           7310      8.74423e+7 
           7330      8.65941e+7 
           7350        8.574e+7 
           7370      8.49007e+7 
           7390      8.40693e+7 
           7410      8.32456e+7 
           7430      8.24227e+7 
           7450      8.16414e+7 
           7470      8.08065e+7 
           7490      8.00666e+7 
           7510      7.92667e+7 
           7530      7.85339e+7 
           7550      7.77813e+7 
           7570      7.70421e+7 
           7590      7.62966e+7 
           7610      7.55708e+7 
           7630      7.48581e+7 
           7650      7.41453e+7 
           7670      7.34454e+7 
           7690      7.27517e+7 
           7710      7.20642e+7 
           7730      7.13891e+7 
           7750      7.07138e+7 
           7770      6.98885e+7 
           7790      6.94059e+7 
           7810       6.8705e+7 
           7830       6.8121e+7 
           7850      6.75298e+7 
           7870      6.69011e+7 
           7890      6.62053e+7 
           7910      6.57084e+7 
           7930       6.4988e+7 
           7950      6.43216e+7 
           7970      6.37145e+7 
           7990      6.31186e+7 
           8010      6.25689e+7 
           8030      6.20064e+7 
           8050       6.1501e+7 
           8070      6.09883e+7 
           8090      6.03072e+7 
           8110      5.98154e+7 
           8130       5.9379e+7 
           8150      5.87363e+7 
           8170      5.83475e+7 
           8190      5.77315e+7 
           8210      5.70202e+7 
           8230      5.66766e+7 
           8250      5.62195e+7 
           8270      5.53971e+7 
           8290      5.51575e+7 
           8310      5.46905e+7 
           8330      5.42067e+7 
           8350      5.34616e+7 
           8370      5.31171e+7 
           8390      5.27363e+7 
           8410      5.22476e+7 
           8430       5.1709e+7 
           8450      5.09253e+7 
           8470      5.05853e+7 
           8490      5.04387e+7 
           8510      4.94627e+7 
           8530      4.97887e+7 
           8550      4.78518e+7 
           8570      4.97328e+7 
