# Kurucz ODFNEW /NOVER (2003)
# teff = 7750 K (value for the effective temperature for the model. Temperatures are given in K)
# logg = 5 log(cm/s2) (value for Log(G) for the model.)
# meta = -2  (value for the Metallicity for the model.)
# lh = 1.25  (l/Hp where l is the  mixing length of the convective element and Hp is the pressure scale height)
# vtur = 2 km/s (Microturbulence velocity)
# alpha = 0.4  (Alpha)
#
# column 1: WAVELENGTH (ANGSTROM), Wavelength in Angstrom
# column 2: FLUX (ERG/CM2/S/A), Flux in erg/cm2/s/A
            308     3.39523e-23 
            318     5.08706e-22 
            328     5.63147e-21 
            338     5.34868e-20 
            348     4.44346e-19 
            357     2.68954e-18 
            366     1.48539e-17 
            375     7.53539e-17 
            385     4.17459e-16 
            395     2.11384e-15 
            405     9.84859e-15 
            414     3.68254e-14 
            422     3.56138e-15 
            430       9.808e-15 
            441     3.70296e-14 
            451     1.16545e-13 
            460     3.12404e-13 
            470     8.90985e-13 
            480     2.42242e-12 
            490     6.30367e-12 
            500     1.57202e-11 
            506     3.53105e-11 
            512     6.67911e-11 
            520     1.29834e-10 
            530     2.91151e-10 
            540       6.211e-10 
            550      1.30218e-9 
            560      2.63494e-9 
            570      5.18725e-9 
            580       9.8345e-9 
            590        1.862e-8 
            600      3.40396e-8 
            610      6.08659e-8 
            620       1.0656e-7 
            630      1.82869e-7 
            640      3.08061e-7 
            650      5.09668e-7 
            658      7.52982e-7 
            665      1.05022e-6 
            675       1.6665e-6 
            685      2.60397e-6 
            695      4.00982e-6 
            705      6.08763e-6 
            716      9.49069e-6 
            726      1.40192e-5 
            735      1.97136e-5 
            745      2.84767e-5 
            755      4.06738e-5 
            765      5.74662e-5 
            775      8.03606e-5 
            785     0.000111254 
            795      0.00015248 
            805     0.000207251 
            815     0.000279139 
            825     0.000372786 
            835     0.000493875 
            845     0.000649176 
            855     0.000846813 
            865      0.00109657 
            875      0.00140988 
            885        0.001801 
            895      0.00228537 
            905      0.00288136 
            915         1.45814 
            925         10.1691 
            935         18.7118 
            945         34.6189 
            955         49.5807 
            965         67.2488 
            975         55.5964 
            985         108.881 
            995         132.556 
           1005         161.766 
           1015         170.716 
           1025         122.357 
           1035         246.789 
           1045         337.372 
           1055         391.174 
           1065         474.406 
           1075         566.386 
           1085         679.903 
           1095         775.814 
           1105         1006.35 
           1115         1301.59 
           1125         1468.91 
           1135         1779.06 
           1145         2017.95 
           1155         2157.06 
           1165         2434.96 
           1175         2595.36 
           1185         2884.04 
           1195         2212.09 
           1205          1614.3 
           1215         602.241 
           1225         1842.67 
           1235         3676.34 
           1245         4842.47 
           1255         6381.34 
           1265         7648.42 
           1275         9207.67 
           1285         11807.5 
           1295         13939.9 
           1305         16373.2 
           1315         19205.7 
           1325         22243.8 
           1335         25334.1 
           1345         29448.6 
           1355         33111.1 
           1365         38159.7 
           1375         42006.4 
           1385         45318.1 
           1395         50633.3 
           1405         55260.6 
           1415         64638.9 
           1425         68313.6 
           1435         73998.5 
           1442         83922.2 
           1447           81562 
           1455         90164.9 
           1465         92461.1 
           1475          100978 
           1485          109396 
           1495          120336 
           1505          131227 
           1512          138620 
           1517          133270 
           1525          140422 
           1535          149110 
           1545          154377 
           1555          158761 
           1565          155185 
           1575          170640 
           1585          179365 
           1595          190125 
           1605          200004 
           1615          225412 
           1625          263434 
           1635          371483 
           1645          878178 
           1655        1.497e+6 
           1665      4.12344e+6 
           1672      5.04456e+6 
           1677      7.15421e+6 
           1685      9.28042e+6 
           1695      9.99314e+6 
           1705      1.25783e+7 
           1715      1.52794e+7 
           1725      1.61409e+7 
           1735      1.81417e+7 
           1745      1.78998e+7 
           1755      1.95543e+7 
           1765      1.73235e+7 
           1775      1.96913e+7 
           1785      2.02221e+7 
           1795       2.1584e+7 
           1805      2.03638e+7 
           1815      2.08536e+7 
           1825      2.01337e+7 
           1835      2.13951e+7 
           1845      1.96819e+7 
           1855       2.1073e+7 
           1865      2.22308e+7 
           1875      2.22258e+7 
           1885      2.24921e+7 
           1895      2.30148e+7 
           1905      2.22392e+7 
           1915      2.36101e+7 
           1925      2.43404e+7 
           1935      2.31709e+7 
           1945      2.48363e+7 
           1955      2.48943e+7 
           1967      2.56558e+7 
           1976        2.478e+7 
           1984      2.47701e+7 
           1995      2.51584e+7 
           2005      2.45135e+7 
           2015      2.49129e+7 
           2025      2.37698e+7 
           2035      2.57901e+7 
           2045      2.63358e+7 
           2055      2.56974e+7 
           2065      2.58484e+7 
           2074      2.70994e+7 
           2078      2.71261e+7 
           2085      2.68533e+7 
           2095      2.65906e+7 
           2105      2.63301e+7 
           2115      2.68026e+7 
           2125      2.68505e+7 
           2135      2.57805e+7 
           2145      2.72577e+7 
           2155      2.68284e+7 
           2165      2.59969e+7 
           2175      2.62601e+7 
           2185      2.69782e+7 
           2195       2.7916e+7 
           2205      2.72341e+7 
           2215      2.59567e+7 
           2225      2.69133e+7 
           2235      2.85736e+7 
           2245      2.76125e+7 
           2255      2.65784e+7 
           2265      2.58867e+7 
           2275      2.72741e+7 
           2285      2.77329e+7 
           2295      2.66856e+7 
           2305      2.73821e+7 
           2315      2.74427e+7 
           2325      2.74008e+7 
           2335      2.73774e+7 
           2345      2.54447e+7 
           2355      2.78721e+7 
           2365      2.61922e+7 
           2375      2.72678e+7 
           2385      2.49414e+7 
           2395      2.68727e+7 
           2405      2.66204e+7 
           2415      2.67363e+7 
           2425      2.79096e+7 
           2435      2.70162e+7 
           2445      2.76042e+7 
           2455      2.75148e+7 
           2465      2.71761e+7 
           2475      2.65486e+7 
           2485      2.67709e+7 
           2495      2.63552e+7 
           2505      2.80928e+7 
           2513      2.65821e+7 
           2518      2.58403e+7 
           2525      2.51548e+7 
           2535       2.5088e+7 
           2545      2.49919e+7 
           2555      2.66099e+7 
           2565      2.68357e+7 
           2575      2.80128e+7 
           2585       2.8344e+7 
           2595      2.83005e+7 
           2605      2.75762e+7 
           2615      2.73376e+7 
           2625      2.79946e+7 
           2635      2.81244e+7 
           2645        3.003e+7 
           2655      3.00052e+7 
           2665      2.88399e+7 
           2675       2.9307e+7 
           2685      2.99582e+7 
           2695      2.90594e+7 
           2705      2.91399e+7 
           2715      2.81187e+7 
           2725       2.8181e+7 
           2735      2.86356e+7 
           2745      2.67554e+7 
           2755      2.72093e+7 
           2765      2.82724e+7 
           2775      2.88008e+7 
           2785       2.8114e+7 
           2795      2.14352e+7 
           2805      2.40507e+7 
           2815      2.96008e+7 
           2825      2.94931e+7 
           2835      2.89774e+7 
           2845       2.8472e+7 
           2855      2.66132e+7 
           2865      2.85275e+7 
           2875      2.84602e+7 
           2885      2.87647e+7 
           2895      2.91534e+7 
           2910      2.97105e+7 
           2930      2.89978e+7 
           2950      2.87146e+7 
           2970      2.88075e+7 
           2990      2.87647e+7 
           3010      2.87363e+7 
           3030      2.87636e+7 
           3050      2.87262e+7 
           3070       2.8575e+7 
           3090      2.85267e+7 
           3110      2.84807e+7 
           3130      2.85144e+7 
           3150      2.85046e+7 
           3170      2.84404e+7 
           3190      2.77676e+7 
           3210      2.79009e+7 
           3230      2.74069e+7 
           3250      2.77569e+7 
           3270      2.80184e+7 
           3290      2.80825e+7 
           3310      2.80309e+7 
           3330      2.75825e+7 
           3350      2.72883e+7 
           3370      2.72872e+7 
           3390      2.71051e+7 
           3410      2.72793e+7 
           3430       2.7208e+7 
           3450      2.69381e+7 
           3470      2.68565e+7 
           3490      2.68614e+7 
           3510      2.68583e+7 
           3530      2.67525e+7 
           3550      2.67619e+7 
           3570      2.63364e+7 
           3590      2.62215e+7 
           3610      2.61558e+7 
           3630      2.61543e+7 
           3640      2.61276e+7 
           3650      2.62329e+7 
           3670       2.6308e+7 
           3690      2.55605e+7 
           3710       2.5258e+7 
           3730      2.39835e+7 
           3750      2.71138e+7 
           3770      2.76751e+7 
           3790      3.16535e+7 
           3810      3.56977e+7 
           3830      2.94241e+7 
           3850      3.85968e+7 
           3870      4.19418e+7 
           3890      2.74554e+7 
           3910      4.20122e+7 
           3930      4.23881e+7 
           3950      4.22087e+7 
           3970      2.66301e+7 
           3990      4.09975e+7 
           4010      4.48394e+7 
           4030      4.52097e+7 
           4050      4.46953e+7 
           4070      4.27948e+7 
           4090      3.55805e+7 
           4110      2.86917e+7 
           4130      4.14522e+7 
           4150       4.3101e+7 
           4170      4.33537e+7 
           4190      4.30932e+7 
           4210      4.27697e+7 
           4230      4.21873e+7 
           4250      4.20852e+7 
           4270       4.1506e+7 
           4290      4.08906e+7 
           4310      3.88997e+7 
           4330      3.14743e+7 
           4350      2.75581e+7 
           4370      3.80499e+7 
           4390      3.92483e+7 
           4410      3.94355e+7 
           4430      3.94469e+7 
           4450      3.91768e+7 
           4470      3.89779e+7 
           4490      3.86968e+7 
           4510      3.85303e+7 
           4530      3.81559e+7 
           4550      3.78449e+7 
           4570      3.76533e+7 
           4590      3.73491e+7 
           4610      3.71303e+7 
           4630      3.68155e+7 
           4650        3.655e+7 
           4670      3.62808e+7 
           4690      3.59618e+7 
           4710      3.54957e+7 
           4730      3.53544e+7 
           4750      3.50456e+7 
           4770      3.46994e+7 
           4790       3.4269e+7 
           4810      3.36264e+7 
           4830       3.2231e+7 
           4850      2.68151e+7 
           4870      2.25416e+7 
           4890      3.08604e+7 
           4910      3.22003e+7 
           4930      3.23116e+7 
           4950       3.2317e+7 
           4970      3.22115e+7 
           4990      3.19719e+7 
           5010      3.16902e+7 
           5030      3.15846e+7 
           5050      3.13305e+7 
           5070      3.11248e+7 
           5090      3.08851e+7 
           5110      3.06582e+7 
           5130      3.04125e+7 
           5150      3.01639e+7 
           5170        2.958e+7 
           5190      2.94532e+7 
           5210      2.94537e+7 
           5230      2.92041e+7 
           5250      2.90763e+7 
           5270       2.8715e+7 
           5290      2.86289e+7 
           5310      2.84109e+7 
           5330      2.81106e+7 
           5350       2.7989e+7 
           5370      2.77495e+7 
           5390      2.75492e+7 
           5410      2.73047e+7 
           5430      2.71333e+7 
           5450      2.69307e+7 
           5470      2.67442e+7 
           5490      2.65485e+7 
           5510      2.63573e+7 
           5530      2.61448e+7 
           5550      2.59714e+7 
           5570      2.57622e+7 
           5590      2.55408e+7 
           5610      2.53722e+7 
           5630      2.52053e+7 
           5650      2.50166e+7 
           5670      2.48228e+7 
           5690      2.46463e+7 
           5710      2.44601e+7 
           5730      2.42896e+7 
           5750      2.41038e+7 
           5770      2.39302e+7 
           5790       2.3754e+7 
           5810      2.35807e+7 
           5830      2.34081e+7 
           5850      2.32307e+7 
           5870      2.30617e+7 
           5890      2.27837e+7 
           5910      2.27258e+7 
           5930      2.25599e+7 
           5950      2.23957e+7 
           5970      2.22322e+7 
           5990      2.20693e+7 
           6010      2.19091e+7 
           6030      2.17464e+7 
           6050      2.15925e+7 
           6070      2.14372e+7 
           6090      2.12814e+7 
           6110      2.11251e+7 
           6130      2.09574e+7 
           6150      2.08094e+7 
           6170      2.06381e+7 
           6190      2.05246e+7 
           6210       2.0378e+7 
           6230       2.0226e+7 
           6250      2.00707e+7 
           6270      1.99438e+7 
           6290       1.9802e+7 
           6310      1.96558e+7 
           6330      1.95168e+7 
           6350      1.93725e+7 
           6370      1.92362e+7 
           6390      1.91031e+7 
           6410      1.89318e+7 
           6430      1.87814e+7 
           6450      1.86062e+7 
           6470      1.84437e+7 
           6490      1.82363e+7 
           6510      1.79519e+7 
           6530      1.73651e+7 
           6550      1.54222e+7 
           6570      1.27747e+7 
           6590      1.65177e+7 
           6610      1.71973e+7 
           6630      1.73234e+7 
           6650       1.7302e+7 
           6670       1.7228e+7 
           6690      1.71353e+7 
           6710      1.70291e+7 
           6730      1.69463e+7 
           6750      1.68246e+7 
           6770      1.67146e+7 
           6790      1.65991e+7 
           6810      1.64839e+7 
           6830      1.63697e+7 
           6850      1.62566e+7 
           6870      1.61454e+7 
           6890      1.60351e+7 
           6910       1.5925e+7 
           6930      1.58152e+7 
           6950      1.57072e+7 
           6970      1.56001e+7 
           6990      1.54932e+7 
           7010       1.5385e+7 
           7030      1.52816e+7 
           7050      1.51791e+7 
           7070       1.5076e+7 
           7090      1.49738e+7 
           7110      1.48673e+7 
           7130      1.47707e+7 
           7150      1.46683e+7 
           7170      1.45705e+7 
           7190      1.44727e+7 
           7210      1.43752e+7 
           7230      1.42799e+7 
           7250       1.4184e+7 
           7270       1.4089e+7 
           7290      1.39919e+7 
           7310      1.39014e+7 
           7330      1.38067e+7 
           7350      1.37177e+7 
           7370      1.36267e+7 
           7390      1.35344e+7 
           7410      1.34395e+7 
           7430      1.33536e+7 
           7450      1.32671e+7 
           7470      1.31792e+7 
           7490      1.30908e+7 
           7510      1.30058e+7 
           7530      1.29209e+7 
           7550       1.2836e+7 
           7570      1.27512e+7 
           7590      1.26677e+7 
           7610      1.25843e+7 
           7630      1.25022e+7 
           7650      1.24196e+7 
           7670      1.23363e+7 
           7690      1.22569e+7 
           7710      1.21782e+7 
           7730      1.21002e+7 
           7750      1.20202e+7 
           7770      1.19066e+7 
           7790      1.18667e+7 
           7810      1.17893e+7 
           7830      1.17126e+7 
           7850      1.16364e+7 
           7870      1.15616e+7 
           7890      1.14861e+7 
           7910      1.14142e+7 
           7930      1.13369e+7 
           7950      1.12651e+7 
           7970      1.11967e+7 
           7990      1.11231e+7 
           8010      1.10535e+7 
           8030      1.09833e+7 
           8050      1.09131e+7 
           8070      1.08446e+7 
           8090      1.07755e+7 
           8110      1.07075e+7 
           8130      1.06401e+7 
           8150      1.05726e+7 
           8170      1.05063e+7 
           8190      1.04314e+7 
           8210      1.03756e+7 
           8230      1.03103e+7 
           8250      1.02481e+7 
           8270      1.01926e+7 
           8290      1.01309e+7 
           8310       1.0068e+7 
           8330      9.99959e+6 
           8350      9.94688e+6 
           8370      9.88596e+6 
           8390      9.82175e+6 
           8410      9.76018e+6 
           8430      9.69961e+6 
           8450      9.62895e+6 
           8470       9.5536e+6 
           8490      9.52746e+6 
           8510      9.33811e+6 
           8530      9.41967e+6 
           8550      9.07366e+6 
           8570      9.33656e+6 
           8590      9.12772e+6 
           8610      9.02794e+6 
           8630      9.21022e+6 
           8650      9.04835e+6 
           8670      8.44383e+6 
           8690      9.01064e+6 
           8710      9.05621e+6 
           8730      8.88229e+6 
           8750      8.03525e+6 
           8770      8.64912e+6 
           8790      8.87261e+6 
           8810        8.845e+6 
           8830      8.74023e+6 
           8850      8.25969e+6 
           8870      7.51525e+6 
           8890      8.45104e+6 
           8910      8.60723e+6 
           8930      8.61455e+6 
           8950      8.57515e+6 
           8970      8.46531e+6 
           8990      8.20674e+6 
           9010      7.14523e+6 
           9030      7.58163e+6 
           9050      8.14566e+6 
           9070      8.23846e+6 
           9090      8.22915e+6 
           9110      8.22937e+6 
           9130       8.1929e+6 
           9150      8.13148e+6 
           9170      8.04273e+6 
           9190      7.89045e+6 
           9210      7.51824e+6 
           9230      6.36956e+6 
           9250      7.33271e+6 
           9270      7.67638e+6 
           9290      7.76122e+6 
           9310      7.76616e+6 
           9330      7.74415e+6 
