# Kurucz ODFNEW /NOVER (2003)
# teff = 19000 K (value for the effective temperature for the model. Temperatures are given in K)
# logg = 4.5 log(cm/s2) (value for Log(G) for the model.)
# meta = -2  (value for the Metallicity for the model.)
# lh = 1.25  (l/Hp where l is the  mixing length of the convective element and Hp is the pressure scale height)
# vtur = 2 km/s (Microturbulence velocity)
# alpha = 0.4  (Alpha)
#
# column 1: WAVELENGTH (ANGSTROM), Wavelength in Angstrom
# column 2: FLUX (ERG/CM2/S/A), Flux in erg/cm2/s/A
          147.2     3.33527e-22 
            151     2.52794e-21 
          155.2     2.01541e-20 
          158.8     1.09213e-19 
            162     4.62069e-19 
            166     2.60304e-18 
          170.3     1.53045e-17 
          173.4     5.20498e-17 
          176.8     1.90075e-16 
          180.2     6.62141e-16 
          181.7     1.13179e-15 
          186.1     5.19747e-15 
            191     2.61772e-14 
          193.9     6.55147e-14 
          198.4     2.58305e-13 
          201.8     7.00909e-13 
            205     1.74241e-12 
          210.5     7.79794e-12 
          216.2     3.40232e-11 
          219.8     8.29456e-11 
            223     1.78588e-10 
          226.8     4.32089e-10 
            230      1.03633e-9 
            234      2.58377e-9 
            240      9.02646e-9 
          246.5       3.2497e-8 
          252.4      9.81655e-8 
          256.8      2.15396e-7 
            260      3.77894e-7 
            264      7.44043e-7 
          268.5       1.5538e-6 
          273.5      3.41962e-6 
          278.5      7.31774e-6 
            284      1.63586e-5 
            290       3.7939e-5 
            296      8.48604e-5 
            301     0.000161909 
            308     0.000384624 
            318      0.00124172 
            328      0.00371183 
            338       0.0103617 
            348       0.0271818 
            357       0.0616399 
            366         0.13398 
            375        0.279791 
            385        0.607393 
            395         1.26399 
            405         2.53013 
            414         4.58196 
            422         7.59006 
            430         12.3186 
            441         23.2452 
            451         40.2028 
            460         64.3805 
            470         106.144 
            480         171.033 
            490         269.751 
            500         416.949 
            506         3672.74 
            512         9645.73 
            520         12568.6 
            530         18742.6 
            540         22636.1 
            550           33395 
            560         43382.7 
            570         56415.5 
            580         62853.6 
            590         87415.1 
            600          114212 
            610          142673 
            620          175418 
            630          215473 
            640          259811 
            650          316060 
            658          366241 
            665          413808 
            675          489754 
            685          576617 
            695          684255 
            705          798975 
            716          941206 
            726      1.08914e+6 
            735      1.23906e+6 
            745      1.42302e+6 
            755      1.62694e+6 
            765      1.84732e+6 
            775      2.09802e+6 
            785      2.36898e+6 
            795      2.66263e+6 
            805       2.9864e+6 
            815      3.33457e+6 
            825      3.71623e+6 
            835      4.08082e+6 
            845      4.56249e+6 
            855        5.026e+6 
            865      5.54754e+6 
            875      6.08278e+6 
            885      6.67673e+6 
            895      7.29355e+6 
            905      7.86738e+6 
            915      1.34875e+7 
            925      4.64514e+7 
            935      1.26672e+8 
            945        8.384e+8 
            955      2.77004e+9 
            965      4.09084e+9 
            975      1.06148e+9 
            985      7.63186e+9 
            995      8.74295e+9 
           1005      8.85441e+9 
           1015       5.9119e+9 
           1025      4.78162e+8 
           1035      4.65098e+9 
           1045       8.7905e+9 
           1055      9.15909e+9 
           1065      8.56341e+9 
           1075      8.99782e+9 
           1085      8.46439e+9 
           1095      8.81949e+9 
           1105      8.24283e+9 
           1115      8.21746e+9 
           1125      7.84312e+9 
           1135      8.00059e+9 
           1145      7.56002e+9 
           1155      7.70502e+9 
           1165      7.61855e+9 
           1175      6.87929e+9 
           1185      7.17925e+9 
           1195      5.94921e+9 
           1205      3.60507e+9 
           1215      3.98849e+8 
           1225      3.07208e+9 
           1235      5.77336e+9 
           1245      6.29006e+9 
           1255      6.21869e+9 
           1265       6.1224e+9 
           1275      6.23555e+9 
           1285      6.15051e+9 
           1295      5.60615e+9 
           1305      5.41859e+9 
           1315      5.82624e+9 
           1325      5.64914e+9 
           1335      5.41792e+9 
           1345      5.50259e+9 
           1355      5.43131e+9 
           1365      5.29946e+9 
           1375      5.23062e+9 
           1385      5.17088e+9 
           1395       4.9855e+9 
           1405      4.95601e+9 
           1415      4.89656e+9 
           1425      4.83716e+9 
           1435      4.76888e+9 
           1442       4.7352e+9 
           1447      4.69281e+9 
           1455      4.62017e+9 
           1465      4.53941e+9 
           1475      4.46526e+9 
           1485      4.37577e+9 
           1495       4.3127e+9 
           1505      4.21117e+9 
           1512      4.16551e+9 
           1517      4.15824e+9 
           1525      4.07455e+9 
           1535      3.96344e+9 
           1545      3.97101e+9 
           1555      3.87024e+9 
           1565      3.81894e+9 
           1575      3.79581e+9 
           1585      3.73981e+9 
           1595      3.70003e+9 
           1605      3.60156e+9 
           1615      3.54684e+9 
           1625      3.50903e+9 
           1635      3.46511e+9 
           1645      3.41128e+9 
           1655      3.34088e+9 
           1665      3.33607e+9 
           1672      3.23313e+9 
           1677      3.27175e+9 
           1685      3.23983e+9 
           1695      3.18257e+9 
           1705      3.11917e+9 
           1715      3.05856e+9 
           1725      3.01422e+9 
           1735      2.99784e+9 
           1745      2.94663e+9 
           1755      2.92281e+9 
           1765      2.81287e+9 
           1775      2.83101e+9 
           1785      2.78803e+9 
           1795      2.76839e+9 
           1805      2.72335e+9 
           1815      2.67981e+9 
           1825      2.65674e+9 
           1835      2.61757e+9 
           1845      2.55818e+9 
           1855       2.4917e+9 
           1865      2.46635e+9 
           1875       2.4714e+9 
           1885      2.41111e+9 
           1895      2.35541e+9 
           1905      2.36988e+9 
           1915      2.30924e+9 
           1925      2.27972e+9 
           1935      2.26477e+9 
           1945      2.25409e+9 
           1955      2.19659e+9 
           1967      2.19431e+9 
           1976      2.17919e+9 
           1984      2.14069e+9 
           1995      2.09121e+9 
           2005      2.09215e+9 
           2015      2.07041e+9 
           2025      2.05268e+9 
           2035      2.02064e+9 
           2045      1.99588e+9 
           2055      1.93779e+9 
           2065      1.93302e+9 
           2074      1.92732e+9 
           2078      1.90176e+9 
           2085      1.90183e+9 
           2095      1.86844e+9 
           2105      1.85762e+9 
           2115      1.83875e+9 
           2125      1.82165e+9 
           2135      1.79801e+9 
           2145      1.77506e+9 
           2155      1.75676e+9 
           2165      1.73181e+9 
           2175      1.71218e+9 
           2185      1.69402e+9 
           2195       1.6776e+9 
           2205      1.65521e+9 
           2215      1.63347e+9 
           2225      1.61235e+9 
           2235      1.60029e+9 
           2245      1.58151e+9 
           2255      1.56129e+9 
           2265      1.54621e+9 
           2275      1.52755e+9 
           2285       1.5132e+9 
           2295      1.48989e+9 
           2305      1.47706e+9 
           2315      1.45948e+9 
           2325      1.44555e+9 
           2335      1.42111e+9 
           2345      1.39442e+9 
           2355      1.39449e+9 
           2365      1.36986e+9 
           2375      1.36189e+9 
           2385      1.33658e+9 
           2395      1.32787e+9 
           2405      1.31405e+9 
           2415      1.29925e+9 
           2425      1.29445e+9 
           2435      1.27717e+9 
           2445      1.26397e+9 
           2455      1.25438e+9 
           2465      1.23741e+9 
           2475      1.22651e+9 
           2485      1.21403e+9 
           2495        1.193e+9 
           2505      1.18968e+9 
           2513      1.17532e+9 
           2518      1.17315e+9 
           2525      1.16128e+9 
           2535      1.14486e+9 
           2545      1.13612e+9 
           2555      1.13047e+9 
           2565      1.11515e+9 
           2575      1.10798e+9 
           2585      1.09582e+9 
           2595      1.08386e+9 
           2605      1.07456e+9 
           2615      1.06525e+9 
           2625      1.05633e+9 
           2635      1.04448e+9 
           2645      1.04031e+9 
           2655      1.02896e+9 
           2665      1.01552e+9 
           2675      1.00647e+9 
           2685      1.00092e+9 
           2695      9.85365e+8 
           2705      9.81079e+8 
           2715      9.70492e+8 
           2725      9.55011e+8 
           2735      9.52372e+8 
           2745      9.34146e+8 
           2755       9.2688e+8 
           2765      9.18266e+8 
           2775      9.17042e+8 
           2785      9.07554e+8 
           2795      8.79901e+8 
           2805      8.83118e+8 
           2815       8.8294e+8 
           2825      8.67732e+8 
           2835      8.61105e+8 
           2845       8.5739e+8 
           2855      8.49822e+8 
           2865      8.42386e+8 
           2875      8.34303e+8 
           2885      8.26764e+8 
           2895      8.19309e+8 
           2910      8.08037e+8 
           2930      7.91953e+8 
           2950      7.74541e+8 
           2970      7.64871e+8 
           2990      7.50922e+8 
           3010      7.37858e+8 
           3030      7.24866e+8 
           3050       7.1207e+8 
           3070      6.99585e+8 
           3090      6.87362e+8 
           3110      6.75434e+8 
           3130      6.64215e+8 
           3150       6.5277e+8 
           3170      6.41635e+8 
           3190      6.27025e+8 
           3210      6.19857e+8 
           3230      6.09424e+8 
           3250      5.99236e+8 
           3270      5.89638e+8 
           3290      5.79498e+8 
           3310       5.7035e+8 
           3330      5.61005e+8 
           3350      5.51373e+8 
           3370      5.42891e+8 
           3390      5.34143e+8 
           3410      5.25531e+8 
           3430      5.16378e+8 
           3450      5.07433e+8 
           3470      5.00037e+8 
           3490      4.92157e+8 
           3510      4.85066e+8 
           3530      4.77499e+8 
           3550      4.70011e+8 
           3570      4.63873e+8 
           3590      4.55299e+8 
           3610      4.48996e+8 
           3630      4.41432e+8 
           3640      4.39521e+8 
           3650      4.36296e+8 
           3670      4.31246e+8 
           3690      4.22904e+8 
           3710      4.09352e+8 
           3730      3.91219e+8 
           3750      4.18883e+8 
           3770      4.25053e+8 
           3790      4.67158e+8 
           3810         5.02e+8 
           3830      4.23884e+8 
           3850       5.2995e+8 
           3870      5.53791e+8 
           3890      3.92312e+8 
           3910      5.46929e+8 
           3930      5.51426e+8 
           3950      5.32117e+8 
           3970      3.68342e+8 
           3990      5.07635e+8 
           4010      5.18867e+8 
           4030       4.8645e+8 
           4050      5.09679e+8 
           4070      4.96836e+8 
           4090      4.30034e+8 
           4110      3.60045e+8 
           4130       4.6404e+8 
           4150       4.6555e+8 
           4170       4.6311e+8 
           4190      4.57776e+8 
           4210      4.50589e+8 
           4230      4.43433e+8 
           4250      4.36391e+8 
           4270      4.28325e+8 
           4290      4.20717e+8 
           4310      4.08993e+8 
           4330      3.46069e+8 
           4350      3.09586e+8 
           4370      3.87996e+8 
           4390      3.77021e+8 
           4410      3.84088e+8 
           4430      3.77576e+8 
           4450      3.73277e+8 
           4470      3.49053e+8 
           4490      3.60993e+8 
           4510      3.57039e+8 
           4530      3.51672e+8 
           4550       3.4644e+8 
           4570      3.41322e+8 
           4590      3.36315e+8 
           4610      3.31383e+8 
           4630      3.26505e+8 
           4650      3.21699e+8 
           4670      3.17084e+8 
           4690      3.12518e+8 
           4710      3.04215e+8 
           4730      3.03483e+8 
           4750      2.99063e+8 
           4770      2.94971e+8 
           4790      2.90115e+8 
           4810      2.85005e+8 
           4830      2.77385e+8 
           4850      2.41469e+8 
           4870      2.10167e+8 
           4890      2.63372e+8 
           4910       2.6481e+8 
           4930         2.56e+8 
           4950      2.59671e+8 
           4970      2.56273e+8 
           4990      2.52756e+8 
           5010      2.46269e+8 
           5030      2.45878e+8 
           5050      2.40935e+8 
           5070      2.39317e+8 
           5090      2.36088e+8 
           5110      2.32916e+8 
           5130      2.29815e+8 
           5150      2.26755e+8 
           5170       2.2375e+8 
           5190      2.20784e+8 
           5210      2.17773e+8 
           5230      2.15009e+8 
           5250      2.12199e+8 
           5270      2.09424e+8 
           5290      2.06713e+8 
           5310      2.04023e+8 
           5330      2.01381e+8 
           5350      1.98773e+8 
           5370       1.9625e+8 
           5390      1.93746e+8 
           5410      1.91273e+8 
           5430      1.88806e+8 
           5450      1.86434e+8 
           5470      1.84091e+8 
           5490      1.81789e+8 
           5510      1.79504e+8 
           5530       1.7726e+8 
           5550      1.75055e+8 
           5570      1.72877e+8 
           5590       1.7075e+8 
           5610      1.68625e+8 
           5630      1.66573e+8 
           5650      1.64476e+8 
           5670      1.62497e+8 
           5690      1.60531e+8 
           5710      1.58588e+8 
           5730      1.56679e+8 
           5750      1.54782e+8 
           5770      1.52919e+8 
           5790      1.51089e+8 
           5810      1.49281e+8 
           5830      1.47504e+8 
           5850      1.45749e+8 
           5870      1.39936e+8 
           5890      1.42093e+8 
           5910      1.40648e+8 
           5930      1.39004e+8 
           5950      1.37358e+8 
           5970      1.35773e+8 
           5990      1.34175e+8 
           6010      1.32637e+8 
           6030      1.31106e+8 
           6050      1.29592e+8 
           6070      1.28106e+8 
           6090      1.26636e+8 
           6110      1.25193e+8 
           6130      1.23766e+8 
           6150      1.22354e+8 
           6170      1.20978e+8 
           6190      1.19618e+8 
           6210      1.18272e+8 
           6230      1.16941e+8 
           6250      1.15625e+8 
           6270      1.14343e+8 
           6290      1.13074e+8 
           6310      1.11819e+8 
           6330      1.10587e+8 
           6350      1.09265e+8 
           6370      1.08116e+8 
           6390      1.06979e+8 
           6410      1.05799e+8 
           6430      1.04659e+8 
           6450      1.03522e+8 
           6470      1.02388e+8 
           6490       1.0115e+8 
           6510      9.97557e+7 
           6530      9.78469e+7 
           6550      9.04888e+7 
           6570      7.86346e+7 
           6590      9.34795e+7 
           6610      9.43287e+7 
           6630      9.36919e+7 
           6650      9.29503e+7 
           6670      9.11743e+7 
           6690      9.02596e+7 
           6710      9.00822e+7 
           6730        8.914e+7 
           6750      8.82157e+7 
           6770      8.73007e+7 
           6790      8.63868e+7 
           6810      8.54983e+7 
           6830      8.46107e+7 
           6850        8.374e+7 
           6870      8.28859e+7 
           6890      8.20324e+7 
           6910      8.11953e+7 
           6930      8.03665e+7 
           6950      7.95536e+7 
           6970      7.87488e+7 
           6990      7.79518e+7 
           7010      7.71703e+7 
           7030      7.63888e+7 
           7050      7.56248e+7 
           7070      7.39495e+7 
           7090      7.41234e+7 
           7110      7.33865e+7 
           7130      7.26582e+7 
           7150      7.19384e+7 
           7170      7.12276e+7 
           7190       7.0528e+7 
           7210      6.98351e+7 
           7230      6.91322e+7 
           7250      6.84753e+7 
           7270      6.78083e+7 
           7290      6.67924e+7 
           7310      6.64944e+7 
           7330      6.58543e+7 
           7350      6.52189e+7 
           7370      6.45914e+7 
           7390      6.39712e+7 
           7410      6.33587e+7 
           7430       6.2752e+7 
           7450      6.21582e+7 
           7470      6.15673e+7 
           7490      6.09837e+7 
           7510      6.03995e+7 
           7530      5.98366e+7 
           7550      5.92735e+7 
           7570      5.87174e+7 
           7590      5.81671e+7 
           7610       5.7623e+7 
           7630      5.70858e+7 
           7650      5.65553e+7 
           7670      5.60302e+7 
           7690      5.55111e+7 
           7710      5.49984e+7 
           7730      5.44917e+7 
           7750      5.39906e+7 
           7770      5.34578e+7 
           7790      5.30061e+7 
           7810      5.25114e+7 
           7830      5.20438e+7 
           7850      5.15864e+7 
           7870      5.11171e+7 
           7890       5.0644e+7 
           7910      5.02046e+7 
           7930      4.97528e+7 
           7950      4.93013e+7 
           7970      4.88603e+7 
           7990      4.84171e+7 
           8010      4.79953e+7 
           8030      4.75679e+7 
           8050      4.71452e+7 
           8070      4.67278e+7 
           8090      4.63048e+7 
           8110       4.5902e+7 
           8130      4.55015e+7 
           8150      4.50833e+7 
           8170      4.47071e+7 
           8190      4.42975e+7 
           8210      4.38751e+7 
           8230      4.35503e+7 
           8250      4.31961e+7 
           8270      4.27456e+7 
           8290      4.24645e+7 
           8310      4.21174e+7 
           8330      4.17542e+7 
           8350      4.13134e+7 
           8370      4.10242e+7 
           8390      4.07058e+7 
           8410      4.03377e+7 
           8430      3.99615e+7 
           8450      3.95051e+7 
           8470      3.91775e+7 
           8490      3.88729e+7 
           8510      3.83476e+7 
           8530      3.82555e+7 
           8550      3.71986e+7 
           8570      3.79613e+7 
