# Kurucz ODFNEW /NOVER (2003)
# teff = 33000 K (value for the effective temperature for the model. Temperatures are given in K)
# logg = 4.5 log(cm/s2) (value for Log(G) for the model.)
# meta = 0.5  (value for the Metallicity for the model.)
# lh = 1.25  (l/Hp where l is the  mixing length of the convective element and Hp is the pressure scale height)
# vtur = 2 km/s (Microturbulence velocity)
# alpha = 0  (Alpha)
#
# column 1: WAVELENGTH (ANGSTROM), Wavelength in Angstrom
# column 2: FLUX (ERG/CM2/S/A), Flux in erg/cm2/s/A
          147.2      4.69142e-6 
            151      1.26848e-5 
          155.2      3.59743e-5 
          158.8      8.42752e-5 
            162     0.000173909 
            166     0.000414394 
          170.3      0.00100212 
          173.4      0.00185611 
          176.8      0.00356925 
          180.2      0.00664763 
          181.7      0.00876425 
          186.1       0.0187118 
            191        0.041877 
          193.9       0.0660478 
          198.4        0.131234 
          201.8        0.214863 
            205        0.336676 
          210.5         0.70705 
          216.2         1.45163 
          219.8         2.27206 
            223         3.32063 
          226.8         5.36125 
            230         842.336 
            234         1725.68 
            240         2760.92 
          246.5         4651.03 
          252.4         7608.42 
          256.8         10840.9 
            260         18863.2 
            264         32590.3 
          268.5         48777.3 
          273.5         66585.4 
          278.5           83154 
            284          181826 
            290          261395 
            296          344051 
            301          593779 
            308        1.547e+6 
            318      3.19231e+6 
            328      4.55434e+6 
            338      8.28024e+6 
            348      1.27975e+7 
            357      2.84493e+7 
            366      6.13399e+7 
            375       7.1531e+7 
            385      1.03962e+8 
            395      2.06666e+8 
            405      2.53886e+8 
            414      3.36559e+8 
            422      3.91318e+8 
            430      4.45739e+8 
            441      5.48374e+8 
            451      5.87576e+8 
            460      5.93616e+8 
            470      7.21329e+8 
            480      8.56193e+8 
            490      8.92147e+8 
            500      1.08054e+9 
            506      1.46454e+9 
            512     1.05889e+10 
            520      9.97608e+9 
            530       8.9601e+9 
            540      8.16738e+9 
            550       9.6637e+9 
            560     1.30726e+10 
            570     1.41787e+10 
            580     1.30377e+10 
            590     1.37445e+10 
            600      9.98375e+9 
            610     1.29319e+10 
            620     1.59728e+10 
            630     1.51916e+10 
            640     1.48861e+10 
            650     1.40919e+10 
            658     1.10714e+10 
            665     1.41611e+10 
            675      1.6488e+10 
            685     1.20062e+10 
            695     1.74168e+10 
            705     1.28953e+10 
            716     1.88675e+10 
            726     1.82326e+10 
            735     1.81362e+10 
            745     1.68285e+10 
            755     1.69362e+10 
            765     1.71298e+10 
            775     1.80341e+10 
            785     1.84866e+10 
            795     1.87368e+10 
            805     1.75108e+10 
            815     1.72346e+10 
            825     1.85823e+10 
            835     1.41252e+10 
            845     1.73152e+10 
            855     1.69543e+10 
            865     1.76008e+10 
            875     1.76859e+10 
            885      1.8073e+10 
            895     1.81196e+10 
            905     1.73631e+10 
            915      1.7751e+10 
            925     4.60111e+10 
            935      7.2784e+10 
            945     9.33023e+10 
            955     1.00991e+11 
            965      1.1342e+11 
            975     4.06878e+10 
            985     8.60879e+10 
            995     7.79696e+10 
           1005     8.24793e+10 
           1015      8.8907e+10 
           1025     7.11236e+10 
           1035     8.57926e+10 
           1045     1.01566e+11 
           1055     9.46778e+10 
           1065     7.92636e+10 
           1075     8.33931e+10 
           1085     7.58851e+10 
           1095     8.09276e+10 
           1105     7.70629e+10 
           1115     7.59898e+10 
           1125     5.91694e+10 
           1135     7.18615e+10 
           1145     6.99134e+10 
           1155     6.55847e+10 
           1165     6.28287e+10 
           1175     3.83517e+10 
           1185     5.67606e+10 
           1195      5.5192e+10 
           1205      5.2282e+10 
           1215     4.19698e+10 
           1225     5.11436e+10 
           1235     5.51525e+10 
           1245     5.25128e+10 
           1255     5.22844e+10 
           1265      5.4272e+10 
           1275     5.66476e+10 
           1285     5.68508e+10 
           1295     5.19147e+10 
           1305     5.19317e+10 
           1315     5.59269e+10 
           1325     5.37212e+10 
           1335      5.1835e+10 
           1345      5.1621e+10 
           1355     5.03776e+10 
           1365     4.82956e+10 
           1375     4.63722e+10 
           1385     4.44559e+10 
           1395     3.35122e+10 
           1405     3.47984e+10 
           1415     4.22672e+10 
           1425     3.76113e+10 
           1435     4.06856e+10 
           1442     3.99111e+10 
           1447     3.97383e+10 
           1455     3.75373e+10 
           1465     3.60997e+10 
           1475     3.68898e+10 
           1485     3.68388e+10 
           1495     3.54863e+10 
           1505     3.37306e+10 
           1512     3.27022e+10 
           1517     3.32155e+10 
           1525     3.19559e+10 
           1535     2.71072e+10 
           1545     2.23431e+10 
           1555     2.25334e+10 
           1565     2.61302e+10 
           1575     2.76857e+10 
           1585     2.79733e+10 
           1595     2.78487e+10 
           1605     2.66384e+10 
           1615     2.51497e+10 
           1625      2.5934e+10 
           1635     2.63872e+10 
           1645     2.65615e+10 
           1655     2.62677e+10 
           1665     2.59789e+10 
           1672     2.36192e+10 
           1677     2.84939e+10 
           1685     2.67737e+10 
           1695     2.56864e+10 
           1705     2.54391e+10 
           1715     2.38957e+10 
           1725     2.28573e+10 
           1735     2.37835e+10 
           1745     2.36057e+10 
           1755     2.33326e+10 
           1765     2.29964e+10 
           1775      2.1883e+10 
           1785     2.23964e+10 
           1795     2.18985e+10 
           1805     2.17872e+10 
           1815     2.09406e+10 
           1825     2.06597e+10 
           1835     2.05761e+10 
           1845      1.9341e+10 
           1855     1.99005e+10 
           1865     1.99541e+10 
           1875     1.94911e+10 
           1885     1.82585e+10 
           1895     1.77799e+10 
           1905     1.83983e+10 
           1915      1.7807e+10 
           1925     1.65194e+10 
           1935      1.7808e+10 
           1945     1.80795e+10 
           1955     1.60922e+10 
           1967     1.71107e+10 
           1976     1.76383e+10 
           1984     1.68484e+10 
           1995     1.64558e+10 
           2005     1.68093e+10 
           2015     1.67422e+10 
           2025     1.68097e+10 
           2035     1.58589e+10 
           2045     1.57177e+10 
           2055     1.28424e+10 
           2065     1.24145e+10 
           2074     1.29419e+10 
           2078      1.2626e+10 
           2085      1.3304e+10 
           2095      1.3846e+10 
           2105     1.44952e+10 
           2115     1.46473e+10 
           2125     1.44063e+10 
           2135     1.42362e+10 
           2145       1.389e+10 
           2155      1.3995e+10 
           2165     1.33686e+10 
           2175     1.36409e+10 
           2185     1.31936e+10 
           2195     1.34904e+10 
           2205     1.32784e+10 
           2215     1.27572e+10 
           2225     1.28178e+10 
           2235     1.25827e+10 
           2245     1.23931e+10 
           2255      1.1993e+10 
           2265     1.20952e+10 
           2275     1.19884e+10 
           2285     1.16254e+10 
           2295     1.01596e+10 
           2305      1.1065e+10 
           2315      1.1009e+10 
           2325     1.10107e+10 
           2335     1.08081e+10 
           2345     1.06955e+10 
           2355     1.04235e+10 
           2365     1.02399e+10 
           2375      9.96285e+9 
           2385      9.56622e+9 
           2395      9.62902e+9 
           2405      9.62271e+9 
           2415      9.51735e+9 
           2425       9.4845e+9 
           2435      9.28985e+9 
           2445      9.20519e+9 
           2455      9.08847e+9 
           2465      8.96342e+9 
           2475       8.8364e+9 
           2485      8.48968e+9 
           2495      6.18863e+9 
           2505      8.05087e+9 
           2513      7.83505e+9 
           2518       8.0042e+9 
           2525      8.22106e+9 
           2535      8.18153e+9 
           2545      7.97486e+9 
           2555      7.89698e+9 
           2565      7.79544e+9 
           2575      7.71171e+9 
           2585      7.62736e+9 
           2595      7.48701e+9 
           2605      7.45739e+9 
           2615      7.27982e+9 
           2625      7.25453e+9 
           2635      7.18709e+9 
           2645      7.04453e+9 
           2655      6.98141e+9 
           2665      6.77211e+9 
           2675      6.60785e+9 
           2685      6.68466e+9 
           2695      6.48887e+9 
           2705      6.41215e+9 
           2715      6.33843e+9 
           2725      6.31381e+9 
           2735      6.15743e+9 
           2745      6.18264e+9 
           2755      6.11004e+9 
           2765       6.0063e+9 
           2775      6.01642e+9 
           2785      5.89218e+9 
           2795      5.66298e+9 
           2805      5.71604e+9 
           2815      5.71496e+9 
           2825      5.63492e+9 
           2835      5.48649e+9 
           2845       5.5071e+9 
           2855      5.41405e+9 
           2865        5.324e+9 
           2875      5.27062e+9 
           2885      5.21061e+9 
           2895      5.14816e+9 
           2910      5.01114e+9 
           2930      4.96446e+9 
           2950      4.81339e+9 
           2970       4.7065e+9 
           2990      4.55357e+9 
           3010      4.40344e+9 
           3030      4.30324e+9 
           3050       4.2563e+9 
           3070      4.18944e+9 
           3090      4.04305e+9 
           3110      4.01848e+9 
           3130      3.90077e+9 
           3150      3.83924e+9 
           3170      3.73479e+9 
           3190      3.66834e+9 
           3210      3.56544e+9 
           3230      3.49546e+9 
           3250      3.44686e+9 
           3270      3.33634e+9 
           3290      3.28542e+9 
           3310      3.20891e+9 
           3330      3.12852e+9 
           3350      3.04949e+9 
           3370      2.99101e+9 
           3390      2.95959e+9 
           3410      2.89355e+9 
           3430      2.84588e+9 
           3450      2.76575e+9 
           3470      2.72088e+9 
           3490      2.66514e+9 
           3510      2.61284e+9 
           3530       2.5708e+9 
           3550      2.51447e+9 
           3570      2.46716e+9 
           3590      2.40379e+9 
           3610       2.3546e+9 
           3630      2.31377e+9 
           3640      2.28857e+9 
           3650      2.18374e+9 
           3670       2.1498e+9 
           3690      2.10838e+9 
           3710       2.0302e+9 
           3730      1.99693e+9 
           3750      1.99082e+9 
           3770      1.94553e+9 
           3790      2.01023e+9 
           3810      2.05077e+9 
           3830      1.85459e+9 
           3850       2.0406e+9 
           3870      1.97452e+9 
           3890      1.73829e+9 
           3910      1.98905e+9 
           3930      1.92278e+9 
           3950      1.87084e+9 
           3970      1.59934e+9 
           3990      1.83411e+9 
           4010      1.80609e+9 
           4030        1.732e+9 
           4050      1.74491e+9 
           4070      1.66469e+9 
           4090      1.56765e+9 
           4110      1.44266e+9 
           4130      1.59141e+9 
           4150       1.5728e+9 
           4170       1.5683e+9 
           4190      1.54122e+9 
           4210      1.51167e+9 
           4230      1.49434e+9 
           4250      1.44856e+9 
           4270      1.41661e+9 
           4290      1.38941e+9 
           4310      1.34564e+9 
           4330      1.26349e+9 
           4350      1.18272e+9 
           4370      1.28525e+9 
           4390      1.26704e+9 
           4410       1.2515e+9 
           4430      1.24674e+9 
           4450      1.22205e+9 
           4470       1.1821e+9 
           4490      1.18821e+9 
           4510      1.15822e+9 
           4530      1.14806e+9 
           4550      1.12281e+9 
           4570      1.11683e+9 
           4590      1.09401e+9 
           4610      1.07126e+9 
           4630       1.0457e+9 
           4650      9.89663e+8 
           4670      1.01696e+9 
           4690      9.99349e+8 
           4710      9.81557e+8 
           4730      9.88782e+8 
           4750      9.72041e+8 
           4770      9.65281e+8 
           4790      9.49093e+8 
           4810      9.30226e+8 
           4830      9.11056e+8 
           4850      8.63647e+8 
           4870      7.84278e+8 
           4890      8.69111e+8 
           4910      8.58389e+8 
           4930        8.349e+8 
           4950       8.3075e+8 
           4970      8.26609e+8 
           4990      8.13596e+8 
           5010      7.81628e+8 
           5030      7.83748e+8 
           5050      7.71688e+8 
           5070      7.66462e+8 
           5090      7.53834e+8 
           5110      7.41582e+8 
           5130      7.28081e+8 
           5150      7.18289e+8 
           5170      7.08796e+8 
           5190      7.00029e+8 
           5210      6.90515e+8 
           5230      6.80562e+8 
           5250      6.67828e+8 
           5270      6.57654e+8 
           5290      6.51883e+8 
           5310      6.42199e+8 
           5330      6.33476e+8 
           5350      6.24524e+8 
           5370      6.15792e+8 
           5390      6.06458e+8 
           5410      5.92856e+8 
           5430      5.90695e+8 
           5450       5.8222e+8 
           5470      5.73916e+8 
           5490       5.6593e+8 
           5510      5.58392e+8 
           5530      5.50295e+8 
           5550       5.4389e+8 
           5570      5.35935e+8 
           5590       5.2755e+8 
           5610      5.22143e+8 
           5630      5.15171e+8 
           5650      5.07589e+8 
           5670      4.99093e+8 
           5690      4.85304e+8 
           5710      4.76364e+8 
           5730      4.70945e+8 
           5750      4.63504e+8 
           5770      4.59504e+8 
           5790      4.53121e+8 
           5810      4.46179e+8 
           5830      4.39731e+8 
           5850       4.3651e+8 
           5870      4.22093e+8 
           5890       4.2427e+8 
           5910      4.20929e+8 
           5930       4.1608e+8 
           5950      4.11649e+8 
           5970      4.09075e+8 
           5990      4.03324e+8 
           6010      3.99945e+8 
           6030      3.94489e+8 
           6050      3.90207e+8 
           6070      3.86004e+8 
           6090      3.81411e+8 
           6110      3.76274e+8 
           6130      3.71888e+8 
           6150      3.65718e+8 
           6170      3.61698e+8 
           6190      3.58283e+8 
           6210      3.54279e+8 
           6230      3.49834e+8 
           6250      3.44927e+8 
           6270      3.41197e+8 
           6290      3.37279e+8 
           6310      3.32495e+8 
           6330      3.29316e+8 
           6350      3.24862e+8 
           6370        3.216e+8 
           6390      3.17652e+8 
           6410      3.13601e+8 
           6430      3.10268e+8 
           6450      3.06255e+8 
           6470      3.01566e+8 
           6490      2.98306e+8 
           6510      2.94494e+8 
           6530      2.90334e+8 
           6550      2.81301e+8 
           6570      2.52823e+8 
           6590       2.7912e+8 
           6610      2.78339e+8 
           6630      2.75711e+8 
           6650      2.72368e+8 
           6670      2.66401e+8 
           6690       2.6317e+8 
           6710      2.62666e+8 
           6730      2.59011e+8 
           6750      2.56842e+8 
           6770       2.5448e+8 
           6790      2.50335e+8 
           6810      2.48729e+8 
           6830      2.45877e+8 
           6850      2.43255e+8 
           6870      2.40324e+8 
           6890      2.36797e+8 
           6910      2.34315e+8 
           6930      2.32839e+8 
           6950      2.30238e+8 
           6970      2.27739e+8 
           6990       2.2515e+8 
           7010      2.22449e+8 
           7030      2.19577e+8 
           7050      2.17522e+8 
           7070      2.12396e+8 
           7090      2.13201e+8 
           7110      2.09887e+8 
           7130      2.07762e+8 
           7150      2.06388e+8 
           7170       2.0378e+8 
           7190      2.01831e+8 
           7210      1.99923e+8 
           7230      1.95677e+8 
           7250      1.95286e+8 
           7270      1.93629e+8 
           7290        1.903e+8 
           7310      1.89443e+8 
           7330      1.87499e+8 
           7350      1.85594e+8 
           7370      1.83673e+8 
           7390      1.81797e+8 
           7410      1.79884e+8 
           7430       1.7805e+8 
           7450      1.76098e+8 
           7470      1.73691e+8 
           7490      1.71804e+8 
           7510      1.70717e+8 
           7530      1.68874e+8 
           7550      1.67346e+8 
           7570      1.65589e+8 
           7590      1.63174e+8 
           7610      1.61836e+8 
           7630      1.60471e+8 
           7650      1.58912e+8 
           7670      1.57438e+8 
           7690      1.55429e+8 
           7710      1.54034e+8 
           7730      1.52166e+8 
           7750      1.51194e+8 
           7770      1.49724e+8 
           7790      1.48304e+8 
           7810      1.46817e+8 
           7830      1.45392e+8 
           7850      1.43832e+8 
           7870      1.42214e+8 
           7890      1.40762e+8 
           7910      1.39636e+8 
           7930      1.38255e+8 
           7950      1.37101e+8 
           7970      1.35685e+8 
           7990      1.34428e+8 
           8010      1.33088e+8 
           8030      1.31702e+8 
           8050      1.30629e+8 
           8070      1.29364e+8 
           8090      1.28057e+8 
           8110      1.26092e+8 
           8130      1.25723e+8 
           8150      1.24443e+8 
           8170      1.23355e+8 
           8190      1.21489e+8 
           8210      1.19629e+8 
           8230      1.18059e+8 
           8250       1.1762e+8 
           8270      1.15741e+8 
           8290       1.1543e+8 
           8310      1.14569e+8 
           8330      1.13227e+8 
           8350      1.11761e+8 
           8370      1.11147e+8 
           8390      1.10468e+8 
           8410      1.09336e+8 
           8430      1.08447e+8 
           8450       1.0699e+8 
           8470      1.06501e+8 
           8490      1.05393e+8 
           8510      1.03957e+8 
           8530      1.03516e+8 
           8550      1.02301e+8 
           8570      1.02106e+8 
