# Kurucz ODFNEW /NOVER (2003)
# teff = 20000 K (value for the effective temperature for the model. Temperatures are given in K)
# logg = 5 log(cm/s2) (value for Log(G) for the model.)
# meta = 0.5  (value for the Metallicity for the model.)
# lh = 1.25  (l/Hp where l is the  mixing length of the convective element and Hp is the pressure scale height)
# vtur = 2 km/s (Microturbulence velocity)
# alpha = 0  (Alpha)
#
# column 1: WAVELENGTH (ANGSTROM), Wavelength in Angstrom
# column 2: FLUX (ERG/CM2/S/A), Flux in erg/cm2/s/A
          147.2     1.04166e-18 
            151     5.87028e-18 
          155.2     3.60291e-17 
          158.8     1.57982e-16 
            162     5.57443e-16 
            166     2.51978e-15 
          170.3     1.17522e-14 
          173.4     3.41815e-14 
          176.8     1.05294e-13 
          180.2     3.10936e-13 
          181.7     4.94605e-13 
          186.1     1.85334e-12 
            191     7.52137e-12 
          193.9     1.66164e-11 
          198.4     5.43648e-11 
          201.8     1.28866e-10 
            205     2.83356e-10 
          210.5      1.03402e-9 
          216.2      3.69351e-9 
          219.8      7.98265e-9 
            223      1.54846e-8 
          226.8      3.32403e-8 
            230      1.23644e-7 
            234      3.02396e-7 
            240      9.05132e-7 
          246.5      2.76089e-6 
          252.4      7.25065e-6 
          256.8      1.42297e-5 
            260       2.3569e-5 
            264      4.25875e-5 
          268.5      8.09559e-5 
          273.5     0.000160846 
          278.5     0.000313561 
            284     0.000639341 
            290      0.00133405 
            296      0.00269596 
            301      0.00474649 
            308       0.0101287 
            318       0.0286921 
            328       0.0742155 
            338        0.185651 
            348        0.434547 
            357         0.93957 
            366         1.88685 
            375         3.57454 
            385         7.08727 
            395          13.533 
            405          24.966 
            414         42.3754 
            422         65.8415 
            430         101.169 
            441          178.14 
            451         290.214 
            460         439.488 
            470          687.39 
            480         1050.25 
            490         1580.51 
            500         2333.31 
            506         16319.2 
            512          128805 
            520          161461 
            530          220740 
            540          259874 
            550          381337 
            560          465782 
            570          607591 
            580          649186 
            590          894161 
            600      1.09419e+6 
            610      1.37358e+6 
            620      1.58444e+6 
            630      1.84995e+6 
            640      1.94913e+6 
            650      1.76176e+6 
            658      2.57181e+6 
            665      2.99049e+6 
            675      3.43222e+6 
            685      3.83068e+6 
            695      4.71543e+6 
            705      5.21755e+6 
            716      6.00666e+6 
            726      6.67251e+6 
            735      7.27622e+6 
            745      8.38406e+6 
            755      9.38412e+6 
            765      1.04974e+7 
            775      1.16953e+7 
            785      1.29453e+7 
            795      1.39361e+7 
            805      1.51593e+7 
            815      1.64077e+7 
            825       1.8197e+7 
            835      1.86807e+7 
            845       2.0654e+7 
            855       2.2302e+7 
            865      2.43335e+7 
            875      2.65365e+7 
            885      2.92225e+7 
            895      3.13804e+7 
            905       3.1889e+7 
            915      4.78952e+7 
            925      1.86307e+8 
            935      4.11516e+8 
            945      1.08021e+9 
            955      2.24309e+9 
            965      3.11368e+9 
            975      7.40599e+8 
            985       4.1683e+9 
            995      4.14392e+9 
           1005      5.33227e+9 
           1015      4.60826e+9 
           1025      1.03317e+9 
           1035      2.94339e+9 
           1045      7.26188e+9 
           1055      7.37094e+9 
           1065      5.50766e+9 
           1075      7.17876e+9 
           1085      6.35101e+9 
           1095      7.50992e+9 
           1105      6.50763e+9 
           1115      6.13082e+9 
           1125      5.77615e+9 
           1135      7.63767e+9 
           1145      6.32899e+9 
           1155      7.11678e+9 
           1165      7.48504e+9 
           1175      5.29993e+9 
           1185      7.67879e+9 
           1195      4.93354e+9 
           1205       2.8371e+9 
           1215      1.25442e+9 
           1225      3.51694e+9 
           1235      7.27956e+9 
           1245      7.87498e+9 
           1255      7.73491e+9 
           1265      7.09093e+9 
           1275      7.76761e+9 
           1285       8.3127e+9 
           1295      5.00793e+9 
           1305      4.44393e+9 
           1315      7.76389e+9 
           1325      7.21046e+9 
           1335      6.38351e+9 
           1345      7.49617e+9 
           1355      7.25461e+9 
           1365      6.26957e+9 
           1375      6.43436e+9 
           1385      6.58846e+9 
           1395      5.57305e+9 
           1405      5.88694e+9 
           1415      5.82322e+9 
           1425      6.07127e+9 
           1435      6.07257e+9 
           1442      6.45165e+9 
           1447      6.37943e+9 
           1455      6.21018e+9 
           1465      5.70318e+9 
           1475       5.7101e+9 
           1485      5.57093e+9 
           1495      5.64936e+9 
           1505      5.07107e+9 
           1512      4.55046e+9 
           1517       4.8548e+9 
           1525       4.9804e+9 
           1535      4.35868e+9 
           1545      4.47762e+9 
           1555      4.26099e+9 
           1565      4.37913e+9 
           1575      4.67619e+9 
           1585      4.75128e+9 
           1595       4.7803e+9 
           1605      4.75426e+9 
           1615      4.77226e+9 
           1625      4.54722e+9 
           1635      4.83591e+9 
           1645       4.8217e+9 
           1655      4.48729e+9 
           1665      4.89708e+9 
           1672      4.67505e+9 
           1677      4.81024e+9 
           1685       4.9227e+9 
           1695      4.61919e+9 
           1705      4.37402e+9 
           1715      4.07172e+9 
           1725      4.00895e+9 
           1735      4.26774e+9 
           1745      4.09376e+9 
           1755      4.26325e+9 
           1765      3.93971e+9 
           1775      3.91123e+9 
           1785      3.99877e+9 
           1795      4.22607e+9 
           1805        4.238e+9 
           1815      3.75057e+9 
           1825      3.93637e+9 
           1835      3.70361e+9 
           1845      3.38257e+9 
           1855      3.26836e+9 
           1865      3.34962e+9 
           1875      3.72558e+9 
           1885      3.30277e+9 
           1895      3.08882e+9 
           1905      3.38058e+9 
           1915      3.12141e+9 
           1925      3.03427e+9 
           1935      3.19225e+9 
           1945      3.23848e+9 
           1955      2.95862e+9 
           1967      3.26819e+9 
           1976      3.40676e+9 
           1984      3.11844e+9 
           1995      3.04609e+9 
           2005      3.17566e+9 
           2015      2.98342e+9 
           2025      3.24811e+9 
           2035      2.94435e+9 
           2045      3.01841e+9 
           2055       2.8924e+9 
           2065      2.93257e+9 
           2074      3.06264e+9 
           2078      2.79907e+9 
           2085      2.95319e+9 
           2095      2.74971e+9 
           2105      2.83451e+9 
           2115      2.83725e+9 
           2125      2.87726e+9 
           2135      2.74648e+9 
           2145      2.68352e+9 
           2155      2.79203e+9 
           2165       2.7364e+9 
           2175      2.70142e+9 
           2185      2.59926e+9 
           2195      2.66219e+9 
           2205      2.60253e+9 
           2215      2.53002e+9 
           2225      2.42035e+9 
           2235      2.49912e+9 
           2245      2.45845e+9 
           2255       2.3403e+9 
           2265      2.41419e+9 
           2275      2.41653e+9 
           2285      2.42804e+9 
           2295       2.2992e+9 
           2305      2.28313e+9 
           2315      2.19048e+9 
           2325      2.15572e+9 
           2335      2.05251e+9 
           2345      2.03675e+9 
           2355      2.05522e+9 
           2365      1.98507e+9 
           2375      1.99197e+9 
           2385      1.92629e+9 
           2395      2.00508e+9 
           2405      1.90383e+9 
           2415      1.93286e+9 
           2425      1.94911e+9 
           2435      1.85714e+9 
           2445      1.91219e+9 
           2455      1.88814e+9 
           2465      1.86182e+9 
           2475       1.8115e+9 
           2485      1.85942e+9 
           2495      1.77513e+9 
           2505      1.83135e+9 
           2513      1.71632e+9 
           2518      1.79763e+9 
           2525      1.71795e+9 
           2535      1.70912e+9 
           2545      1.64761e+9 
           2555      1.69943e+9 
           2565      1.67916e+9 
           2575      1.71609e+9 
           2585      1.71157e+9 
           2595      1.70216e+9 
           2605      1.66119e+9 
           2615      1.64856e+9 
           2625      1.63761e+9 
           2635       1.6372e+9 
           2645      1.65317e+9 
           2655      1.64346e+9 
           2665      1.56713e+9 
           2675      1.59587e+9 
           2685      1.57721e+9 
           2695       1.5329e+9 
           2705      1.52833e+9 
           2715      1.50099e+9 
           2725      1.48132e+9 
           2735      1.50622e+9 
           2745      1.41947e+9 
           2755      1.41931e+9 
           2765      1.41995e+9 
           2775      1.44501e+9 
           2785      1.43008e+9 
           2795       1.3457e+9 
           2805      1.38568e+9 
           2815      1.39981e+9 
           2825      1.37292e+9 
           2835      1.30288e+9 
           2845       1.3078e+9 
           2855      1.31085e+9 
           2865      1.32972e+9 
           2875      1.30444e+9 
           2885      1.29496e+9 
           2895      1.28436e+9 
           2910      1.27414e+9 
           2930      1.24399e+9 
           2950      1.20913e+9 
           2970      1.19926e+9 
           2990      1.16974e+9 
           3010      1.15375e+9 
           3030       1.1444e+9 
           3050      1.11806e+9 
           3070      1.09646e+9 
           3090      1.07285e+9 
           3110      1.05255e+9 
           3130      1.03603e+9 
           3150      1.01684e+9 
           3170      9.92725e+8 
           3190      9.62213e+8 
           3210      9.57901e+8 
           3230      9.42284e+8 
           3250      9.26906e+8 
           3270      9.11022e+8 
           3290      8.94167e+8 
           3310      8.80471e+8 
           3330      8.62996e+8 
           3350      8.45438e+8 
           3370      8.31353e+8 
           3390       8.1777e+8 
           3410      8.04285e+8 
           3430      7.86607e+8 
           3450      7.70519e+8 
           3470       7.5844e+8 
           3490      7.45504e+8 
           3510      7.33516e+8 
           3530      7.22476e+8 
           3550      7.10801e+8 
           3570        7.028e+8 
           3590      6.82481e+8 
           3610      6.73523e+8 
           3630      6.62777e+8 
           3640      6.62922e+8 
           3650      6.55505e+8 
           3670      6.48016e+8 
           3690      6.37912e+8 
           3710       6.1526e+8 
           3730       5.8783e+8 
           3750      5.92641e+8 
           3770      5.82711e+8 
           3790      6.27353e+8 
           3810      6.67213e+8 
           3830      5.65008e+8 
           3850      6.98154e+8 
           3870      7.27807e+8 
           3890       5.2441e+8 
           3910      7.29132e+8 
           3930      7.21657e+8 
           3950      7.06327e+8 
           3970      4.89792e+8 
           3990      6.69921e+8 
           4010      6.91697e+8 
           4030      6.34861e+8 
           4050      6.80329e+8 
           4070       6.4912e+8 
           4090      5.65609e+8 
           4110      4.77265e+8 
           4130      6.06565e+8 
           4150      6.12742e+8 
           4170      6.13139e+8 
           4190      6.09017e+8 
           4210      6.02989e+8 
           4230      5.90563e+8 
           4250       5.7728e+8 
           4270      5.55148e+8 
           4290      5.56269e+8 
           4310      5.36516e+8 
           4330      4.52182e+8 
           4350      4.05588e+8 
           4370      5.04761e+8 
           4390      4.92392e+8 
           4410      5.05215e+8 
           4430      4.96709e+8 
           4450      4.94214e+8 
           4470       4.5328e+8 
           4490       4.7246e+8 
           4510      4.74484e+8 
           4530      4.64356e+8 
           4550      4.58681e+8 
           4570      4.52565e+8 
           4590      4.45267e+8 
           4610      4.36307e+8 
           4630      4.27168e+8 
           4650      4.21045e+8 
           4670      4.17688e+8 
           4690      4.13363e+8 
           4710      3.94168e+8 
           4730      3.95944e+8 
           4750      3.90162e+8 
           4770       3.9001e+8 
           4790      3.82097e+8 
           4810      3.71859e+8 
           4830      3.61454e+8 
           4850      3.13555e+8 
           4870      2.73022e+8 
           4890      3.43942e+8 
           4910      3.46162e+8 
           4930      3.30696e+8 
           4950      3.39914e+8 
           4970      3.37031e+8 
           4990      3.31294e+8 
           5010       3.1486e+8 
           5030      3.19747e+8 
           5050      3.09065e+8 
           5070       3.1286e+8 
           5090      3.07964e+8 
           5110      3.02095e+8 
           5130      2.95421e+8 
           5150      2.91015e+8 
           5170      2.91037e+8 
           5190      2.87119e+8 
           5210      2.79146e+8 
           5230      2.79315e+8 
           5250      2.75947e+8 
           5270       2.7132e+8 
           5290      2.69366e+8 
           5310       2.6511e+8 
           5330      2.61002e+8 
           5350      2.56462e+8 
           5370      2.55221e+8 
           5390      2.51736e+8 
           5410       2.4787e+8 
           5430      2.43913e+8 
           5450       2.4115e+8 
           5470      2.37426e+8 
           5490      2.35599e+8 
           5510      2.32403e+8 
           5530      2.29394e+8 
           5550      2.26814e+8 
           5570      2.23658e+8 
           5590      2.21133e+8 
           5610      2.18002e+8 
           5630       2.1604e+8 
           5650      2.10171e+8 
           5670      2.07601e+8 
           5690      2.06179e+8 
           5710      2.04679e+8 
           5730      2.02392e+8 
           5750      1.99734e+8 
           5770      1.97627e+8 
           5790      1.95062e+8 
           5810      1.92505e+8 
           5830      1.90056e+8 
           5850      1.87856e+8 
           5870      1.77776e+8 
           5890      1.80752e+8 
           5910      1.80674e+8 
           5930       1.7875e+8 
           5950      1.75518e+8 
           5970       1.7464e+8 
           5990      1.71985e+8 
           6010      1.70665e+8 
           6030      1.68447e+8 
           6050      1.66552e+8 
           6070      1.64608e+8 
           6090      1.62452e+8 
           6110      1.60795e+8 
           6130      1.58995e+8 
           6150      1.55552e+8 
           6170      1.54971e+8 
           6190       1.5345e+8 
           6210      1.51653e+8 
           6230      1.49768e+8 
           6250      1.47268e+8 
           6270      1.46234e+8 
           6290      1.44573e+8 
           6310      1.42674e+8 
           6330      1.41407e+8 
           6350      1.38425e+8 
           6370      1.37482e+8 
           6390       1.3642e+8 
           6410      1.34818e+8 
           6430      1.33726e+8 
           6450      1.31929e+8 
           6470      1.30062e+8 
           6490      1.28626e+8 
           6510      1.26726e+8 
           6530      1.24025e+8 
           6550      1.13688e+8 
           6570      9.79071e+7 
           6590      1.17266e+8 
           6610      1.19713e+8 
           6630       1.1912e+8 
           6650      1.18039e+8 
           6670      1.15139e+8 
           6690      1.14089e+8 
           6710      1.14431e+8 
           6730      1.13161e+8 
           6750      1.12095e+8 
           6770      1.10949e+8 
           6790       1.0885e+8 
           6810      1.08366e+8 
           6830       1.0715e+8 
           6850      1.06237e+8 
           6870       1.0514e+8 
           6890      1.04007e+8 
           6910      1.02908e+8 
           6930      1.01601e+8 
           6950      1.00807e+8 
           6970      9.97872e+7 
           6990      9.87159e+7 
           7010      9.76244e+7 
           7030      9.66276e+7 
           7050      9.54207e+7 
           7070      9.28391e+7 
           7090       9.3725e+7 
           7110      9.24756e+7 
           7130       9.1587e+7 
           7150      9.07658e+7 
           7170      8.99304e+7 
           7190       8.9081e+7 
           7210      8.81889e+7 
           7230      8.59215e+7 
           7250      8.62724e+7 
           7270      8.55631e+7 
           7290      8.39743e+7 
           7310      8.38538e+7 
           7330      8.30252e+7 
           7350      8.22323e+7 
           7370       8.1412e+7 
           7390      8.06064e+7 
           7410      7.98151e+7 
           7430      7.88332e+7 
           7450      7.81797e+7 
           7470      7.72148e+7 
           7490      7.65948e+7 
           7510      7.58935e+7 
           7530      7.51653e+7 
           7550        7.449e+7 
           7570      7.37945e+7 
           7590      7.30399e+7 
           7610      7.23898e+7 
           7630      7.16872e+7 
           7650      7.10039e+7 
           7670      7.03267e+7 
           7690      6.96428e+7 
           7710      6.90031e+7 
           7730      6.83124e+7 
           7750      6.76968e+7 
           7770      6.62817e+7 
           7790      6.64323e+7 
           7810      6.57898e+7 
           7830      6.52022e+7 
           7850      6.42713e+7 
           7870      6.37686e+7 
           7890      6.29616e+7 
           7910       6.2758e+7 
           7930      6.22621e+7 
           7950      6.13413e+7 
           7970      6.10635e+7 
           7990      6.00972e+7 
           8010      5.99854e+7 
           8030      5.93948e+7 
           8050      5.88036e+7 
           8070      5.83216e+7 
           8090      5.77055e+7 
           8110      5.72007e+7 
           8130      5.67007e+7 
           8150      5.62044e+7 
           8170       5.5758e+7 
           8190      5.51226e+7 
           8210       5.4485e+7 
           8230      5.38745e+7 
           8250      5.37691e+7 
           8270      5.30946e+7 
           8290      5.27872e+7 
           8310       5.2349e+7 
           8330      5.19047e+7 
           8350      5.12646e+7 
           8370      5.09016e+7 
           8390      5.06196e+7 
           8410      5.01719e+7 
           8430      4.96818e+7 
           8450      4.86497e+7 
           8470      4.88414e+7 
           8490      4.82352e+7 
           8510      4.78532e+7 
           8530      4.74639e+7 
           8550      4.67195e+7 
           8570      4.68947e+7 
           8590      4.54093e+7 
