# Kurucz ODFNEW /NOVER (2003)
# teff = 20000 K (value for the effective temperature for the model. Temperatures are given in K)
# logg = 5 log(cm/s2) (value for Log(G) for the model.)
# meta = -2  (value for the Metallicity for the model.)
# lh = 1.25  (l/Hp where l is the  mixing length of the convective element and Hp is the pressure scale height)
# vtur = 2 km/s (Microturbulence velocity)
# alpha = 0  (Alpha)
#
# column 1: WAVELENGTH (ANGSTROM), Wavelength in Angstrom
# column 2: FLUX (ERG/CM2/S/A), Flux in erg/cm2/s/A
          147.2     1.27996e-20 
            151     8.34221e-20 
          155.2     5.99635e-19 
          158.8     3.00353e-18 
            162      1.1895e-17 
            166     6.19807e-17 
          170.3     3.36824e-16 
          173.4     1.08569e-15 
          176.8     3.74617e-15 
          180.2     1.23604e-14 
          181.7     2.06446e-14 
          186.1     8.88055e-14 
            191     4.17313e-13 
          193.9     1.00412e-12 
          198.4     3.73489e-12 
          201.8     9.71444e-12 
            205     2.32304e-11 
          210.5     9.75104e-11 
          216.2     3.99688e-10 
          219.8     9.38158e-10 
            223      1.95505e-9 
          226.8      4.55343e-9 
            230      1.03896e-8 
            234      2.48263e-8 
            240      8.21022e-8 
          246.5      2.79517e-7 
          252.4      8.04484e-7 
          256.8      1.70643e-6 
            260       2.9201e-6 
            264      5.58208e-6 
          268.5      1.12869e-5 
          273.5      2.39921e-5 
          278.5      4.96301e-5 
            284      0.00010705 
            290     0.000239185 
            296     0.000516231 
            301     0.000957157 
            308      0.00218792 
            318      0.00669756 
            328       0.0190525 
            338       0.0507597 
            348        0.127406 
            357        0.278232 
            366        0.583419 
            375         1.17735 
            385         2.46487 
            395         4.95585 
            405         9.60031 
            414         16.9005 
            422         27.3296 
            430         43.3453 
            441         79.3224 
            451         133.588 
            460         209.053 
            470         336.345 
            480         529.383 
            490         816.315 
            500         1234.66 
            506         9027.43 
            512         24580.3 
            520           31611 
            530         45926.4 
            540         54983.6 
            550         78710.9 
            560          100635 
            570          128417 
            580          142864 
            590          194166 
            600          248254 
            610          305099 
            620          370732 
            630          448535 
            640          535322 
            650          641885 
            658          736398 
            665          826500 
            675          968231 
            685       1.1278e+6 
            695      1.32168e+6 
            705      1.52875e+6 
            716      1.78321e+6 
            726      2.04355e+6 
            735      2.30323e+6 
            745       2.6207e+6 
            755      2.96922e+6 
            765      3.34755e+6 
            775      3.76582e+6 
            785      4.21844e+6 
            795      4.70696e+6 
            805      5.23767e+6 
            815       5.8067e+6 
            825      6.42453e+6 
            835      7.02101e+6 
            845      7.78494e+6 
            855      8.52121e+6 
            865      9.34189e+6 
            875      1.01914e+7 
            885      1.11038e+7 
            895      1.20583e+7 
            905      1.29505e+7 
            915      2.05274e+7 
            925      6.64409e+7 
            935      1.51726e+8 
            945      8.35658e+8 
            955      3.09314e+9 
            965      4.68027e+9 
            975      1.15639e+9 
            985     1.01394e+10 
            995      1.2627e+10 
           1005     1.26537e+10 
           1015      7.40057e+9 
           1025       5.1678e+8 
           1035      5.72642e+9 
           1045     1.22324e+10 
           1055     1.31351e+10 
           1065     1.24555e+10 
           1075     1.30082e+10 
           1085     1.21468e+10 
           1095     1.26373e+10 
           1105     1.19724e+10 
           1115     1.18695e+10 
           1125     1.12534e+10 
           1135     1.13619e+10 
           1145     1.07827e+10 
           1155     1.08832e+10 
           1165     1.06663e+10 
           1175      9.49802e+9 
           1185      9.82157e+9 
           1195      8.12144e+9 
           1205      4.58087e+9 
           1215       4.8975e+8 
           1225      3.76196e+9 
           1235      7.59473e+9 
           1245      8.46023e+9 
           1255      8.49362e+9 
           1265      8.38929e+9 
           1275      8.46307e+9 
           1285      8.33757e+9 
           1295      7.78001e+9 
           1305      7.58713e+9 
           1315      7.86454e+9 
           1325       7.6025e+9 
           1335      7.27892e+9 
           1345      7.39746e+9 
           1355      7.28375e+9 
           1365      7.10503e+9 
           1375      6.97237e+9 
           1385      6.85536e+9 
           1395      6.62714e+9 
           1405      6.56615e+9 
           1415       6.4812e+9 
           1425      6.39278e+9 
           1435      6.27893e+9 
           1442      6.21449e+9 
           1447      6.15471e+9 
           1455      6.05821e+9 
           1465      5.93594e+9 
           1475       5.8346e+9 
           1485      5.71631e+9 
           1495      5.62037e+9 
           1505      5.49487e+9 
           1512      5.41972e+9 
           1517      5.39273e+9 
           1525       5.2979e+9 
           1535      5.14676e+9 
           1545      5.12691e+9 
           1555      4.99995e+9 
           1565      4.93749e+9 
           1575      4.88638e+9 
           1585      4.80647e+9 
           1595      4.74091e+9 
           1605      4.61635e+9 
           1615      4.53943e+9 
           1625      4.48972e+9 
           1635      4.42623e+9 
           1645      4.34543e+9 
           1655      4.26241e+9 
           1665      4.23936e+9 
           1672      4.11311e+9 
           1677      4.15506e+9 
           1685      4.10813e+9 
           1695      4.03358e+9 
           1705      3.95413e+9 
           1715      3.88254e+9 
           1725      3.81411e+9 
           1735      3.78503e+9 
           1745      3.71604e+9 
           1755      3.67895e+9 
           1765      3.54705e+9 
           1775      3.55741e+9 
           1785      3.50466e+9 
           1795      3.46794e+9 
           1805       3.4169e+9 
           1815      3.35934e+9 
           1825      3.31788e+9 
           1835       3.2666e+9 
           1845      3.19565e+9 
           1855       3.1083e+9 
           1865       3.0757e+9 
           1875      3.07609e+9 
           1885       3.0006e+9 
           1895      2.93419e+9 
           1905      2.94021e+9 
           1915       2.8651e+9 
           1925      2.82647e+9 
           1935      2.80306e+9 
           1945      2.78676e+9 
           1955      2.71614e+9 
           1967      2.70608e+9 
           1976      2.68428e+9 
           1984       2.6378e+9 
           1995      2.57679e+9 
           2005      2.57299e+9 
           2015      2.54557e+9 
           2025      2.51828e+9 
           2035      2.47822e+9 
           2045      2.44557e+9 
           2055      2.38267e+9 
           2065       2.3668e+9 
           2074      2.36181e+9 
           2078      2.32489e+9 
           2085      2.32309e+9 
           2095      2.28199e+9 
           2105      2.26572e+9 
           2115      2.24098e+9 
           2125      2.21743e+9 
           2135      2.18787e+9 
           2145      2.15875e+9 
           2155      2.13414e+9 
           2165      2.10426e+9 
           2175      2.07851e+9 
           2185      2.05455e+9 
           2195      2.03212e+9 
           2205      2.00474e+9 
           2215      1.97839e+9 
           2225      1.95266e+9 
           2235      1.93417e+9 
           2245      1.91077e+9 
           2255      1.88593e+9 
           2265      1.86587e+9 
           2275      1.84244e+9 
           2285       1.8231e+9 
           2295      1.79495e+9 
           2305      1.77841e+9 
           2315      1.75633e+9 
           2325       1.7377e+9 
           2335      1.71083e+9 
           2345      1.68079e+9 
           2355       1.6751e+9 
           2365       1.6479e+9 
           2375      1.63498e+9 
           2385      1.60607e+9 
           2395      1.59275e+9 
           2405      1.57576e+9 
           2415      1.55789e+9 
           2425      1.54795e+9 
           2435      1.52783e+9 
           2445      1.51088e+9 
           2455      1.49754e+9 
           2465      1.47772e+9 
           2475      1.46328e+9 
           2485      1.44756e+9 
           2495      1.42382e+9 
           2505      1.41668e+9 
           2513      1.39974e+9 
           2518      1.39716e+9 
           2525       1.3831e+9 
           2535      1.36406e+9 
           2545      1.35318e+9 
           2555       1.3429e+9 
           2565      1.32569e+9 
           2575      1.31462e+9 
           2585       1.2999e+9 
           2595      1.28532e+9 
           2605      1.27475e+9 
           2615       1.2632e+9 
           2625      1.25184e+9 
           2635      1.23764e+9 
           2645      1.22997e+9 
           2655      1.21602e+9 
           2665      1.19991e+9 
           2675        1.187e+9 
           2685      1.18069e+9 
           2695      1.16068e+9 
           2705      1.15639e+9 
           2715       1.1438e+9 
           2725      1.12365e+9 
           2735      1.12124e+9 
           2745      1.10169e+9 
           2755      1.09207e+9 
           2765      1.07861e+9 
           2775      1.07746e+9 
           2785      1.06609e+9 
           2795      1.04025e+9 
           2805       1.0383e+9 
           2815       1.0356e+9 
           2825      1.01572e+9 
           2835      1.00777e+9 
           2845      1.00461e+9 
           2855      9.95226e+8 
           2865      9.85996e+8 
           2875      9.76186e+8 
           2885      9.66896e+8 
           2895      9.57711e+8 
           2910      9.43992e+8 
           2930      9.25444e+8 
           2950      9.02289e+8 
           2970      8.91459e+8 
           2990      8.74685e+8 
           3010      8.58651e+8 
           3030       8.4288e+8 
           3050      8.27408e+8 
           3070      8.12305e+8 
           3090      7.97563e+8 
           3110       7.8317e+8 
           3130      7.69656e+8 
           3150      7.55889e+8 
           3170      7.42482e+8 
           3190      7.24205e+8 
           3210      7.16379e+8 
           3230      7.03779e+8 
           3250      6.91506e+8 
           3270      6.80008e+8 
           3290      6.67798e+8 
           3310      6.56898e+8 
           3330      6.45735e+8 
           3350      6.34188e+8 
           3370      6.24128e+8 
           3390      6.13672e+8 
           3410      6.03449e+8 
           3430      5.92429e+8 
           3450      5.81656e+8 
           3470      5.72968e+8 
           3490      5.63667e+8 
           3510      5.54723e+8 
           3530      5.46279e+8 
           3550      5.37271e+8 
           3570      5.30352e+8 
           3590      5.19724e+8 
           3610      5.12651e+8 
           3630      5.03358e+8 
           3640      5.01591e+8 
           3650      4.96471e+8 
           3670      4.90599e+8 
           3690      4.82861e+8 
           3710      4.67815e+8 
           3730      4.45482e+8 
           3750      4.53924e+8 
           3770      4.50976e+8 
           3790      4.91339e+8 
           3810      5.28886e+8 
           3830      4.47255e+8 
           3850      5.61593e+8 
           3870      5.94314e+8 
           3890      4.11258e+8 
           3910      5.88599e+8 
           3930      6.03771e+8 
           3950      5.73913e+8 
           3970      3.86556e+8 
           3990      5.44929e+8 
           4010      5.67715e+8 
           4030      5.27021e+8 
           4050      5.60552e+8 
           4070      5.43412e+8 
           4090      4.55415e+8 
           4110      3.80139e+8 
           4130      5.04989e+8 
           4150      5.11026e+8 
           4170      5.10036e+8 
           4190       5.0402e+8 
           4210      4.96628e+8 
           4230      4.88637e+8 
           4250      4.80065e+8 
           4270      4.71198e+8 
           4290      4.61943e+8 
           4310      4.45437e+8 
           4330      3.65801e+8 
           4350      3.27046e+8 
           4370      4.20901e+8 
           4390      4.10057e+8 
           4410      4.21726e+8 
           4430       4.1426e+8 
           4450      4.09556e+8 
           4470      3.77881e+8 
           4490      3.96498e+8 
           4510      3.92397e+8 
           4530      3.86443e+8 
           4550      3.80615e+8 
           4570      3.74891e+8 
           4590      3.69307e+8 
           4610      3.63787e+8 
           4630      3.58366e+8 
           4650      3.53043e+8 
           4670      3.47866e+8 
           4690      3.42765e+8 
           4710      3.32727e+8 
           4730      3.32715e+8 
           4750      3.27798e+8 
           4770      3.22555e+8 
           4790      3.17224e+8 
           4810      3.10993e+8 
           4830      3.00316e+8 
           4850      2.55018e+8 
           4870      2.21953e+8 
           4890      2.83633e+8 
           4910      2.88015e+8 
           4930      2.77623e+8 
           4950      2.83395e+8 
           4970      2.80234e+8 
           4990      2.76358e+8 
           5010      2.68542e+8 
           5030      2.68674e+8 
           5050      2.63301e+8 
           5070      2.61477e+8 
           5090      2.57899e+8 
           5110      2.54398e+8 
           5130      2.50958e+8 
           5150      2.47564e+8 
           5170      2.44243e+8 
           5190      2.40966e+8 
           5210      2.37717e+8 
           5230       2.3458e+8 
           5250      2.31471e+8 
           5270      2.28415e+8 
           5290      2.25412e+8 
           5310      2.22461e+8 
           5330      2.19549e+8 
           5350      2.16673e+8 
           5370      2.13873e+8 
           5390      2.11109e+8 
           5410       2.0838e+8 
           5430      2.05685e+8 
           5450      2.03049e+8 
           5470      2.00459e+8 
           5490      1.97914e+8 
           5510        1.954e+8 
           5530       1.9293e+8 
           5550      1.90502e+8 
           5570      1.88104e+8 
           5590      1.85748e+8 
           5610       1.8342e+8 
           5630      1.81145e+8 
           5650      1.78885e+8 
           5670      1.76676e+8 
           5690      1.74506e+8 
           5710      1.72372e+8 
           5730      1.70253e+8 
           5750      1.68182e+8 
           5770      1.66136e+8 
           5790      1.64113e+8 
           5810      1.62137e+8 
           5830      1.60173e+8 
           5850      1.58254e+8 
           5870      1.51011e+8 
           5890      1.54027e+8 
           5910      1.52652e+8 
           5930      1.50842e+8 
           5950      1.49053e+8 
           5970      1.47306e+8 
           5990      1.45568e+8 
           6010       1.4386e+8 
           6030      1.42182e+8 
           6050      1.40523e+8 
           6070      1.38893e+8 
           6090      1.37291e+8 
           6110      1.35708e+8 
           6130      1.34142e+8 
           6150      1.32604e+8 
           6170      1.31092e+8 
           6190      1.29597e+8 
           6210      1.28119e+8 
           6230      1.26667e+8 
           6250      1.25231e+8 
           6270       1.2382e+8 
           6290      1.22434e+8 
           6310      1.21053e+8 
           6330      1.19707e+8 
           6350      1.18328e+8 
           6370      1.17038e+8 
           6390      1.15762e+8 
           6410      1.14473e+8 
           6430      1.13224e+8 
           6450       1.1198e+8 
           6470      1.10632e+8 
           6490      1.09173e+8 
           6510      1.07587e+8 
           6530      1.05038e+8 
           6550      9.57311e+7 
           6570      8.31294e+7 
           6590      9.98121e+7 
           6610      1.01546e+8 
           6630      1.01071e+8 
           6650      1.00217e+8 
           6670      9.81689e+7 
           6690      9.72545e+7 
           6710      9.73115e+7 
           6730      9.62848e+7 
           6750      9.52686e+7 
           6770      9.42709e+7 
           6790      9.32751e+7 
           6810      9.23057e+7 
           6830      9.13459e+7 
           6850      9.03958e+7 
           6870      8.94552e+7 
           6890      8.85319e+7 
           6910      8.76177e+7 
           6930      8.67205e+7 
           6950      8.58321e+7 
           6970      8.49525e+7 
           6990      8.40893e+7 
           7010      8.32345e+7 
           7030       8.2388e+7 
           7050      8.15499e+7 
           7070      7.96194e+7 
           7090      7.99203e+7 
           7110      7.91136e+7 
           7130      7.83221e+7 
           7150      7.75382e+7 
           7170      7.67691e+7 
           7190      7.60074e+7 
           7210       7.5253e+7 
           7230      7.44841e+7 
           7250      7.37727e+7 
           7270      7.30466e+7 
           7290      7.18878e+7 
           7310      7.16219e+7 
           7330      7.09231e+7 
           7350      7.02308e+7 
           7370      6.95519e+7 
           7390      6.88752e+7 
           7410      6.82095e+7 
           7430      6.75514e+7 
           7450      6.69062e+7 
           7470      6.62642e+7 
           7490        6.563e+7 
           7510      6.49957e+7 
           7530      6.43845e+7 
           7550      6.37735e+7 
           7570      6.31688e+7 
           7590      6.25721e+7 
           7610      6.19821e+7 
           7630      6.13988e+7 
           7650      6.08226e+7 
           7670      6.02535e+7 
           7690      5.96908e+7 
           7710      5.91343e+7 
           7730      5.85847e+7 
           7750      5.80419e+7 
           7770      5.74895e+7 
           7790      5.69743e+7 
           7810      5.64377e+7 
           7830      5.59316e+7 
           7850      5.54409e+7 
           7870      5.49332e+7 
           7890      5.44288e+7 
           7910      5.39407e+7 
           7930      5.34509e+7 
           7950      5.29659e+7 
           7970      5.24875e+7 
           7990      5.20115e+7 
           8010      5.15471e+7 
           8030      5.10845e+7 
           8050      5.06269e+7 
           8070      5.01749e+7 
           8090      4.97176e+7 
           8110      4.92849e+7 
           8130      4.88477e+7 
           8150      4.84069e+7 
           8170      4.79879e+7 
           8190      4.75444e+7 
           8210      4.70609e+7 
           8230      4.67068e+7 
           8250      4.63173e+7 
           8270      4.58363e+7 
           8290      4.55315e+7 
           8310      4.51593e+7 
           8330      4.47625e+7 
           8350      4.42922e+7 
           8370      4.39845e+7 
           8390      4.36445e+7 
           8410      4.32646e+7 
           8430      4.28772e+7 
           8450      4.23864e+7 
           8470       4.2115e+7 
           8490      4.17093e+7 
           8510      4.13054e+7 
           8530      4.09805e+7 
           8550      4.03133e+7 
           8570      4.04767e+7 
           8590      3.93051e+7 
