# Kurucz ODFNEW /NOVER (2003)
# teff = 23000 K (value for the effective temperature for the model. Temperatures are given in K)
# logg = 4.5 log(cm/s2) (value for Log(G) for the model.)
# meta = 0.2  (value for the Metallicity for the model.)
# lh = 1.25  (l/Hp where l is the  mixing length of the convective element and Hp is the pressure scale height)
# vtur = 2 km/s (Microturbulence velocity)
# alpha = 0  (Alpha)
#
# column 1: WAVELENGTH (ANGSTROM), Wavelength in Angstrom
# column 2: FLUX (ERG/CM2/S/A), Flux in erg/cm2/s/A
          147.2     7.97904e-16 
            151     3.64569e-15 
          155.2     1.79864e-14 
          158.8      6.6266e-14 
            162     2.01858e-13 
            166     7.67185e-13 
          170.3     3.00959e-12 
          173.4     7.77677e-12 
          176.8      2.1201e-11 
          180.2     5.57819e-11 
          181.7     8.45969e-11 
          186.1      2.7687e-10 
            191     9.76898e-10 
          193.9      2.00162e-9 
          198.4      5.86142e-9 
          201.8      1.28163e-8 
            205       2.6177e-8 
          210.5      8.52164e-8 
          216.2      2.72828e-7 
          219.8      5.52539e-7 
            223      1.01597e-6 
          226.8       2.0504e-6 
            230      5.91686e-5 
            234     0.000138986 
            240     0.000352144 
          246.5      0.00091426 
          252.4       0.0021089 
          256.8       0.0036961 
            260      0.00589894 
            264      0.00974526 
          268.5       0.0168674 
          273.5       0.0302488 
          278.5       0.0536226 
            284        0.100521 
            290          0.1878 
            296        0.342585 
            301        0.553071 
            308         1.06271 
            318         2.63324 
            328         5.86118 
            338         12.9862 
            348         26.8066 
            357           60.49 
            366         111.307 
            375         187.284 
            385         332.874 
            395         581.157 
            405         964.303 
            414         1508.62 
            422         2170.88 
            430         3148.72 
            441         5049.44 
            451         7562.15 
            460         10632.1 
            470         15550.6 
            480         22137.8 
            490         31313.6 
            500         43439.9 
            506          245678 
            512      2.09372e+6 
            520      2.52007e+6 
            530      3.22627e+6 
            540      3.62789e+6 
            550      5.19513e+6 
            560      6.09122e+6 
            570      7.60115e+6 
            580      7.55945e+6 
            590      1.00295e+7 
            600      1.17006e+7 
            610      1.40658e+7 
            620      1.55484e+7 
            630       1.7108e+7 
            640       1.6481e+7 
            650      1.28026e+7 
            658      1.97873e+7 
            665      2.43949e+7 
            675      2.73031e+7 
            685      2.93419e+7 
            695      3.68489e+7 
            705      3.90619e+7 
            716      4.43524e+7 
            726      4.74525e+7 
            735      5.03317e+7 
            745      5.73886e+7 
            755      6.25357e+7 
            765       6.8268e+7 
            775      7.44082e+7 
            785      8.05515e+7 
            795      8.47906e+7 
            805      8.98651e+7 
            815       9.4763e+7 
            825      1.03705e+8 
            835      1.00133e+8 
            845      1.11844e+8 
            855      1.17251e+8 
            865      1.26237e+8 
            875      1.35753e+8 
            885      1.47498e+8 
            895      1.55828e+8 
            905       1.5565e+8 
            915      2.17643e+8 
            925      1.09713e+9 
            935      2.92825e+9 
            945       7.8938e+9 
            955     1.28398e+10 
            965     1.63811e+10 
            975      2.34885e+9 
            985     1.58403e+10 
            995     1.58063e+10 
           1005     1.96021e+10 
           1015     1.85314e+10 
           1025       5.8093e+9 
           1035     1.29394e+10 
           1045     2.42857e+10 
           1055     2.25765e+10 
           1065      1.7183e+10 
           1075     2.08866e+10 
           1085     1.82863e+10 
           1095     2.11426e+10 
           1105     1.85097e+10 
           1115     1.72688e+10 
           1125     1.42765e+10 
           1135     1.92701e+10 
           1145     1.66246e+10 
           1155     1.76698e+10 
           1165      1.7652e+10 
           1175     1.05445e+10 
           1185     1.71639e+10 
           1195     1.43287e+10 
           1205       8.2617e+9 
           1215      4.94573e+9 
           1225     1.19504e+10 
           1235     1.62916e+10 
           1245     1.61981e+10 
           1255     1.58059e+10 
           1265     1.57164e+10 
           1275     1.63345e+10 
           1285     1.63904e+10 
           1295     1.04274e+10 
           1305     1.07701e+10 
           1315     1.55772e+10 
           1325     1.42744e+10 
           1335     1.32781e+10 
           1345     1.42237e+10 
           1355     1.38998e+10 
           1365     1.22747e+10 
           1375     1.20591e+10 
           1385     1.19375e+10 
           1395      9.07759e+9 
           1405      9.78186e+9 
           1415     1.03461e+10 
           1425     1.04318e+10 
           1435     1.06744e+10 
           1442     1.10457e+10 
           1447      1.0825e+10 
           1455     1.04978e+10 
           1465      9.53836e+9 
           1475      9.73276e+9 
           1485      9.52353e+9 
           1495      9.39133e+9 
           1505      8.37195e+9 
           1512      7.41662e+9 
           1517      7.72174e+9 
           1525      8.06908e+9 
           1535      6.85259e+9 
           1545      6.77538e+9 
           1555      6.56247e+9 
           1565      6.99846e+9 
           1575      7.45023e+9 
           1585      7.49223e+9 
           1595      7.42863e+9 
           1605      7.57853e+9 
           1615      7.46721e+9 
           1625      7.23363e+9 
           1635      7.70264e+9 
           1645      7.65411e+9 
           1655      7.41032e+9 
           1665      7.76092e+9 
           1672      7.39637e+9 
           1677      7.85212e+9 
           1685      7.75492e+9 
           1695       7.2762e+9 
           1705      6.97883e+9 
           1715      6.56709e+9 
           1725      6.45496e+9 
           1735      6.80227e+9 
           1745       6.5616e+9 
           1755      6.68004e+9 
           1765      6.40152e+9 
           1775      6.12273e+9 
           1785       6.2299e+9 
           1795      6.51274e+9 
           1805      6.56265e+9 
           1815      5.75988e+9 
           1825        6.059e+9 
           1835      5.77587e+9 
           1845      5.24485e+9 
           1855      5.19009e+9 
           1865      5.27809e+9 
           1875      5.68744e+9 
           1885        5.005e+9 
           1895      4.64546e+9 
           1905      5.09272e+9 
           1915      4.71042e+9 
           1925      4.50494e+9 
           1935       4.7852e+9 
           1945      4.87066e+9 
           1955      4.39663e+9 
           1967      4.82795e+9 
           1976      5.02914e+9 
           1984      4.61799e+9 
           1995      4.52943e+9 
           2005      4.72736e+9 
           2015      4.59056e+9 
           2025       4.8112e+9 
           2035      4.34539e+9 
           2045      4.45325e+9 
           2055      4.30315e+9 
           2065      4.31882e+9 
           2074      4.53908e+9 
           2078      4.06699e+9 
           2085      4.31392e+9 
           2095      4.04641e+9 
           2105      4.18609e+9 
           2115       4.1946e+9 
           2125      4.24023e+9 
           2135      4.13423e+9 
           2145      3.92309e+9 
           2155      4.10377e+9 
           2165      4.07462e+9 
           2175        4.021e+9 
           2185      3.86867e+9 
           2195      3.94211e+9 
           2205      3.89342e+9 
           2215      3.81227e+9 
           2225      3.69338e+9 
           2235      3.69148e+9 
           2245      3.70673e+9 
           2255       3.5565e+9 
           2265      3.63407e+9 
           2275      3.58195e+9 
           2285      3.59317e+9 
           2295      3.34248e+9 
           2305      3.44742e+9 
           2315      3.32723e+9 
           2325      3.28382e+9 
           2335      3.15052e+9 
           2345      3.15269e+9 
           2355      3.16408e+9 
           2365      3.10249e+9 
           2375      3.06493e+9 
           2385      3.02365e+9 
           2395      3.03655e+9 
           2405      2.93651e+9 
           2415       2.9395e+9 
           2425      2.94651e+9 
           2435      2.83759e+9 
           2445      2.86352e+9 
           2455      2.86693e+9 
           2465      2.79926e+9 
           2475      2.75547e+9 
           2485      2.74347e+9 
           2495      2.54747e+9 
           2505      2.67924e+9 
           2513      2.53353e+9 
           2518       2.6447e+9 
           2525      2.57539e+9 
           2535      2.53847e+9 
           2545      2.45766e+9 
           2555       2.5136e+9 
           2565      2.47543e+9 
           2575       2.4934e+9 
           2585      2.47177e+9 
           2595      2.44845e+9 
           2605       2.4212e+9 
           2615      2.39417e+9 
           2625      2.37241e+9 
           2635      2.35536e+9 
           2645      2.34927e+9 
           2655      2.34064e+9 
           2665      2.24566e+9 
           2675      2.26397e+9 
           2685      2.25127e+9 
           2695      2.17437e+9 
           2705      2.14978e+9 
           2715      2.13755e+9 
           2725      2.11722e+9 
           2735      2.12241e+9 
           2745      2.03783e+9 
           2755      2.03796e+9 
           2765       2.0229e+9 
           2775      2.04665e+9 
           2785      2.01279e+9 
           2795      1.93215e+9 
           2805      1.95905e+9 
           2815      1.96346e+9 
           2825      1.92745e+9 
           2835      1.84581e+9 
           2845      1.87298e+9 
           2855       1.8542e+9 
           2865      1.86074e+9 
           2875      1.83574e+9 
           2885      1.81602e+9 
           2895      1.79275e+9 
           2910      1.76297e+9 
           2930       1.7299e+9 
           2950      1.67774e+9 
           2970       1.6606e+9 
           2990      1.62004e+9 
           3010      1.57726e+9 
           3030      1.56873e+9 
           3050      1.53705e+9 
           3070      1.50949e+9 
           3090      1.46082e+9 
           3110      1.44532e+9 
           3130      1.41591e+9 
           3150      1.39066e+9 
           3170      1.35487e+9 
           3190      1.32172e+9 
           3210      1.30973e+9 
           3230      1.28273e+9 
           3250      1.26132e+9 
           3270      1.23635e+9 
           3290      1.21176e+9 
           3310      1.19162e+9 
           3330      1.16737e+9 
           3350      1.14484e+9 
           3370        1.124e+9 
           3390      1.10566e+9 
           3410      1.08566e+9 
           3430      1.05997e+9 
           3450      1.03693e+9 
           3470      1.02041e+9 
           3490      1.00117e+9 
           3510      9.84962e+8 
           3530      9.71354e+8 
           3550      9.54431e+8 
           3570      9.43324e+8 
           3590      9.14602e+8 
           3610      9.00709e+8 
           3630      8.87181e+8 
           3640       8.8763e+8 
           3650      8.69228e+8 
           3670      8.59668e+8 
           3690       8.4401e+8 
           3710      8.12272e+8 
           3730      7.77834e+8 
           3750      7.99296e+8 
           3770      7.92985e+8 
           3790      8.41105e+8 
           3810      8.80647e+8 
           3830      7.60527e+8 
           3850      9.06768e+8 
           3870      9.16864e+8 
           3890      7.15562e+8 
           3910      9.15697e+8 
           3930      8.91936e+8 
           3950      8.82106e+8 
           3970      6.65908e+8 
           3990      8.44205e+8 
           4010      8.50541e+8 
           4030      7.90647e+8 
           4050      8.28127e+8 
           4070      7.91648e+8 
           4090      7.22601e+8 
           4110      6.29945e+8 
           4130      7.48693e+8 
           4150      7.47772e+8 
           4170      7.45555e+8 
           4190      7.39077e+8 
           4210      7.31923e+8 
           4230       7.1588e+8 
           4250      6.98334e+8 
           4270      6.75815e+8 
           4290      6.72619e+8 
           4310      6.51648e+8 
           4330      5.80278e+8 
           4350       5.2773e+8 
           4370       6.1624e+8 
           4390      6.04109e+8 
           4410      6.10458e+8 
           4430      6.02559e+8 
           4450      5.96299e+8 
           4470      5.57319e+8 
           4490      5.74379e+8 
           4510       5.7263e+8 
           4530      5.61416e+8 
           4550      5.54144e+8 
           4570      5.45155e+8 
           4590      5.36624e+8 
           4610      5.24497e+8 
           4630       5.1567e+8 
           4650      5.04466e+8 
           4670      5.02608e+8 
           4690      4.98176e+8 
           4710      4.77329e+8 
           4730      4.77527e+8 
           4750      4.70676e+8 
           4770      4.70661e+8 
           4790      4.61748e+8 
           4810      4.50621e+8 
           4830      4.41374e+8 
           4850      4.01097e+8 
           4870      3.54985e+8 
           4890      4.22007e+8 
           4910       4.2017e+8 
           4930      4.02709e+8 
           4950      4.09394e+8 
           4970      4.05816e+8 
           4990      3.98953e+8 
           5010      3.80735e+8 
           5030      3.86409e+8 
           5050      3.75496e+8 
           5070      3.76936e+8 
           5090      3.71101e+8 
           5110      3.64753e+8 
           5130      3.55888e+8 
           5150      3.51851e+8 
           5170      3.50755e+8 
           5190      3.46127e+8 
           5210      3.38755e+8 
           5230      3.36445e+8 
           5250      3.32096e+8 
           5270      3.26894e+8 
           5290      3.23431e+8 
           5310      3.18674e+8 
           5330       3.1402e+8 
           5350      3.08833e+8 
           5370      3.06406e+8 
           5390      3.02153e+8 
           5410      2.98198e+8 
           5430      2.93399e+8 
           5450      2.89689e+8 
           5470      2.85724e+8 
           5490      2.82484e+8 
           5510      2.79109e+8 
           5530      2.75073e+8 
           5550      2.72067e+8 
           5570      2.68283e+8 
           5590      2.65185e+8 
           5610      2.61347e+8 
           5630      2.58542e+8 
           5650      2.52915e+8 
           5670      2.49119e+8 
           5690      2.46277e+8 
           5710      2.44728e+8 
           5730      2.41932e+8 
           5750      2.38497e+8 
           5770      2.36349e+8 
           5790      2.33258e+8 
           5810      2.30316e+8 
           5830       2.2712e+8 
           5850      2.24557e+8 
           5870      2.13867e+8 
           5890      2.16435e+8 
           5910      2.15814e+8 
           5930      2.13032e+8 
           5950        2.099e+8 
           5970      2.08739e+8 
           5990      2.05395e+8 
           6010      2.03644e+8 
           6030      2.00907e+8 
           6050      1.98655e+8 
           6070      1.96438e+8 
           6090      1.93992e+8 
           6110      1.91765e+8 
           6130      1.89633e+8 
           6150      1.86101e+8 
           6170      1.84738e+8 
           6190      1.82917e+8 
           6210      1.80832e+8 
           6230      1.78722e+8 
           6250      1.76066e+8 
           6270       1.7436e+8 
           6290      1.72472e+8 
           6310      1.70302e+8 
           6330      1.68616e+8 
           6350      1.65734e+8 
           6370      1.64296e+8 
           6390      1.62687e+8 
           6410      1.60849e+8 
           6430      1.59266e+8 
           6450      1.57329e+8 
           6470      1.55035e+8 
           6490      1.53473e+8 
           6510      1.51607e+8 
           6530      1.49098e+8 
           6550      1.40743e+8 
           6570      1.23017e+8 
           6590       1.4185e+8 
           6610      1.43097e+8 
           6630      1.42115e+8 
           6650      1.40682e+8 
           6670      1.37477e+8 
           6690      1.36075e+8 
           6710      1.36211e+8 
           6730      1.34546e+8 
           6750      1.33345e+8 
           6770      1.31917e+8 
           6790      1.29245e+8 
           6810       1.2882e+8 
           6830       1.2751e+8 
           6850        1.263e+8 
           6870      1.24959e+8 
           6890      1.23561e+8 
           6910      1.22215e+8 
           6930      1.20907e+8 
           6950      1.19752e+8 
           6970      1.18507e+8 
           6990      1.17236e+8 
           7010      1.15986e+8 
           7030      1.14778e+8 
           7050      1.13498e+8 
           7070      1.10287e+8 
           7090      1.11157e+8 
           7110      1.09459e+8 
           7130      1.08379e+8 
           7150      1.07685e+8 
           7170      1.06712e+8 
           7190      1.05682e+8 
           7210      1.04596e+8 
           7230      1.01813e+8 
           7250      1.02349e+8 
           7270      1.01437e+8 
           7290      9.94988e+7 
           7310      9.93851e+7 
           7330      9.83878e+7 
           7350      9.74277e+7 
           7370      9.64627e+7 
           7390      9.54929e+7 
           7410      9.45458e+7 
           7430       9.3512e+7 
           7450      9.26577e+7 
           7470      9.15006e+7 
           7490      9.08044e+7 
           7510      8.98939e+7 
           7530      8.89984e+7 
           7550      8.82169e+7 
           7570      8.73701e+7 
           7590      8.64983e+7 
           7610      8.56344e+7 
           7630      8.48301e+7 
           7650      8.40266e+7 
           7670      8.32176e+7 
           7690      8.24094e+7 
           7710      8.16275e+7 
           7730      8.08274e+7 
           7750      8.00783e+7 
           7770      7.87306e+7 
           7790       7.8569e+7 
           7810      7.77718e+7 
           7830      7.70924e+7 
           7850      7.62537e+7 
           7870      7.55443e+7 
           7890      7.46232e+7 
           7910      7.42343e+7 
           7930      7.35608e+7 
           7950      7.26308e+7 
           7970      7.20414e+7 
           7990      7.11737e+7 
           8010      7.07189e+7 
           8030      7.00574e+7 
           8050      6.94074e+7 
           8070      6.87861e+7 
           8090      6.80838e+7 
           8110      6.74047e+7 
           8130      6.69652e+7 
           8150      6.63137e+7 
           8170      6.58032e+7 
           8190      6.50441e+7 
           8210      6.42693e+7 
           8230      6.36847e+7 
           8250      6.33763e+7 
           8270      6.23651e+7 
           8290      6.22016e+7 
           8310      6.16789e+7 
           8330      6.11279e+7 
           8350      6.02573e+7 
           8370      5.98997e+7 
           8390      5.95235e+7 
           8410      5.89851e+7 
           8430      5.84193e+7 
           8450      5.72514e+7 
           8470      5.73752e+7 
           8490      5.66923e+7 
           8510       5.6218e+7 
           8530      5.57424e+7 
           8550      5.47708e+7 
           8570      5.52951e+7 
