# Kurucz ODFNEW /NOVER (2003)
# teff = 24000 K (value for the effective temperature for the model. Temperatures are given in K)
# logg = 3.5 log(cm/s2) (value for Log(G) for the model.)
# meta = -0.5  (value for the Metallicity for the model.)
# lh = 1.25  (l/Hp where l is the  mixing length of the convective element and Hp is the pressure scale height)
# vtur = 2 km/s (Microturbulence velocity)
# alpha = 0  (Alpha)
#
# column 1: WAVELENGTH (ANGSTROM), Wavelength in Angstrom
# column 2: FLUX (ERG/CM2/S/A), Flux in erg/cm2/s/A
          147.2     2.34545e-15 
            151     1.11502e-14 
          155.2     5.76268e-14 
          158.8      2.2119e-13 
            162     6.98508e-13 
            166     2.77502e-12 
          170.3     1.14202e-11 
          173.4     3.04052e-11 
          176.8     8.56812e-11 
          180.2     2.32544e-10 
          181.7     3.57104e-10 
          186.1      1.21025e-9 
            191      4.41767e-9 
          193.9      9.22184e-9 
          198.4      2.77035e-8 
          201.8      6.15791e-8 
            205      1.27483e-7 
          210.5      4.23038e-7 
          216.2      1.37442e-6 
          219.8      2.80223e-6 
            223      5.17659e-6 
          226.8        1.049e-5 
            230      0.00115889 
            234      0.00273424 
            240      0.00646974 
          246.5       0.0158287 
          252.4       0.0346016 
          256.8        0.055842 
            260       0.0912008 
            264        0.144322 
          268.5        0.241331 
          273.5        0.416263 
          278.5        0.705983 
            284         1.28027 
            290         2.27592 
            296         3.96921 
            301         6.10993 
            308         10.8685 
            318         26.3208 
            328         54.8825 
            338         114.941 
            348         224.086 
            357          517.02 
            366         918.341 
            375         1461.78 
            385         2486.78 
            395         4175.71 
            405         6592.68 
            414         9926.85 
            422           13694 
            430         19273.3 
            441         29569.9 
            451         42484.6 
            460         57613.3 
            470         81586.1 
            480          112036 
            490          153507 
            500          206252 
            506      1.49729e+6 
            512      7.00993e+6 
            520       8.1249e+6 
            530       9.9036e+6 
            540      1.07205e+7 
            550      1.49322e+7 
            560      1.75535e+7 
            570      2.11138e+7 
            580      2.07212e+7 
            590      2.68916e+7 
            600      3.06898e+7 
            610      3.60014e+7 
            620      4.01848e+7 
            630      4.43922e+7 
            640       4.5065e+7 
            650      4.14224e+7 
            658      5.55857e+7 
            665      6.24439e+7 
            675      6.55759e+7 
            685      6.93998e+7 
            695      8.45375e+7 
            705        8.775e+7 
            716      9.90368e+7 
            726      1.04411e+8 
            735      1.09729e+8 
            745      1.23657e+8 
            755      1.32828e+8 
            765      1.43199e+8 
            775      1.54399e+8 
            785      1.66238e+8 
            795      1.74433e+8 
            805       1.8355e+8 
            815      1.90541e+8 
            825      2.07138e+8 
            835      1.97544e+8 
            845      2.21075e+8 
            855      2.30039e+8 
            865      2.45223e+8 
            875      2.62201e+8 
            885      2.81456e+8 
            895       2.9526e+8 
            905      2.99585e+8 
            915      4.87502e+8 
            925      4.43864e+9 
            935      1.0201e+10 
            945     1.78627e+10 
            955     2.07452e+10 
            965     2.35005e+10 
            975      5.78197e+9 
            985     2.05612e+10 
            995     1.99053e+10 
           1005     2.23608e+10 
           1015     2.23118e+10 
           1025      1.3197e+10 
           1035      1.8228e+10 
           1045     2.53045e+10 
           1055     2.35297e+10 
           1065      2.0155e+10 
           1075     2.25443e+10 
           1085     2.02416e+10 
           1095     2.25508e+10 
           1105     2.07462e+10 
           1115       2.046e+10 
           1125     1.74645e+10 
           1135       2.097e+10 
           1145     1.93011e+10 
           1155     1.97875e+10 
           1165     1.96791e+10 
           1175     1.32401e+10 
           1185     1.87058e+10 
           1195     1.74596e+10 
           1205     1.28428e+10 
           1215       9.7848e+9 
           1225     1.62478e+10 
           1235     1.77358e+10 
           1245     1.73665e+10 
           1255     1.70875e+10 
           1265     1.70806e+10 
           1275     1.74814e+10 
           1285     1.71381e+10 
           1295     1.34187e+10 
           1305     1.42458e+10 
           1315     1.65095e+10 
           1325     1.55956e+10 
           1335     1.50032e+10 
           1345     1.51652e+10 
           1355     1.50872e+10 
           1365     1.41656e+10 
           1375     1.38423e+10 
           1385     1.36543e+10 
           1395      1.0817e+10 
           1405     1.14886e+10 
           1415     1.24216e+10 
           1425     1.20898e+10 
           1435     1.23705e+10 
           1442     1.25765e+10 
           1447     1.23112e+10 
           1455     1.20061e+10 
           1465     1.13202e+10 
           1475     1.13679e+10 
           1485     1.12068e+10 
           1495      1.0982e+10 
           1505     1.02206e+10 
           1512       9.2489e+9 
           1517      9.52117e+9 
           1525       9.6966e+9 
           1535      8.47017e+9 
           1545      8.42243e+9 
           1555       8.0594e+9 
           1565      8.60938e+9 
           1575      9.02116e+9 
           1585      8.92613e+9 
           1595      8.88534e+9 
           1605      8.74688e+9 
           1615       8.5427e+9 
           1625      8.47141e+9 
           1635      8.79835e+9 
           1645      8.67639e+9 
           1655      8.60432e+9 
           1665      8.63812e+9 
           1672      8.32728e+9 
           1677      8.86805e+9 
           1685      8.59323e+9 
           1695       8.1954e+9 
           1705      7.94002e+9 
           1715      7.57064e+9 
           1725      7.47983e+9 
           1735       7.6558e+9 
           1745      7.49172e+9 
           1755      7.52474e+9 
           1765      7.36039e+9 
           1775      7.00936e+9 
           1785      7.07778e+9 
           1795      7.19382e+9 
           1805      7.20914e+9 
           1815      6.57299e+9 
           1825      6.76708e+9 
           1835      6.58645e+9 
           1845      6.04046e+9 
           1855      6.05872e+9 
           1865      6.15509e+9 
           1875      6.33586e+9 
           1885      5.69437e+9 
           1895       5.3004e+9 
           1905      5.69398e+9 
           1915      5.41945e+9 
           1925       5.1681e+9 
           1935      5.43488e+9 
           1945      5.53927e+9 
           1955      5.02411e+9 
           1967      5.38714e+9 
           1976      5.61094e+9 
           1984       5.2153e+9 
           1995      5.10617e+9 
           2005      5.24316e+9 
           2015      5.21259e+9 
           2025      5.32908e+9 
           2035      4.89349e+9 
           2045      4.94574e+9 
           2055      4.77122e+9 
           2065      4.77751e+9 
           2074      5.01807e+9 
           2078      4.58898e+9 
           2085      4.77149e+9 
           2095      4.53858e+9 
           2105      4.67147e+9 
           2115      4.65915e+9 
           2125      4.71235e+9 
           2135      4.62764e+9 
           2145      4.38677e+9 
           2155      4.54336e+9 
           2165      4.51612e+9 
           2175      4.44593e+9 
           2185      4.33534e+9 
           2195      4.35958e+9 
           2205      4.32408e+9 
           2215      4.26423e+9 
           2225      4.16268e+9 
           2235      4.09459e+9 
           2245      4.11448e+9 
           2255      4.00613e+9 
           2265      4.02091e+9 
           2275      3.96701e+9 
           2285      3.95098e+9 
           2295      3.71485e+9 
           2305      3.83024e+9 
           2315      3.73389e+9 
           2325      3.68908e+9 
           2335       3.5991e+9 
           2345       3.6056e+9 
           2355      3.58924e+9 
           2365      3.54649e+9 
           2375      3.48196e+9 
           2385      3.44938e+9 
           2395      3.40868e+9 
           2405      3.35837e+9 
           2415      3.31447e+9 
           2425      3.30724e+9 
           2435      3.23032e+9 
           2445       3.2187e+9 
           2455      3.20597e+9 
           2465      3.15651e+9 
           2475      3.11224e+9 
           2485      3.06595e+9 
           2495      2.79105e+9 
           2505      2.98393e+9 
           2513      2.87172e+9 
           2518      2.94618e+9 
           2525      2.92024e+9 
           2535      2.88505e+9 
           2545      2.80432e+9 
           2555      2.81732e+9 
           2565      2.78234e+9 
           2575      2.77282e+9 
           2585      2.73568e+9 
           2595       2.7077e+9 
           2605      2.68928e+9 
           2615      2.65514e+9 
           2625      2.63129e+9 
           2635      2.60192e+9 
           2645      2.57571e+9 
           2655      2.55485e+9 
           2665      2.49386e+9 
           2675       2.4822e+9 
           2685      2.47221e+9 
           2695      2.40249e+9 
           2705      2.38533e+9 
           2715      2.37065e+9 
           2725      2.34116e+9 
           2735      2.32961e+9 
           2745      2.27887e+9 
           2755      2.26697e+9 
           2765      2.23695e+9 
           2775      2.23872e+9 
           2785      2.20674e+9 
           2795      2.13937e+9 
           2805      2.14885e+9 
           2815      2.14322e+9 
           2825      2.10744e+9 
           2835      2.05327e+9 
           2845      2.07107e+9 
           2855      2.04129e+9 
           2865      2.02941e+9 
           2875       2.0078e+9 
           2885       1.9882e+9 
           2895       1.9619e+9 
           2910      1.92687e+9 
           2930      1.89082e+9 
           2950      1.83899e+9 
           2970      1.81341e+9 
           2990      1.77368e+9 
           3010      1.72499e+9 
           3030      1.70669e+9 
           3050      1.67446e+9 
           3070      1.64288e+9 
           3090      1.59236e+9 
           3110      1.57545e+9 
           3130      1.54235e+9 
           3150      1.51394e+9 
           3170      1.48054e+9 
           3190      1.44497e+9 
           3210      1.42698e+9 
           3230      1.39683e+9 
           3250      1.37242e+9 
           3270      1.34536e+9 
           3290      1.31851e+9 
           3310      1.29609e+9 
           3330      1.27071e+9 
           3350      1.24598e+9 
           3370      1.22384e+9 
           3390      1.20249e+9 
           3410      1.18069e+9 
           3430      1.15345e+9 
           3450      1.12865e+9 
           3470      1.11061e+9 
           3490      1.09012e+9 
           3510      1.07502e+9 
           3530       1.0583e+9 
           3550      1.03939e+9 
           3570      1.02508e+9 
           3590      9.99079e+8 
           3610      9.81738e+8 
           3630      9.66089e+8 
           3640      9.64087e+8 
           3650       9.4405e+8 
           3670      9.32502e+8 
           3690       9.0773e+8 
           3710      8.83217e+8 
           3730      8.61829e+8 
           3750      9.23546e+8 
           3770      9.21884e+8 
           3790      9.49029e+8 
           3810      9.78644e+8 
           3830      8.74478e+8 
           3850      9.85457e+8 
           3870      9.71499e+8 
           3890      8.34217e+8 
           3910      9.56701e+8 
           3930      9.28182e+8 
           3950      9.21898e+8 
           3970       7.7402e+8 
           3990      8.89118e+8 
           4010      8.78304e+8 
           4030      8.39591e+8 
           4050      8.53047e+8 
           4070      8.26285e+8 
           4090      7.86943e+8 
           4110      7.09564e+8 
           4130      7.83369e+8 
           4150      7.76055e+8 
           4170      7.69019e+8 
           4190       7.5869e+8 
           4210      7.49267e+8 
           4230      7.35209e+8 
           4250      7.20067e+8 
           4270      7.02531e+8 
           4290      6.95709e+8 
           4310      6.80324e+8 
           4330      6.39674e+8 
           4350      5.89249e+8 
           4370      6.47666e+8 
           4390      6.33998e+8 
           4410       6.3196e+8 
           4430       6.2308e+8 
           4450       6.1479e+8 
           4470      5.89146e+8 
           4490       5.9514e+8 
           4510      5.88614e+8 
           4530      5.78948e+8 
           4550      5.69721e+8 
           4570      5.60452e+8 
           4590      5.52092e+8 
           4610      5.42419e+8 
           4630      5.34457e+8 
           4650      5.20896e+8 
           4670      5.18483e+8 
           4690      5.12751e+8 
           4710      4.96807e+8 
           4730       4.9546e+8 
           4750      4.87557e+8 
           4770       4.8447e+8 
           4790       4.7687e+8 
           4810      4.68777e+8 
           4830      4.60655e+8 
           4850      4.38974e+8 
           4870      3.97984e+8 
           4890      4.41417e+8 
           4910      4.36562e+8 
           4930      4.22828e+8 
           4950      4.23385e+8 
           4970      4.18886e+8 
           4990      4.12631e+8 
           5010      3.99347e+8 
           5030      4.00897e+8 
           5050      3.92336e+8 
           5070      3.89995e+8 
           5090      3.84406e+8 
           5110      3.78878e+8 
           5130      3.72422e+8 
           5150      3.67575e+8 
           5170      3.63623e+8 
           5190      3.58812e+8 
           5210      3.53495e+8 
           5230      3.49033e+8 
           5250      3.44384e+8 
           5270      3.39496e+8 
           5290      3.35224e+8 
           5310      3.30579e+8 
           5330       3.2626e+8 
           5350      3.21719e+8 
           5370      3.17785e+8 
           5390       3.1346e+8 
           5410      3.09474e+8 
           5430       3.0523e+8 
           5450      3.01193e+8 
           5470      2.97295e+8 
           5490      2.93483e+8 
           5510      2.89867e+8 
           5530      2.85939e+8 
           5550      2.82475e+8 
           5570       2.7875e+8 
           5590        2.753e+8 
           5610      2.71701e+8 
           5630       2.6836e+8 
           5650      2.64457e+8 
           5670      2.60532e+8 
           5690      2.56831e+8 
           5710      2.54723e+8 
           5730      2.51605e+8 
           5750       2.4808e+8 
           5770      2.45617e+8 
           5790      2.42529e+8 
           5810      2.39545e+8 
           5830      2.36375e+8 
           5850      2.33628e+8 
           5870      2.25183e+8 
           5890      2.26925e+8 
           5910      2.24971e+8 
           5930      2.22032e+8 
           5950      2.19264e+8 
           5970      2.17216e+8 
           5990      2.14235e+8 
           6010      2.11936e+8 
           6030      2.09258e+8 
           6050      2.06868e+8 
           6070      2.04515e+8 
           6090      2.02097e+8 
           6110      1.99737e+8 
           6130      1.97413e+8 
           6150      1.94737e+8 
           6170      1.92635e+8 
           6190      1.90527e+8 
           6210      1.88354e+8 
           6230      1.86186e+8 
           6250      1.83907e+8 
           6270      1.81863e+8 
           6290      1.79804e+8 
           6310      1.77701e+8 
           6330      1.75734e+8 
           6350      1.73479e+8 
           6370      1.71686e+8 
           6390      1.69764e+8 
           6410      1.67863e+8 
           6430      1.66018e+8 
           6450      1.64139e+8 
           6470      1.62073e+8 
           6490      1.60297e+8 
           6510      1.58665e+8 
           6530      1.56634e+8 
           6550         1.52e+8 
           6570      1.36667e+8 
           6590      1.50325e+8 
           6610      1.49995e+8 
           6630      1.48457e+8 
           6650      1.46875e+8 
           6670      1.44175e+8 
           6690      1.42641e+8 
           6710      1.42202e+8 
           6730      1.40535e+8 
           6750      1.39166e+8 
           6770      1.37671e+8 
           6790      1.35741e+8 
           6810      1.34669e+8 
           6830      1.33243e+8 
           6850      1.31872e+8 
           6870      1.30475e+8 
           6890      1.29052e+8 
           6910      1.27667e+8 
           6930      1.26382e+8 
           6950      1.25071e+8 
           6970      1.23765e+8 
           6990      1.22456e+8 
           7010      1.21191e+8 
           7030      1.19931e+8 
           7050      1.18683e+8 
           7070      1.15706e+8 
           7090      1.16261e+8 
           7110      1.14855e+8 
           7130      1.13737e+8 
           7150      1.12711e+8 
           7170      1.11548e+8 
           7190       1.1044e+8 
           7210      1.09314e+8 
           7230      1.07175e+8 
           7250       1.0705e+8 
           7270      1.06034e+8 
           7290       1.0417e+8 
           7310      1.03897e+8 
           7330      1.02868e+8 
           7350      1.01856e+8 
           7370      1.00846e+8 
           7390      9.98457e+7 
           7410      9.88614e+7 
           7430      9.78727e+7 
           7450      9.69271e+7 
           7470      9.58484e+7 
           7490      9.50283e+7 
           7510      9.40686e+7 
           7530      9.31709e+7 
           7550      9.22881e+7 
           7570      9.13934e+7 
           7590       9.0507e+7 
           7610      8.96025e+7 
           7630      8.87646e+7 
           7650      8.79148e+7 
           7670      8.70727e+7 
           7690      8.62381e+7 
           7710       8.5411e+7 
           7730      8.45977e+7 
           7750      8.37978e+7 
           7770      8.28553e+7 
           7790      8.22255e+7 
           7810      8.13911e+7 
           7830       8.0687e+7 
           7850      7.99769e+7 
           7870      7.92059e+7 
           7890      7.83752e+7 
           7910      7.77506e+7 
           7930      7.69695e+7 
           7950      7.61476e+7 
           7970       7.5416e+7 
           7990      7.47202e+7 
           8010      7.40364e+7 
           8030      7.33934e+7 
           8050      7.27676e+7 
           8070      7.21297e+7 
           8090      7.13475e+7 
           8110      7.06696e+7 
           8130      7.02197e+7 
           8150      6.94501e+7 
           8170      6.89751e+7 
           8190      6.82061e+7 
           8210       6.7388e+7 
           8230      6.69107e+7 
           8250      6.64095e+7 
           8270      6.53947e+7 
           8290      6.51453e+7 
           8310      6.45866e+7 
           8330      6.40054e+7 
           8350      6.31426e+7 
           8370      6.27229e+7 
           8390      6.22583e+7 
           8410      6.16802e+7 
           8430      6.10592e+7 
           8450      6.01532e+7 
           8470      5.97697e+7 
           8490      5.95146e+7 
           8510      5.84601e+7 
           8530      5.86833e+7 
           8550      5.66672e+7 
           8570        5.846e+7 
