# Kurucz ODFNEW /NOVER (2003)
# teff = 7250 K (value for the effective temperature for the model. Temperatures are given in K)
# logg = 0.5 log(cm/s2) (value for Log(G) for the model.)
# meta = -4  (value for the Metallicity for the model.)
# lh = 1.25  (l/Hp where l is the  mixing length of the convective element and Hp is the pressure scale height)
# vtur = 2 km/s (Microturbulence velocity)
# alpha = 0.4  (Alpha)
#
# column 1: WAVELENGTH (ANGSTROM), Wavelength in Angstrom
# column 2: FLUX (ERG/CM2/S/A), Flux in erg/cm2/s/A
          147.2     1.73866e-35 
            151     1.65225e-35 
          155.2     1.56403e-35 
          158.8     1.49392e-35 
            162     1.43549e-35 
            166     1.36714e-35 
          170.3     1.29897e-35 
          173.4     1.25294e-35 
          176.8     1.20522e-35 
          180.2     1.16017e-35 
          181.7     1.14109e-35 
          186.1     1.08777e-35 
            191     1.03267e-35 
          193.9     1.00201e-35 
          198.4     9.57076e-36 
          201.8     9.25097e-36 
            205     8.96441e-36 
          210.5     8.50208e-36 
          216.2     8.05969e-36 
          219.8     7.79784e-36 
            223     7.57565e-36 
          226.8     7.32392e-36 
            230     7.12154e-36 
            234     6.88015e-36 
            240     6.54044e-36 
          246.5     6.20006e-36 
          252.4     5.91358e-36 
          256.8     5.71267e-36 
            260     5.57292e-36 
            264     5.40532e-36 
          268.5     5.22566e-36 
          273.5     5.03634e-36 
          278.5     4.85712e-36 
            284     4.67082e-36 
            290     4.47954e-36 
            296     4.29978e-36 
            301     4.15812e-36 
            308     3.97126e-36 
            318     3.72542e-36 
            328     4.34319e-23 
            338     5.10796e-22 
            348     4.75796e-21 
            357     3.16284e-20 
            366     1.91183e-19 
            375     1.05717e-18 
            385      6.4206e-18 
            395     3.54842e-17 
            405      1.7987e-16 
            414     7.23496e-16 
            422     2.36826e-15 
            430     7.40928e-15 
            441     3.31593e-14 
            451     1.21227e-13 
            460     3.70409e-13 
            470     1.21657e-12 
            480      3.7946e-12 
            490     1.12832e-11 
            500     3.20491e-11 
            506     8.03645e-11 
            512     1.61876e-10 
            520     3.45688e-10 
            530     8.69321e-10 
            540      2.07886e-9 
            550      4.87158e-9 
            560      1.09867e-8 
            570      2.40485e-8 
            580       5.0705e-8 
            590      1.05967e-7 
            600      2.13972e-7 
            610      4.21611e-7 
            620       8.1187e-7 
            630       1.5296e-6 
            640      2.82234e-6 
            650      5.10497e-6 
            658         8.09e-6 
            665      1.19879e-5 
            675      2.07115e-5 
            685      3.51812e-5 
            695      5.87995e-5 
            705      9.67623e-5 
            716     0.000164535 
            726     0.000262665 
            735     0.000395534 
            745     0.000615684 
            755     0.000946475 
            765      0.00143765 
            775      0.00215855 
            785      0.00320519 
            795      0.00470857 
            805      0.00684656 
            815      0.00985744 
            825       0.0140579 
            835       0.0198646 
            845       0.0278227 
            855       0.0386379 
            865       0.0532197 
            875       0.0727257 
            885        0.098619 
            895        0.132764 
            905        0.177453 
            915        0.360573 
            925         1.76916 
            935         2.74175 
            945         4.69865 
            955         8.21719 
            965         6.23092 
            975         3.28462 
            985         19.5633 
            995         21.1454 
           1005         17.4929 
           1015         9.07244 
           1025          19.537 
           1035         18.3303 
           1045         47.3143 
           1055         86.5206 
           1065         177.865 
           1075         361.399 
           1085         392.914 
           1095         251.869 
           1105         252.653 
           1115         204.739 
           1125          186.81 
           1135         173.482 
           1145         128.718 
           1155         96.5725 
           1165         79.8051 
           1175         68.6074 
           1185         4191.38 
           1195         140.184 
           1205         138.028 
           1215          143.24 
           1225          182.09 
           1235         241.424 
           1245         119.628 
           1255         167.701 
           1265         228.558 
           1275         305.393 
           1285         426.027 
           1295         583.214 
           1305         832.752 
           1315         1191.26 
           1325         1793.88 
           1335         2200.27 
           1345         3187.27 
           1355          5695.8 
           1365         18239.3 
           1375         36381.2 
           1385         44127.9 
           1395         53653.2 
           1405         88862.4 
           1415          159110 
           1425          213742 
           1435          251095 
           1442          315209 
           1447          313574 
           1455          392260 
           1465          408426 
           1475          485781 
           1485          546057 
           1495          621234 
           1505          726489 
           1512          786732 
           1517          778444 
           1525          867654 
           1535          929294 
           1545          985247 
           1555      1.03341e+6 
           1565          995742 
           1575       1.0904e+6 
           1585      1.14334e+6 
           1595      1.22836e+6 
           1605        1.249e+6 
           1615      1.48642e+6 
           1625      1.66621e+6 
           1635      1.91731e+6 
           1645      2.19158e+6 
           1655       2.1539e+6 
           1665      2.53565e+6 
           1672      2.49546e+6 
           1677      2.60505e+6 
           1685      2.77091e+6 
           1695      2.79929e+6 
           1705      2.88033e+6 
           1715      3.06843e+6 
           1725       3.1293e+6 
           1735      3.28068e+6 
           1745      3.31866e+6 
           1755      3.44289e+6 
           1765      3.46941e+6 
           1775      3.58623e+6 
           1785      3.63247e+6 
           1795       3.7751e+6 
           1805      3.78449e+6 
           1815      3.84869e+6 
           1825      3.88943e+6 
           1835      3.98465e+6 
           1845      3.97655e+6 
           1855      4.11553e+6 
           1865      4.19704e+6 
           1875      4.26513e+6 
           1885       4.3362e+6 
           1895      4.39231e+6 
           1905      4.36895e+6 
           1915      4.48236e+6 
           1925      4.58038e+6 
           1935      4.56375e+6 
           1945      4.70784e+6 
           1955      4.75423e+6 
           1967      4.82327e+6 
           1976      4.83202e+6 
           1984      4.87027e+6 
           1995      4.94961e+6 
           2005      4.95284e+6 
           2015      4.94203e+6 
           2025      4.98668e+6 
           2035        5.109e+6 
           2045      5.14257e+6 
           2055      5.09844e+6 
           2065      5.16677e+6 
           2074      5.31357e+6 
           2078      5.33021e+6 
           2085       5.3541e+6 
           2095      5.38989e+6 
           2105      5.44099e+6 
           2115      5.46942e+6 
           2125      5.48764e+6 
           2135       5.4976e+6 
           2145      5.59564e+6 
           2155      5.61733e+6 
           2165      5.58026e+6 
           2175      5.64271e+6 
           2185      5.71388e+6 
           2195      5.82684e+6 
           2205      5.78628e+6 
           2215      5.71733e+6 
           2225      5.77777e+6 
           2235      5.95583e+6 
           2245      5.93839e+6 
           2255      5.87406e+6 
           2265       5.8389e+6 
           2275      6.04201e+6 
           2285      6.08427e+6 
           2295      6.08272e+6 
           2305      6.15215e+6 
           2315      6.16892e+6 
           2325      6.21368e+6 
           2335      6.16872e+6 
           2345      6.01017e+6 
           2355      6.27402e+6 
           2365      6.11586e+6 
           2375      6.29095e+6 
           2385      6.02902e+6 
           2395      6.30645e+6 
           2405      6.33996e+6 
           2415      6.38155e+6 
           2425      6.60295e+6 
           2435      6.57234e+6 
           2445      6.63843e+6 
           2455      6.69197e+6 
           2465      6.65824e+6 
           2475      6.67896e+6 
           2485      6.72842e+6 
           2495      6.72058e+6 
           2505      6.87056e+6 
           2513      6.77439e+6 
           2518      6.82475e+6 
           2525      6.76451e+6 
           2535       6.7429e+6 
           2545      6.86509e+6 
           2555      7.03479e+6 
           2565       6.9915e+6 
           2575      7.09185e+6 
           2585      7.14476e+6 
           2595       7.1312e+6 
           2605      7.10931e+6 
           2615      7.10683e+6 
           2625       7.1512e+6 
           2635      7.25057e+6 
           2645      7.48879e+6 
           2655      7.50837e+6 
           2665      7.45319e+6 
           2675       7.5155e+6 
           2685      7.60751e+6 
           2695      7.60925e+6 
           2705      7.66122e+6 
           2715      7.59671e+6 
           2725      7.63694e+6 
           2735      7.69955e+6 
           2745      7.48357e+6 
           2755      7.56087e+6 
           2765      7.72162e+6 
           2775      7.88964e+6 
           2785      7.91711e+6 
           2795      7.44294e+6 
           2805      7.71699e+6 
           2815       8.0502e+6 
           2825       8.0745e+6 
           2835      8.04295e+6 
           2845      8.08984e+6 
           2855      8.03465e+6 
           2865      8.08927e+6 
           2875      8.16755e+6 
           2885       8.2011e+6 
           2895      8.27804e+6 
           2910      8.34018e+6 
           2930      8.33817e+6 
           2950      8.38004e+6 
           2970      8.48622e+6 
           2990      8.53236e+6 
           3010      8.62518e+6 
           3030      8.68444e+6 
           3050      8.73332e+6 
           3070      8.73022e+6 
           3090      8.83143e+6 
           3110      8.87985e+6 
           3130      8.92131e+6 
           3150      8.96215e+6 
           3170        9.014e+6 
           3190      9.02424e+6 
           3210      9.10079e+6 
           3230      9.08557e+6 
           3250      9.17561e+6 
           3270      9.25538e+6 
           3290      9.30747e+6 
           3310      9.35041e+6 
           3330      9.36074e+6 
           3350      9.36612e+6 
           3370      9.42313e+6 
           3390      9.46274e+6 
           3410      9.54094e+6 
           3430       9.5757e+6 
           3450      9.60965e+6 
           3470      9.63905e+6 
           3490       9.6755e+6 
           3510      9.70988e+6 
           3530      9.74226e+6 
           3550       9.7718e+6 
           3570      9.79622e+6 
           3590      9.82389e+6 
           3610      9.85178e+6 
           3630      9.87618e+6 
           3640      9.88511e+6 
           3650      9.92745e+6 
           3670      1.00643e+7 
           3690      1.15323e+7 
           3710      1.65331e+7 
           3730      2.79036e+7 
           3750      4.07229e+7 
           3770      4.09971e+7 
           3790      4.49717e+7 
           3810      4.92864e+7 
           3830      4.13791e+7 
           3850      5.13252e+7 
           3870      5.23279e+7 
           3890      3.88204e+7 
           3910      5.12997e+7 
           3930      5.02935e+7 
           3950      5.03843e+7 
           3970      3.69561e+7 
           3990      4.91922e+7 
           4010      4.92135e+7 
           4030      4.87146e+7 
           4050      4.82485e+7 
           4070      4.76458e+7 
           4090      4.46496e+7 
           4110      3.63011e+7 
           4130      4.61279e+7 
           4150      4.58484e+7 
           4170      4.53772e+7 
           4190      4.49279e+7 
           4210      4.44701e+7 
           4230      4.40085e+7 
           4250      4.35682e+7 
           4270      4.31321e+7 
           4290      4.26797e+7 
           4310      4.20918e+7 
           4330      3.81494e+7 
           4350      3.30988e+7 
           4370      4.08196e+7 
           4390      4.05541e+7 
           4410      4.01619e+7 
           4430      3.97752e+7 
           4450       3.9369e+7 
           4470      3.89552e+7 
           4490      3.85791e+7 
           4510      3.81951e+7 
           4530      3.78163e+7 
           4550      3.74227e+7 
           4570      3.70634e+7 
           4590      3.67018e+7 
           4610      3.63486e+7 
           4630      3.59825e+7 
           4650      3.56318e+7 
           4670      3.52806e+7 
           4690      3.49341e+7 
           4710      3.45838e+7 
           4730      3.42515e+7 
           4750      3.39169e+7 
           4770      3.35851e+7 
           4790      3.32559e+7 
           4810      3.29213e+7 
           4830      3.24652e+7 
           4850      2.98052e+7 
           4870      2.47622e+7 
           4890      3.14481e+7 
           4910      3.13455e+7 
           4930      3.10623e+7 
           4950      3.07749e+7 
           4970      3.04804e+7 
           4990      3.01897e+7 
           5010      2.98936e+7 
           5030      2.96176e+7 
           5050      2.93362e+7 
           5070      2.90613e+7 
           5090      2.87868e+7 
           5110      2.85157e+7 
           5130       2.8248e+7 
           5150      2.79836e+7 
           5170      2.77055e+7 
           5190      2.74532e+7 
           5210      2.72081e+7 
           5230      2.69522e+7 
           5250      2.67076e+7 
           5270      2.64578e+7 
           5290      2.62178e+7 
           5310      2.59739e+7 
           5330      2.57369e+7 
           5350       2.5504e+7 
           5370      2.52713e+7 
           5390      2.50413e+7 
           5410       2.4814e+7 
           5430      2.45894e+7 
           5450      2.43687e+7 
           5470      2.41492e+7 
           5490      2.39324e+7 
           5510       2.3718e+7 
           5530      2.35061e+7 
           5550      2.32966e+7 
           5570      2.30896e+7 
           5590       2.2886e+7 
           5610      2.26837e+7 
           5630      2.24836e+7 
           5650      2.22857e+7 
           5670      2.20901e+7 
           5690      2.18967e+7 
           5710      2.17054e+7 
           5730      2.15163e+7 
           5750      2.13293e+7 
           5770      2.11443e+7 
           5790      2.09614e+7 
           5810      2.07805e+7 
           5830      2.06016e+7 
           5850      2.04247e+7 
           5870      2.02453e+7 
           5890      2.00755e+7 
           5910      1.99064e+7 
           5930       1.9737e+7 
           5950      1.95694e+7 
           5970      1.94036e+7 
           5990      1.92407e+7 
           6010      1.90784e+7 
           6030      1.89179e+7 
           6050        1.876e+7 
           6070      1.86039e+7 
           6090      1.84494e+7 
           6110      1.82955e+7 
           6130      1.81443e+7 
           6150      1.79946e+7 
           6170      1.78464e+7 
           6190      1.76988e+7 
           6210      1.75538e+7 
           6230      1.74102e+7 
           6250      1.72681e+7 
           6270      1.71274e+7 
           6290      1.69882e+7 
           6310      1.68504e+7 
           6330       1.6714e+7 
           6350       1.6579e+7 
           6370      1.64453e+7 
           6390       1.6314e+7 
           6410       1.6183e+7 
           6430      1.60533e+7 
           6450      1.59249e+7 
           6470      1.57987e+7 
           6490      1.56595e+7 
           6510       1.5494e+7 
           6530      1.52782e+7 
           6550      1.41867e+7 
           6570      1.13268e+7 
           6590      1.47758e+7 
           6610      1.48701e+7 
           6630      1.48003e+7 
           6650      1.47139e+7 
           6670      1.45987e+7 
           6690      1.44855e+7 
           6710      1.43733e+7 
           6730      1.42622e+7 
           6750      1.41522e+7 
           6770      1.40432e+7 
           6790      1.39353e+7 
           6810      1.38284e+7 
           6830      1.37225e+7 
           6850      1.36184e+7 
           6870      1.35145e+7 
           6890      1.34115e+7 
           6910      1.33095e+7 
           6930      1.32093e+7 
           6950      1.31092e+7 
           6970      1.30108e+7 
           6990      1.29126e+7 
           7010       1.2816e+7 
           7030      1.27203e+7 
           7050      1.26247e+7 
           7070      1.25308e+7 
           7090      1.24377e+7 
           7110      1.23455e+7 
           7130      1.22541e+7 
           7150      1.21635e+7 
           7170       1.2073e+7 
           7190      1.19841e+7 
           7210       1.1896e+7 
           7230      1.18086e+7 
           7250      1.17228e+7 
           7270       1.1637e+7 
           7290       1.1552e+7 
           7310      1.14677e+7 
           7330      1.13849e+7 
           7350      1.13021e+7 
           7370        1.122e+7 
           7390      1.11393e+7 
           7410      1.10587e+7 
           7430      1.09795e+7 
           7450      1.09002e+7 
           7470      1.08224e+7 
           7490      1.07445e+7 
           7510       1.0668e+7 
           7530      1.05921e+7 
           7550      1.05169e+7 
           7570      1.04423e+7 
           7590      1.03678e+7 
           7610      1.02945e+7 
           7630      1.02218e+7 
           7650      1.01498e+7 
           7670       1.0079e+7 
           7690      1.00081e+7 
           7710       9.9379e+6 
           7730      9.86826e+6 
           7750       9.7992e+6 
           7770      9.72885e+6 
           7790      9.66344e+6 
           7810       9.5961e+6 
           7830      9.52993e+6 
           7850       9.4637e+6 
           7870      9.39863e+6 
           7890       9.3335e+6 
           7910       9.2695e+6 
           7930      9.20603e+6 
           7950      9.14248e+6 
           7970      9.08005e+6 
           7990      9.01812e+6 
           8010       8.9567e+6 
           8030      8.89578e+6 
           8050      8.83536e+6 
           8070      8.77542e+6 
           8090      8.71597e+6 
           8110        8.657e+6 
           8130       8.5985e+6 
           8150      8.54047e+6 
           8170      8.48347e+6 
           8190      8.42636e+6 
           8210      8.39877e+6 
           8230      8.34798e+6 
           8250      8.29593e+6 
           8270      8.23382e+6 
           8290      8.16564e+6 
           8310      8.06855e+6 
           8330      7.99076e+6 
           8350      8.01035e+6 
           8370      7.77798e+6 
           8390      7.88973e+6 
           8410      7.86077e+6 
           8430      8.10077e+6 
           8450      8.07196e+6 
           8470      7.75557e+6 
           8490      8.45027e+6 
           8510      7.73902e+6 
           8530      8.59746e+6 
           8550      7.63379e+6 
           8570      8.77079e+6 
