# Kurucz ODFNEW /NOVER (2003)
# teff = 24000 K (value for the effective temperature for the model. Temperatures are given in K)
# logg = 5 log(cm/s2) (value for Log(G) for the model.)
# meta = 0.2  (value for the Metallicity for the model.)
# lh = 1.25  (l/Hp where l is the  mixing length of the convective element and Hp is the pressure scale height)
# vtur = 2 km/s (Microturbulence velocity)
# alpha = 0  (Alpha)
#
# column 1: WAVELENGTH (ANGSTROM), Wavelength in Angstrom
# column 2: FLUX (ERG/CM2/S/A), Flux in erg/cm2/s/A
          147.2     2.97641e-14 
            151     1.24218e-13 
          155.2      5.5678e-13 
          158.8     1.89549e-12 
            162     5.39485e-12 
            166     1.88898e-11 
          170.3     6.80857e-11 
          173.4     1.65902e-10 
          176.8     4.24839e-10 
          180.2      1.05204e-9 
          181.7      1.55302e-9 
          186.1      4.71918e-9 
            191      1.53889e-8 
          193.9      3.01296e-8 
          198.4        8.243e-8 
          201.8      1.71504e-7 
            205      3.34821e-7 
          210.5      1.01158e-6 
          216.2      3.00908e-6 
          219.8      5.82842e-6 
            223      1.03135e-5 
          226.8      1.99167e-5 
            230     0.000589087 
            234       0.0013439 
            240      0.00322411 
          246.5      0.00791003 
          252.4       0.0173812 
          256.8        0.029402 
            260       0.0457553 
            264       0.0732583 
          268.5        0.122698 
          273.5        0.212392 
          278.5        0.363721 
            284        0.657324 
            290         1.18134 
            296         2.07688 
            301         3.25414 
            308         6.00137 
            318         14.0918 
            328         29.7759 
            338         62.8817 
            348         123.971 
            357         268.519 
            366         477.647 
            375         774.971 
            385         1328.19 
            395         2241.35 
            405         3591.94 
            414         5462.48 
            422          7656.9 
            430         10843.5 
            441         16840.2 
            451         24557.7 
            460         33683.1 
            470         48026.6 
            480         66769.7 
            490         92269.7 
            500          125180 
            506          641262 
            512      4.89609e+6 
            520      5.82593e+6 
            530      7.33958e+6 
            540      8.11777e+6 
            550      1.13064e+7 
            560      1.30173e+7 
            570      1.59446e+7 
            580      1.58441e+7 
            590      2.04901e+7 
            600      2.32955e+7 
            610      2.74503e+7 
            620      2.98688e+7 
            630      3.23357e+7 
            640      3.08935e+7 
            650      2.64076e+7 
            658      3.67859e+7 
            665      4.43625e+7 
            675       4.9536e+7 
            685      5.27241e+7 
            695      6.60038e+7 
            705      6.96263e+7 
            716      7.84388e+7 
            726      8.34403e+7 
            735      8.80761e+7 
            745      9.92688e+7 
            755      1.07284e+8 
            765      1.16168e+8 
            775      1.25684e+8 
            785      1.35212e+8 
            795      1.41304e+8 
            805      1.48971e+8 
            815      1.56335e+8 
            825      1.69732e+8 
            835      1.64535e+8 
            845      1.81568e+8 
            855      1.89456e+8 
            865      2.02743e+8 
            875      2.16494e+8 
            885      2.33342e+8 
            895      2.45158e+8 
            905      2.45023e+8 
            915      3.08853e+8 
            925      1.23389e+9 
            935       2.9701e+9 
            945      8.30722e+9 
            955     1.46247e+10 
            965     1.97952e+10 
            975      3.21523e+9 
            985      2.1959e+10 
            995     2.11378e+10 
           1005     2.55077e+10 
           1015      2.2729e+10 
           1025       5.8681e+9 
           1035     1.61907e+10 
           1045     3.09874e+10 
           1055     2.91784e+10 
           1065      2.2201e+10 
           1075     2.68807e+10 
           1085      2.3739e+10 
           1095     2.71042e+10 
           1105     2.39439e+10 
           1115     2.25727e+10 
           1125     1.86108e+10 
           1135      2.4384e+10 
           1145     2.07168e+10 
           1155     2.22551e+10 
           1165     2.21268e+10 
           1175     1.35032e+10 
           1185     2.13679e+10 
           1195     1.79606e+10 
           1205     1.08809e+10 
           1215      5.25784e+9 
           1225     1.34333e+10 
           1235     1.95656e+10 
           1245     1.96684e+10 
           1255     1.92332e+10 
           1265     1.92223e+10 
           1275     1.99249e+10 
           1285     1.99471e+10 
           1295       1.327e+10 
           1305     1.35764e+10 
           1315      1.8924e+10 
           1325     1.72923e+10 
           1335     1.62713e+10 
           1345     1.70503e+10 
           1355     1.68016e+10 
           1365     1.48977e+10 
           1375     1.45981e+10 
           1385     1.45142e+10 
           1395     1.11755e+10 
           1405     1.19762e+10 
           1415     1.26777e+10 
           1425     1.26696e+10 
           1435     1.29053e+10 
           1442     1.33657e+10 
           1447     1.31067e+10 
           1455     1.27257e+10 
           1465     1.16282e+10 
           1475     1.17757e+10 
           1485     1.14591e+10 
           1495     1.13469e+10 
           1505     1.00839e+10 
           1512       9.0528e+9 
           1517      9.38513e+9 
           1525      9.77079e+9 
           1535      8.35489e+9 
           1545      8.25797e+9 
           1555      7.97885e+9 
           1565      8.47956e+9 
           1575      8.98319e+9 
           1585      8.97471e+9 
           1595       8.9271e+9 
           1605      9.05239e+9 
           1615      8.87838e+9 
           1625      8.65773e+9 
           1635      9.13728e+9 
           1645      9.06704e+9 
           1655      8.80224e+9 
           1665      9.16104e+9 
           1672      8.74328e+9 
           1677      9.25813e+9 
           1685      9.11403e+9 
           1695      8.59927e+9 
           1705      8.22642e+9 
           1715      7.78609e+9 
           1725      7.61036e+9 
           1735      7.97731e+9 
           1745       7.7206e+9 
           1755      7.83138e+9 
           1765      7.48845e+9 
           1775      7.20056e+9 
           1785      7.28836e+9 
           1795      7.58188e+9 
           1805      7.61189e+9 
           1815      6.77895e+9 
           1825      7.07293e+9 
           1835       6.7517e+9 
           1845       6.1425e+9 
           1855      6.10098e+9 
           1865      6.18899e+9 
           1875      6.59325e+9 
           1885      5.84259e+9 
           1895       5.4372e+9 
           1905      5.90316e+9 
           1915       5.5001e+9 
           1925      5.26244e+9 
           1935      5.55079e+9 
           1945      5.66504e+9 
           1955      5.12978e+9 
           1967      5.57564e+9 
           1976       5.8151e+9 
           1984      5.32976e+9 
           1995      5.23849e+9 
           2005      5.42637e+9 
           2015      5.28542e+9 
           2025      5.51797e+9 
           2035      5.01657e+9 
           2045      5.10708e+9 
           2055      4.93929e+9 
           2065      4.97594e+9 
           2074      5.16941e+9 
           2078      4.70274e+9 
           2085      4.93189e+9 
           2095      4.63549e+9 
           2105      4.79628e+9 
           2115      4.79078e+9 
           2125      4.84725e+9 
           2135      4.71847e+9 
           2145      4.49535e+9 
           2155      4.67437e+9 
           2165      4.63089e+9 
           2175      4.56348e+9 
           2185      4.41606e+9 
           2195      4.47467e+9 
           2205      4.41458e+9 
           2215      4.33296e+9 
           2225      4.20133e+9 
           2235      4.18622e+9 
           2245      4.19573e+9 
           2255      4.04013e+9 
           2265      4.10948e+9 
           2275      4.04642e+9 
           2285      4.04961e+9 
           2295       3.7873e+9 
           2305       3.8903e+9 
           2315      3.76594e+9 
           2325      3.71961e+9 
           2335      3.58141e+9 
           2345      3.57354e+9 
           2355      3.57891e+9 
           2365      3.50971e+9 
           2375      3.46245e+9 
           2385      3.42189e+9 
           2395      3.42444e+9 
           2405      3.32073e+9 
           2415      3.31363e+9 
           2425      3.31903e+9 
           2435      3.20351e+9 
           2445      3.21895e+9 
           2455      3.21947e+9 
           2465      3.14777e+9 
           2475       3.1027e+9 
           2485      3.08175e+9 
           2495      2.87917e+9 
           2505      3.00518e+9 
           2513      2.84863e+9 
           2518      2.96609e+9 
           2525      2.89619e+9 
           2535      2.85328e+9 
           2545      2.77041e+9 
           2555      2.81923e+9 
           2565      2.77759e+9 
           2575      2.78651e+9 
           2585      2.76578e+9 
           2595      2.73724e+9 
           2605      2.70455e+9 
           2615      2.67608e+9 
           2625       2.6507e+9 
           2635      2.62921e+9 
           2645      2.61782e+9 
           2655      2.60519e+9 
           2665      2.50659e+9 
           2675      2.51905e+9 
           2685       2.5057e+9 
           2695      2.42106e+9 
           2705      2.39707e+9 
           2715      2.38133e+9 
           2725      2.35435e+9 
           2735      2.35957e+9 
           2745      2.26857e+9 
           2755      2.26886e+9 
           2765      2.24701e+9 
           2775      2.27237e+9 
           2785      2.23491e+9 
           2795      2.14299e+9 
           2805      2.17069e+9 
           2815      2.17764e+9 
           2825      2.13227e+9 
           2835      2.04615e+9 
           2845      2.08164e+9 
           2855      2.05987e+9 
           2865      2.06112e+9 
           2875        2.034e+9 
           2885      2.01065e+9 
           2895      1.98689e+9 
           2910      1.95138e+9 
           2930      1.91404e+9 
           2950      1.85453e+9 
           2970      1.83682e+9 
           2990      1.78961e+9 
           3010      1.74487e+9 
           3030      1.73135e+9 
           3050      1.69568e+9 
           3070      1.66454e+9 
           3090      1.61134e+9 
           3110      1.59306e+9 
           3130      1.56015e+9 
           3150       1.5316e+9 
           3170       1.4922e+9 
           3190      1.45337e+9 
           3210       1.4419e+9 
           3230       1.4116e+9 
           3250      1.38722e+9 
           3270      1.35973e+9 
           3290      1.33218e+9 
           3310       1.3096e+9 
           3330      1.28281e+9 
           3350       1.2573e+9 
           3370      1.23432e+9 
           3390      1.21371e+9 
           3410      1.19125e+9 
           3430      1.16315e+9 
           3450      1.13742e+9 
           3470      1.11903e+9 
           3490      1.09786e+9 
           3510      1.07914e+9 
           3530      1.06248e+9 
           3550      1.04399e+9 
           3570      1.03277e+9 
           3590      1.00004e+9 
           3610      9.86334e+8 
           3630      9.69434e+8 
           3640      9.70769e+8 
           3650      9.51459e+8 
           3670      9.40642e+8 
           3690      9.25299e+8 
           3710      8.92304e+8 
           3730      8.59988e+8 
           3750      8.54965e+8 
           3770      8.33089e+8 
           3790       8.7402e+8 
           3810      9.14463e+8 
           3830      7.89958e+8 
           3850      9.46113e+8 
           3870      9.67248e+8 
           3890      7.38939e+8 
           3910      9.65646e+8 
           3930       9.5155e+8 
           3950      9.32787e+8 
           3970      6.87922e+8 
           3990      8.89568e+8 
           4010      9.06605e+8 
           4030      8.35323e+8 
           4050      8.86167e+8 
           4070      8.45116e+8 
           4090      7.55143e+8 
           4110      6.54857e+8 
           4130      7.96819e+8 
           4150      7.99964e+8 
           4170       7.9922e+8 
           4190      7.91887e+8 
           4210      7.84402e+8 
           4230      7.67317e+8 
           4250      7.48015e+8 
           4270      7.23007e+8 
           4290      7.19679e+8 
           4310      6.94561e+8 
           4330      6.05716e+8 
           4350      5.50048e+8 
           4370      6.55339e+8 
           4390      6.41133e+8 
           4410      6.52648e+8 
           4430      6.44926e+8 
           4450      6.37467e+8 
           4470      5.88674e+8 
           4490      6.13416e+8 
           4510      6.12599e+8 
           4530      6.00795e+8 
           4550      5.92722e+8 
           4570      5.83054e+8 
           4590      5.73925e+8 
           4610       5.6105e+8 
           4630      5.51222e+8 
           4650      5.39591e+8 
           4670      5.37467e+8 
           4690       5.3243e+8 
           4710      5.09255e+8 
           4730      5.10582e+8 
           4750      5.03219e+8 
           4770      5.02601e+8 
           4790      4.92518e+8 
           4810      4.80501e+8 
           4830      4.68148e+8 
           4850      4.17417e+8 
           4870      3.68932e+8 
           4890      4.46191e+8 
           4910      4.46876e+8 
           4930      4.26936e+8 
           4950      4.36623e+8 
           4970       4.3304e+8 
           4990      4.25839e+8 
           5010      4.06056e+8 
           5030      4.12452e+8 
           5050      4.00432e+8 
           5070      4.02305e+8 
           5090      3.96024e+8 
           5110      3.89309e+8 
           5130      3.80023e+8 
           5150      3.75316e+8 
           5170      3.74137e+8 
           5190      3.69162e+8 
           5210      3.61545e+8 
           5230      3.58909e+8 
           5250      3.54129e+8 
           5270      3.48666e+8 
           5290      3.44796e+8 
           5310      3.39785e+8 
           5330      3.34773e+8 
           5350      3.29195e+8 
           5370      3.26538e+8 
           5390      3.22019e+8 
           5410      3.17724e+8 
           5430      3.12718e+8 
           5450      3.08702e+8 
           5470      3.04484e+8 
           5490      3.00945e+8 
           5510        2.973e+8 
           5530      2.93035e+8 
           5550      2.89728e+8 
           5570      2.85745e+8 
           5590      2.82341e+8 
           5610      2.78297e+8 
           5630      2.75194e+8 
           5650      2.69449e+8 
           5670      2.65337e+8 
           5690      2.62253e+8 
           5710      2.60488e+8 
           5730      2.57503e+8 
           5750      2.53834e+8 
           5770      2.51467e+8 
           5790      2.48182e+8 
           5810      2.45014e+8 
           5830      2.41662e+8 
           5850      2.38857e+8 
           5870      2.26211e+8 
           5890       2.2989e+8 
           5910      2.29555e+8 
           5930      2.26638e+8 
           5950       2.2334e+8 
           5970      2.21941e+8 
           5990      2.18477e+8 
           6010      2.16515e+8 
           6030       2.1362e+8 
           6050      2.11191e+8 
           6070      2.08799e+8 
           6090      2.06221e+8 
           6110      2.03814e+8 
           6130      2.01514e+8 
           6150      1.97815e+8 
           6170      1.96336e+8 
           6190      1.94352e+8 
           6210      1.92125e+8 
           6230      1.89875e+8 
           6250       1.8706e+8 
           6270      1.85236e+8 
           6290      1.83203e+8 
           6310      1.80927e+8 
           6330      1.79071e+8 
           6350      1.76039e+8 
           6370      1.74499e+8 
           6390      1.72781e+8 
           6410      1.70797e+8 
           6430      1.69089e+8 
           6450      1.67001e+8 
           6470      1.64494e+8 
           6490      1.62766e+8 
           6510      1.60701e+8 
           6530      1.57606e+8 
           6550      1.47056e+8 
           6570      1.28192e+8 
           6590      1.49484e+8 
           6610      1.51521e+8 
           6630       1.5054e+8 
           6650      1.49192e+8 
           6670      1.45428e+8 
           6690      1.43988e+8 
           6710      1.44495e+8 
           6730      1.42739e+8 
           6750      1.41439e+8 
           6770      1.39915e+8 
           6790      1.37163e+8 
           6810      1.36651e+8 
           6830      1.35238e+8 
           6850      1.33928e+8 
           6870      1.32503e+8 
           6890      1.31012e+8 
           6910      1.29584e+8 
           6930      1.28218e+8 
           6950      1.26958e+8 
           6970      1.25634e+8 
           6990      1.24276e+8 
           7010      1.22954e+8 
           7030      1.21661e+8 
           7050      1.20305e+8 
           7070      1.16723e+8 
           7090      1.17835e+8 
           7110      1.16234e+8 
           7130      1.15064e+8 
           7150      1.14156e+8 
           7170       1.1308e+8 
           7190      1.11971e+8 
           7210      1.10821e+8 
           7230      1.07896e+8 
           7250      1.08448e+8 
           7270       1.0746e+8 
           7290      1.05354e+8 
           7310      1.05279e+8 
           7330      1.04214e+8 
           7350      1.03195e+8 
           7370      1.02164e+8 
           7390      1.01136e+8 
           7410      1.00131e+8 
           7430      9.90328e+7 
           7450      9.81217e+7 
           7470      9.69016e+7 
           7490      9.61498e+7 
           7510      9.51908e+7 
           7530       9.4234e+7 
           7550      9.33918e+7 
           7570      9.24913e+7 
           7590      9.15664e+7 
           7610      9.06499e+7 
           7630      8.97935e+7 
           7650      8.89383e+7 
           7670      8.80781e+7 
           7690      8.72256e+7 
           7710       8.6387e+7 
           7730      8.55371e+7 
           7750      8.47386e+7 
           7770       8.3342e+7 
           7790      8.31319e+7 
           7810       8.2299e+7 
           7830      8.15657e+7 
           7850      8.06799e+7 
           7870      7.99176e+7 
           7890      7.89501e+7 
           7910      7.85333e+7 
           7930      7.78142e+7 
           7950      7.69046e+7 
           7970      7.62522e+7 
           7990      7.53104e+7 
           8010      7.48232e+7 
           8030      7.41121e+7 
           8050      7.34129e+7 
           8070      7.27487e+7 
           8090       7.2021e+7 
           8110       7.1271e+7 
           8130      7.07783e+7 
           8150      7.01137e+7 
           8170      6.95338e+7 
           8190      6.87509e+7 
           8210      6.79804e+7 
           8230       6.7339e+7 
           8250      6.69907e+7 
           8270      6.59675e+7 
           8290      6.57702e+7 
           8310      6.52194e+7 
           8330      6.46243e+7 
           8350      6.37424e+7 
           8370      6.33521e+7 
           8390      6.29434e+7 
           8410       6.2378e+7 
           8430      6.17908e+7 
           8450      6.05912e+7 
           8470      6.07255e+7 
           8490      6.00007e+7 
           8510      5.95837e+7 
           8530      5.89577e+7 
           8550      5.82957e+7 
           8570      5.82291e+7 
           8590      5.64828e+7 
