# Kurucz ODFNEW /NOVER (2003)
# teff = 31000 K (value for the effective temperature for the model. Temperatures are given in K)
# logg = 5 log(cm/s2) (value for Log(G) for the model.)
# meta = -2  (value for the Metallicity for the model.)
# lh = 1.25  (l/Hp where l is the  mixing length of the convective element and Hp is the pressure scale height)
# vtur = 2 km/s (Microturbulence velocity)
# alpha = 0.4  (Alpha)
#
# column 1: WAVELENGTH (ANGSTROM), Wavelength in Angstrom
# column 2: FLUX (ERG/CM2/S/A), Flux in erg/cm2/s/A
          147.2      1.21362e-7 
            151      3.79406e-7 
          155.2      1.25298e-6 
          158.8      3.31995e-6 
            162      7.61943e-6 
            166      2.05727e-5 
          170.3      5.68054e-5 
          173.4     0.000114569 
          176.8     0.000240308 
          180.2     0.000490112 
          181.7     0.000665552 
          186.1      0.00158977 
            191      0.00399841 
          193.9      0.00675097 
          198.4       0.0147734 
          201.8       0.0260776 
            205       0.0437454 
          210.5        0.102731 
          216.2        0.237704 
          219.8        0.394672 
            223        0.611075 
          226.8         1.01085 
            230         116.651 
            234         384.958 
            240         704.079 
          246.5         1286.57 
          252.4         2175.25 
          256.8          2690.1 
            260         4016.18 
            264         5279.92 
          268.5         7545.85 
          273.5         10834.7 
          278.5         15241.7 
            284         22571.3 
            290         33004.4 
            296         47323.4 
            301         61315.6 
            308         83916.7 
            318          163259 
            328          265564 
            338          431687 
            348          670251 
            357          984884 
            366      1.42737e+6 
            375      1.95449e+6 
            385      2.81102e+6 
            395      3.90021e+6 
            405      5.30625e+6 
            414      6.96856e+6 
            422      8.63044e+6 
            430      1.06658e+7 
            441      1.41304e+7 
            451      1.80953e+7 
            460      2.20501e+7 
            470      2.75887e+7 
            480      3.38811e+7 
            490      4.11845e+7 
            500      4.99619e+7 
            506      2.32951e+8 
            512      9.22236e+8 
            520      9.50434e+8 
            530      1.05932e+9 
            540      9.92868e+8 
            550      1.15531e+9 
            560      1.20839e+9 
            570      1.27513e+9 
            580      1.21922e+9 
            590      1.36114e+9 
            600      1.40185e+9 
            610      1.47108e+9 
            620      1.52613e+9 
            630      1.59785e+9 
            640        1.616e+9 
            650      1.70763e+9 
            658      1.74711e+9 
            665      1.79145e+9 
            675      1.82657e+9 
            685      1.84509e+9 
            695      1.99578e+9 
            705      1.99861e+9 
            716      2.11977e+9 
            726      2.17242e+9 
            735      2.25407e+9 
            745      2.32231e+9 
            755      2.38268e+9 
            765      2.44831e+9 
            775      2.52717e+9 
            785      2.61016e+9 
            795      2.65733e+9 
            805      2.72799e+9 
            815      2.78339e+9 
            825      2.86472e+9 
            835      2.81013e+9 
            845      2.97949e+9 
            855      3.03445e+9 
            865      3.10608e+9 
            875      3.17203e+9 
            885       3.2362e+9 
            895      3.29569e+9 
            905        3.328e+9 
            915        3.633e+9 
            925      1.3212e+10 
            935     2.66336e+10 
            945     5.67061e+10 
            955     7.04366e+10 
            965     9.29014e+10 
            975      4.5586e+10 
            985     9.83036e+10 
            995     9.03405e+10 
           1005     9.55937e+10 
           1015      8.8278e+10 
           1025     3.91458e+10 
           1035      8.1488e+10 
           1045     8.95816e+10 
           1055     8.75902e+10 
           1065     8.17181e+10 
           1075     8.14795e+10 
           1085     7.40866e+10 
           1095     7.88413e+10 
           1105      7.5548e+10 
           1115     7.36505e+10 
           1125     6.89714e+10 
           1135     7.06771e+10 
           1145     6.73359e+10 
           1155     6.65731e+10 
           1165     6.52825e+10 
           1175     5.71305e+10 
           1185      6.1316e+10 
           1195     5.87429e+10 
           1205     5.31148e+10 
           1215     2.57801e+10 
           1225      5.1249e+10 
           1235     5.43102e+10 
           1245     5.28555e+10 
           1255     5.23753e+10 
           1265     5.12068e+10 
           1275     5.01634e+10 
           1285     4.89932e+10 
           1295     4.60043e+10 
           1305     4.57842e+10 
           1315     4.56156e+10 
           1325      4.4185e+10 
           1335     4.27752e+10 
           1345      4.2306e+10 
           1355     4.16038e+10 
           1365     4.03535e+10 
           1375     3.96093e+10 
           1385     3.87644e+10 
           1395     3.61896e+10 
           1405     3.58003e+10 
           1415     3.60468e+10 
           1425     3.51939e+10 
           1435     3.46045e+10 
           1442     3.42095e+10 
           1447      3.3808e+10 
           1455      3.3181e+10 
           1465     3.24627e+10 
           1475     3.17557e+10 
           1485     3.11312e+10 
           1495     3.04397e+10 
           1505     2.95509e+10 
           1512     2.92829e+10 
           1517     2.89805e+10 
           1525     2.84472e+10 
           1535     2.74302e+10 
           1545     2.65838e+10 
           1555     2.60358e+10 
           1565     2.59118e+10 
           1575     2.55595e+10 
           1585     2.51135e+10 
           1595     2.46486e+10 
           1605     2.38773e+10 
           1615     2.33486e+10 
           1625     2.29779e+10 
           1635     2.24525e+10 
           1645     2.14049e+10 
           1655      2.1876e+10 
           1665     2.14536e+10 
           1672     2.11207e+10 
           1677     2.11182e+10 
           1685     2.07589e+10 
           1695     2.03364e+10 
           1705     1.99106e+10 
           1715     1.94306e+10 
           1725     1.90363e+10 
           1735     1.88789e+10 
           1745     1.85097e+10 
           1755     1.81685e+10 
           1765     1.77794e+10 
           1775     1.74816e+10 
           1785     1.71928e+10 
           1795     1.69246e+10 
           1805     1.66497e+10 
           1815     1.63204e+10 
           1825     1.60368e+10 
           1835     1.57652e+10 
           1845     1.53579e+10 
           1855     1.49804e+10 
           1865     1.47953e+10 
           1875     1.46507e+10 
           1885      1.4272e+10 
           1895     1.39088e+10 
           1905     1.38628e+10 
           1915     1.34821e+10 
           1925     1.32214e+10 
           1935     1.31093e+10 
           1945     1.29788e+10 
           1955     1.25891e+10 
           1967     1.24983e+10 
           1976      1.2376e+10 
           1984      1.2129e+10 
           1995     1.18129e+10 
           2005     1.17704e+10 
           2015     1.16093e+10 
           2025     1.14398e+10 
           2035     1.12203e+10 
           2045     1.10397e+10 
           2055     1.02483e+10 
           2065     1.00052e+10 
           2074      9.98078e+9 
           2078      9.83508e+9 
           2085      9.87574e+9 
           2095      9.87611e+9 
           2105       9.9976e+9 
           2115      9.91339e+9 
           2125      9.77025e+9 
           2135      9.62026e+9 
           2145      9.47018e+9 
           2155      9.34031e+9 
           2165      9.17546e+9 
           2175       9.0658e+9 
           2185      8.89936e+9 
           2195      8.79969e+9 
           2205      8.66969e+9 
           2215      8.50098e+9 
           2225       8.4118e+9 
           2235      8.28617e+9 
           2245      8.16617e+9 
           2255      8.00426e+9 
           2265      7.92933e+9 
           2275      7.81392e+9 
           2285      7.69661e+9 
           2295      7.49593e+9 
           2305      7.43812e+9 
           2315      7.36978e+9 
           2325       7.2654e+9 
           2335      7.16047e+9 
           2345      7.06185e+9 
           2355      6.96192e+9 
           2365      6.86411e+9 
           2375      6.76702e+9 
           2385      6.63688e+9 
           2395      6.57697e+9 
           2405      6.48905e+9 
           2415      6.39827e+9 
           2425      6.31153e+9 
           2435      6.22219e+9 
           2445      6.13887e+9 
           2455      6.05584e+9 
           2465      5.97456e+9 
           2475      5.89329e+9 
           2485      5.81448e+9 
           2495      5.58041e+9 
           2505      5.65596e+9 
           2513      5.52748e+9 
           2518      5.55006e+9 
           2525      5.51029e+9 
           2535      5.43817e+9 
           2545      5.35376e+9 
           2555      5.29145e+9 
           2565      5.22565e+9 
           2575      5.15866e+9 
           2585       5.0921e+9 
           2595       5.0263e+9 
           2605       4.9849e+9 
           2615      4.92068e+9 
           2625      4.85767e+9 
           2635      4.79402e+9 
           2645       4.7315e+9 
           2655      4.66739e+9 
           2665      4.60033e+9 
           2675      4.53526e+9 
           2685      4.50002e+9 
           2695      4.41435e+9 
           2705      4.38749e+9 
           2715      4.33305e+9 
           2725      4.24768e+9 
           2735      4.20993e+9 
           2745      4.17431e+9 
           2755      4.12346e+9 
           2765      4.03939e+9 
           2775      4.02402e+9 
           2785      3.97463e+9 
           2795      3.90877e+9 
           2805      3.87492e+9 
           2815      3.83298e+9 
           2825      3.74849e+9 
           2835      3.71666e+9 
           2845      3.69723e+9 
           2855      3.65266e+9 
           2865      3.60935e+9 
           2875      3.56692e+9 
           2885      3.52545e+9 
           2895      3.48387e+9 
           2910      3.42247e+9 
           2930      3.34365e+9 
           2950      3.24106e+9 
           2970      3.19235e+9 
           2990      3.11978e+9 
           3010      3.04886e+9 
           3030      2.98092e+9 
           3050      2.91494e+9 
           3070       2.8507e+9 
           3090      2.78425e+9 
           3110       2.7267e+9 
           3130      2.66878e+9 
           3150      2.61093e+9 
           3170      2.55507e+9 
           3190      2.47756e+9 
           3210      2.44305e+9 
           3230      2.39386e+9 
           3250       2.3433e+9 
           3270       2.2964e+9 
           3290      2.24574e+9 
           3310      2.20238e+9 
           3330      2.15681e+9 
           3350      2.10911e+9 
           3370      2.06972e+9 
           3390      2.02807e+9 
           3410      1.98727e+9 
           3430      1.94028e+9 
           3450      1.89522e+9 
           3470      1.86261e+9 
           3490      1.82595e+9 
           3510       1.7919e+9 
           3530      1.75832e+9 
           3550      1.72493e+9 
           3570      1.70235e+9 
           3590      1.65613e+9 
           3610      1.63202e+9 
           3630       1.5939e+9 
           3640      1.59221e+9 
           3650      1.57071e+9 
           3670      1.54735e+9 
           3690      1.51961e+9 
           3710      1.47122e+9 
           3730      1.42786e+9 
           3750      1.40297e+9 
           3770      1.35773e+9 
           3790      1.39222e+9 
           3810      1.43806e+9 
           3830      1.26721e+9 
           3850      1.46503e+9 
           3870      1.48884e+9 
           3890      1.18565e+9 
           3910      1.45743e+9 
           3930      1.45114e+9 
           3950      1.40978e+9 
           3970      1.09826e+9 
           3990      1.34775e+9 
           4010       1.3509e+9 
           4030      1.26631e+9 
           4050      1.31994e+9 
           4070      1.28621e+9 
           4090       1.1659e+9 
           4110      1.02391e+9 
           4130      1.20396e+9 
           4150      1.19591e+9 
           4170      1.18802e+9 
           4190      1.16902e+9 
           4210      1.14906e+9 
           4230      1.12986e+9 
           4250      1.10957e+9 
           4270      1.08901e+9 
           4290      1.06851e+9 
           4310       1.0419e+9 
           4330      9.30707e+8 
           4350      8.52387e+8 
           4370      9.86521e+8 
           4390      9.51788e+8 
           4410      9.65897e+8 
           4430      9.48902e+8 
           4450      9.35902e+8 
           4470      8.73716e+8 
           4490      9.04408e+8 
           4510      8.91607e+8 
           4530      8.77143e+8 
           4550      8.61842e+8 
           4570      8.48597e+8 
           4590       8.3478e+8 
           4610      8.21756e+8 
           4630      8.08785e+8 
           4650      7.93288e+8 
           4670      7.82966e+8 
           4690      7.67568e+8 
           4710      7.48531e+8 
           4730      7.47266e+8 
           4750      7.35493e+8 
           4770      7.24354e+8 
           4790        7.129e+8 
           4810      6.99737e+8 
           4830      6.83522e+8 
           4850      6.22867e+8 
           4870      5.59354e+8 
           4890      6.49348e+8 
           4910      6.46382e+8 
           4930      6.21525e+8 
           4950       6.3075e+8 
           4970      6.21733e+8 
           4990      6.12508e+8 
           5010       5.9571e+8 
           5030      5.94511e+8 
           5050      5.82514e+8 
           5070      5.77268e+8 
           5090      5.68844e+8 
           5110      5.60605e+8 
           5130      5.52492e+8 
           5150       5.4453e+8 
           5170      5.36675e+8 
           5190      5.29036e+8 
           5210      5.21499e+8 
           5230      5.14102e+8 
           5250       5.0683e+8 
           5270      4.99681e+8 
           5290      4.92665e+8 
           5310      4.85768e+8 
           5330      4.78999e+8 
           5350      4.72332e+8 
           5370      4.65789e+8 
           5390      4.59343e+8 
           5410      4.52671e+8 
           5430      4.46825e+8 
           5450      4.40724e+8 
           5470      4.34724e+8 
           5490      4.28825e+8 
           5510      4.23025e+8 
           5530      4.17334e+8 
           5550      4.11727e+8 
           5570      4.06213e+8 
           5590      4.00792e+8 
           5610      3.95462e+8 
           5630      3.90221e+8 
           5650      3.85067e+8 
           5670      3.79977e+8 
           5690      3.74913e+8 
           5710      3.70084e+8 
           5730      3.65279e+8 
           5750      3.60475e+8 
           5770      3.55876e+8 
           5790      3.51286e+8 
           5810      3.46763e+8 
           5830      3.42315e+8 
           5850      3.37942e+8 
           5870      3.22556e+8 
           5890      3.28437e+8 
           5910      3.25215e+8 
           5930      3.21129e+8 
           5950       3.1709e+8 
           5970      3.13119e+8 
           5990      3.09205e+8 
           6010      3.05356e+8 
           6030      3.01563e+8 
           6050      2.97833e+8 
           6070      2.94155e+8 
           6090       2.9054e+8 
           6110      2.86976e+8 
           6130      2.83473e+8 
           6150      2.80018e+8 
           6170      2.76613e+8 
           6190      2.73265e+8 
           6210      2.69964e+8 
           6230      2.66719e+8 
           6250       2.6352e+8 
           6270      2.60366e+8 
           6290      2.57256e+8 
           6310      2.54199e+8 
           6330      2.51185e+8 
           6350      2.48204e+8 
           6370      2.45283e+8 
           6390      2.42403e+8 
           6410      2.39563e+8 
           6430      2.36763e+8 
           6450      2.34002e+8 
           6470      2.31271e+8 
           6490      2.28586e+8 
           6510      2.25486e+8 
           6530       2.2173e+8 
           6550      2.10122e+8 
           6570      1.87287e+8 
           6590       2.1255e+8 
           6610      2.12524e+8 
           6630      2.10815e+8 
           6650      2.08595e+8 
           6670      2.03823e+8 
           6690      2.01571e+8 
           6710      2.01643e+8 
           6730      1.99374e+8 
           6750      1.97168e+8 
           6770       1.9497e+8 
           6790      1.92793e+8 
           6810      1.90671e+8 
           6830      1.88563e+8 
           6850      1.86492e+8 
           6870      1.84442e+8 
           6890      1.82412e+8 
           6910      1.80419e+8 
           6930      1.78469e+8 
           6950      1.76531e+8 
           6970       1.7462e+8 
           6990      1.72735e+8 
           7010      1.70877e+8 
           7030      1.69045e+8 
           7050      1.67231e+8 
           7070      1.62804e+8 
           7090      1.63685e+8 
           7110      1.61946e+8 
           7130      1.60231e+8 
           7150      1.58533e+8 
           7170      1.56851e+8 
           7190      1.55214e+8 
           7210      1.53593e+8 
           7230      1.51916e+8 
           7250      1.50391e+8 
           7270      1.48837e+8 
           7290      1.46079e+8 
           7310      1.45754e+8 
           7330      1.44265e+8 
           7350      1.42777e+8 
           7370      1.41309e+8 
           7390      1.39863e+8 
           7410      1.38436e+8 
           7430      1.37023e+8 
           7450       1.3565e+8 
           7470      1.34257e+8 
           7490      1.32916e+8 
           7510      1.31534e+8 
           7530      1.30252e+8 
           7550      1.28942e+8 
           7570       1.2765e+8 
           7590      1.26376e+8 
           7610      1.25114e+8 
           7630      1.23877e+8 
           7650      1.22644e+8 
           7670      1.21436e+8 
           7690      1.20238e+8 
           7710      1.19051e+8 
           7730      1.17887e+8 
           7750      1.16727e+8 
           7770      1.15591e+8 
           7790      1.14464e+8 
           7810      1.13304e+8 
           7830      1.12253e+8 
           7850      1.11266e+8 
           7870      1.10184e+8 
           7890      1.09087e+8 
           7910      1.08085e+8 
           7930      1.07049e+8 
           7950      1.06022e+8 
           7970      1.04939e+8 
           7990      1.04008e+8 
           8010       1.0299e+8 
           8030      1.01969e+8 
           8050      1.00957e+8 
           8070      1.00053e+8 
           8090      9.89253e+7 
           8110      9.80943e+7 
           8130      9.72532e+7 
           8150      9.62717e+7 
           8170       9.5451e+7 
           8190      9.44518e+7 
           8210      9.34948e+7 
           8230      9.28017e+7 
           8250      9.19759e+7 
           8270      9.08045e+7 
           8290      9.02737e+7 
           8310      8.94906e+7 
           8330      8.86216e+7 
           8350      8.74789e+7 
           8370      8.69323e+7 
           8390      8.62507e+7 
           8410      8.54735e+7 
           8430      8.46602e+7 
           8450      8.34052e+7 
           8470      8.31535e+7 
           8490        8.225e+7 
           8510      8.16454e+7 
           8530      8.07245e+7 
           8550      7.99711e+7 
           8570      7.95931e+7 
           8590      7.76045e+7 
