# Kurucz ODFNEW /NOVER (2003)
# teff = 30000 K (value for the effective temperature for the model. Temperatures are given in K)
# logg = 5 log(cm/s2) (value for Log(G) for the model.)
# meta = -1  (value for the Metallicity for the model.)
# lh = 1.25  (l/Hp where l is the  mixing length of the convective element and Hp is the pressure scale height)
# vtur = 2 km/s (Microturbulence velocity)
# alpha = 0.4  (Alpha)
#
# column 1: WAVELENGTH (ANGSTROM), Wavelength in Angstrom
# column 2: FLUX (ERG/CM2/S/A), Flux in erg/cm2/s/A
          147.2      6.12129e-9 
            151      2.00286e-8 
          155.2       6.9734e-8 
          158.8      1.93508e-7 
            162      4.62773e-7 
            166      1.31578e-6 
          170.3       3.8373e-6 
          173.4      8.04527e-6 
          176.8      1.75937e-5 
          180.2      3.73724e-5 
          181.7      5.16434e-5 
          186.1     0.000129575 
            191     0.000343477 
          193.9     0.000597461 
          198.4      0.00136546 
          201.8      0.00248731 
            205      0.00429359 
          210.5       0.0105528 
          216.2       0.0255017 
          219.8       0.0434581 
            223       0.0687672 
          226.8        0.116743 
            230         17.3744 
            234         42.5255 
            240         80.4867 
          246.5         156.272 
          252.4         279.843 
          256.8         385.297 
            260         567.936 
            264         772.637 
          268.5         1157.64 
          273.5          1738.8 
          278.5         2536.49 
            284         4091.87 
            290         6231.94 
            296         9327.08 
            301         12699.3 
            308         19071.2 
            318         38230.3 
            328         64557.8 
            338          112062 
            348          182230 
            357          341823 
            366          537691 
            375          743038 
            385      1.10867e+6 
            395      1.62673e+6 
            405      2.24145e+6 
            414      3.02951e+6 
            422      3.73188e+6 
            430      4.71859e+6 
            441       6.3411e+6 
            451        8.273e+6 
            460      1.01284e+7 
            470      1.28724e+7 
            480      1.59718e+7 
            490      1.97481e+7 
            500      2.43864e+7 
            506      1.01966e+8 
            512      4.57906e+8 
            520      4.75496e+8 
            530      5.29366e+8 
            540      5.01725e+8 
            550      6.17948e+8 
            560      6.70641e+8 
            570      7.29805e+8 
            580      6.93657e+8 
            590      8.02539e+8 
            600      8.28219e+8 
            610      8.94006e+8 
            620      9.49546e+8 
            630      9.95974e+8 
            640      9.91398e+8 
            650      1.07704e+9 
            658      1.10983e+9 
            665       1.1521e+9 
            675      1.16461e+9 
            685      1.17003e+9 
            695      1.32886e+9 
            705      1.31978e+9 
            716      1.43547e+9 
            726      1.46003e+9 
            735      1.51152e+9 
            745      1.59753e+9 
            755      1.64505e+9 
            765      1.70461e+9 
            775      1.77123e+9 
            785       1.8494e+9 
            795      1.88172e+9 
            805      1.93061e+9 
            815      1.96445e+9 
            825      2.05129e+9 
            835       1.9589e+9 
            845      2.12006e+9 
            855      2.16254e+9 
            865      2.23457e+9 
            875      2.30188e+9 
            885      2.37512e+9 
            895      2.43244e+9 
            905      2.44379e+9 
            915      2.66187e+9 
            925      9.70988e+9 
            935     2.06256e+10 
            945     4.62651e+10 
            955     5.95894e+10 
            965     7.91386e+10 
            975     3.01261e+10 
            985     8.25467e+10 
            995      7.5382e+10 
           1005     7.96819e+10 
           1015     7.46749e+10 
           1025     3.08067e+10 
           1035     6.67315e+10 
           1045       8.134e+10 
           1055     7.83431e+10 
           1065     6.88175e+10 
           1075       7.183e+10 
           1085     6.50398e+10 
           1095     7.06439e+10 
           1105     6.65974e+10 
           1115     6.50445e+10 
           1125     5.70024e+10 
           1135     6.29157e+10 
           1145     5.74681e+10 
           1155     5.82677e+10 
           1165     5.74521e+10 
           1175     4.54463e+10 
           1185     5.34929e+10 
           1195     5.03722e+10 
           1205     4.29755e+10 
           1215     2.09653e+10 
           1225      4.3454e+10 
           1235     4.81402e+10 
           1245     4.69738e+10 
           1255      4.6453e+10 
           1265     4.57238e+10 
           1275     4.54497e+10 
           1285     4.44553e+10 
           1295     3.93572e+10 
           1305     3.99265e+10 
           1315     4.15372e+10 
           1325     3.97861e+10 
           1335     3.84397e+10 
           1345     3.77974e+10 
           1355     3.78694e+10 
           1365     3.58284e+10 
           1375     3.53491e+10 
           1385     3.47089e+10 
           1395     2.94043e+10 
           1405     3.00311e+10 
           1415      3.2088e+10 
           1425     3.07524e+10 
           1435     3.08046e+10 
           1442     3.09429e+10 
           1447      3.0447e+10 
           1455     2.97038e+10 
           1465     2.88626e+10 
           1475     2.83219e+10 
           1485     2.78324e+10 
           1495     2.71343e+10 
           1505      2.5757e+10 
           1512     2.52505e+10 
           1517     2.52153e+10 
           1525     2.48137e+10 
           1535      2.2883e+10 
           1545     2.23084e+10 
           1555     2.15675e+10 
           1565     2.20157e+10 
           1575     2.21622e+10 
           1585     2.18639e+10 
           1595     2.16395e+10 
           1605     2.07214e+10 
           1615     2.01102e+10 
           1625     2.00561e+10 
           1635     1.99679e+10 
           1645     1.92637e+10 
           1655     1.94827e+10 
           1665     1.91448e+10 
           1672     1.86762e+10 
           1677     1.92509e+10 
           1685     1.87885e+10 
           1695     1.82659e+10 
           1705     1.77555e+10 
           1715     1.72288e+10 
           1725      1.6817e+10 
           1735     1.68865e+10 
           1745      1.6576e+10 
           1755     1.63558e+10 
           1765     1.58699e+10 
           1775     1.55361e+10 
           1785     1.53791e+10 
           1795     1.52854e+10 
           1805     1.51431e+10 
           1815     1.46221e+10 
           1825     1.44838e+10 
           1835     1.42201e+10 
           1845     1.33813e+10 
           1855     1.32221e+10 
           1865     1.32399e+10 
           1875     1.31848e+10 
           1885      1.2424e+10 
           1895     1.18987e+10 
           1905     1.22371e+10 
           1915     1.17748e+10 
           1925     1.13905e+10 
           1935        1.16e+10 
           1945     1.16454e+10 
           1955     1.09243e+10 
           1967      1.1138e+10 
           1976     1.13099e+10 
           1984     1.08035e+10 
           1995     1.04897e+10 
           2005     1.05662e+10 
           2015     1.05311e+10 
           2025     1.04871e+10 
           2035     1.00814e+10 
           2045      9.94516e+9 
           2055      9.29373e+9 
           2065      9.17037e+9 
           2074      9.30553e+9 
           2078      9.03156e+9 
           2085      9.05074e+9 
           2095      8.89588e+9 
           2105      9.10743e+9 
           2115      9.08383e+9 
           2125      9.01272e+9 
           2135      8.85907e+9 
           2145      8.66121e+9 
           2155      8.60616e+9 
           2165      8.47299e+9 
           2175      8.35305e+9 
           2185      8.22627e+9 
           2195      8.14992e+9 
           2205      8.02812e+9 
           2215      7.89053e+9 
           2225      7.78019e+9 
           2235      7.65341e+9 
           2245      7.57118e+9 
           2255      7.42046e+9 
           2265      7.35435e+9 
           2275      7.25053e+9 
           2285      7.13554e+9 
           2295      6.86257e+9 
           2305      6.90887e+9 
           2315      6.82583e+9 
           2325      6.73519e+9 
           2335      6.62214e+9 
           2345      6.55701e+9 
           2355      6.46822e+9 
           2365       6.3803e+9 
           2375      6.28033e+9 
           2385      6.17122e+9 
           2395      6.10094e+9 
           2405      6.02817e+9 
           2415      5.93726e+9 
           2425      5.86828e+9 
           2435      5.76694e+9 
           2445      5.70127e+9 
           2455      5.62985e+9 
           2465      5.55984e+9 
           2475      5.48025e+9 
           2485       5.4064e+9 
           2495      5.00016e+9 
           2505      5.24717e+9 
           2513      5.10274e+9 
           2518      5.13467e+9 
           2525      5.12627e+9 
           2535      5.06369e+9 
           2545       4.9433e+9 
           2555      4.90681e+9 
           2565      4.85517e+9 
           2575      4.80339e+9 
           2585      4.74442e+9 
           2595      4.68381e+9 
           2605      4.64665e+9 
           2615      4.58578e+9 
           2625      4.52964e+9 
           2635      4.47123e+9 
           2645      4.41164e+9 
           2655      4.35271e+9 
           2665      4.27968e+9 
           2675      4.22516e+9 
           2685      4.19866e+9 
           2695      4.10365e+9 
           2705      4.08233e+9 
           2715      4.03657e+9 
           2725      3.95692e+9 
           2735      3.92713e+9 
           2745      3.88817e+9 
           2755      3.84436e+9 
           2765      3.76521e+9 
           2775      3.75882e+9 
           2785      3.70905e+9 
           2795      3.60578e+9 
           2805      3.60214e+9 
           2815      3.58178e+9 
           2825      3.50189e+9 
           2835      3.45014e+9 
           2845      3.45623e+9 
           2855      3.40983e+9 
           2865      3.37097e+9 
           2875       3.3322e+9 
           2885      3.29565e+9 
           2895      3.25575e+9 
           2910      3.19455e+9 
           2930      3.12459e+9 
           2950      3.02687e+9 
           2970        2.985e+9 
           2990      2.91574e+9 
           3010      2.84336e+9 
           3030      2.78576e+9 
           3050      2.72784e+9 
           3070      2.67071e+9 
           3090      2.59198e+9 
           3110      2.55353e+9 
           3130      2.49535e+9 
           3150      2.44349e+9 
           3170      2.39158e+9 
           3190      2.32025e+9 
           3210      2.29092e+9 
           3230      2.24144e+9 
           3250      2.19696e+9 
           3270      2.15227e+9 
           3290       2.1053e+9 
           3310      2.06556e+9 
           3330      2.02211e+9 
           3350       1.9788e+9 
           3370      1.94098e+9 
           3390      1.90402e+9 
           3410       1.8662e+9 
           3430      1.82215e+9 
           3450      1.77956e+9 
           3470      1.74853e+9 
           3490      1.71417e+9 
           3510       1.6834e+9 
           3530      1.65289e+9 
           3550      1.62165e+9 
           3570       1.6009e+9 
           3590      1.55543e+9 
           3610      1.53443e+9 
           3630      1.49861e+9 
           3640      1.49835e+9 
           3650      1.46829e+9 
           3670      1.44833e+9 
           3690      1.42288e+9 
           3710      1.37556e+9 
           3730      1.33428e+9 
           3750      1.31275e+9 
           3770      1.27071e+9 
           3790      1.30635e+9 
           3810      1.34971e+9 
           3830      1.18875e+9 
           3850        1.379e+9 
           3870      1.39897e+9 
           3890      1.11245e+9 
           3910      1.37591e+9 
           3930      1.36582e+9 
           3950      1.32827e+9 
           3970      1.03138e+9 
           3990      1.27245e+9 
           4010      1.27879e+9 
           4030      1.19709e+9 
           4050      1.25046e+9 
           4070      1.20602e+9 
           4090       1.0923e+9 
           4110      9.62559e+8 
           4130       1.1351e+9 
           4150      1.13138e+9 
           4170      1.12604e+9 
           4190      1.10716e+9 
           4210      1.09197e+9 
           4230       1.0725e+9 
           4250      1.04923e+9 
           4270      1.02502e+9 
           4290      1.00921e+9 
           4310      9.81527e+8 
           4330      8.75872e+8 
           4350      8.00524e+8 
           4370       9.3089e+8 
           4390      9.01237e+8 
           4410      9.12627e+8 
           4430      9.00853e+8 
           4450       8.8701e+8 
           4470      8.27504e+8 
           4490        8.567e+8 
           4510       8.4723e+8 
           4530      8.33743e+8 
           4550      8.18441e+8 
           4570      8.04962e+8 
           4590      7.91614e+8 
           4610      7.79265e+8 
           4630      7.67609e+8 
           4650      7.46577e+8 
           4670      7.42079e+8 
           4690      7.30693e+8 
           4710      7.07451e+8 
           4730      7.10338e+8 
           4750      6.98475e+8 
           4770      6.89849e+8 
           4790      6.78599e+8 
           4810      6.65347e+8 
           4830      6.48415e+8 
           4850      5.90227e+8 
           4870      5.29237e+8 
           4890       6.1724e+8 
           4910       6.1491e+8 
           4930      5.90617e+8 
           4950      5.99231e+8 
           4970      5.92496e+8 
           4990      5.83626e+8 
           5010      5.65917e+8 
           5030      5.66325e+8 
           5050      5.54536e+8 
           5070      5.50272e+8 
           5090       5.4203e+8 
           5110      5.34217e+8 
           5130      5.26324e+8 
           5150       5.1875e+8 
           5170      5.11375e+8 
           5190      5.04351e+8 
           5210      4.97002e+8 
           5230      4.90233e+8 
           5250      4.83321e+8 
           5270      4.76472e+8 
           5290       4.6986e+8 
           5310      4.63268e+8 
           5330       4.5684e+8 
           5350      4.50443e+8 
           5370      4.44364e+8 
           5390      4.38129e+8 
           5410      4.31986e+8 
           5430      4.26293e+8 
           5450      4.20405e+8 
           5470      4.14742e+8 
           5490      4.09189e+8 
           5510       4.0373e+8 
           5530      3.98264e+8 
           5550       3.9299e+8 
           5570      3.87732e+8 
           5590      3.82587e+8 
           5610      3.77506e+8 
           5630      3.72571e+8 
           5650      3.67507e+8 
           5670      3.62493e+8 
           5690      3.57424e+8 
           5710      3.53226e+8 
           5730       3.4878e+8 
           5750      3.43817e+8 
           5770      3.39876e+8 
           5790      3.35498e+8 
           5810      3.31194e+8 
           5830      3.26886e+8 
           5850      3.22762e+8 
           5870      3.07752e+8 
           5890      3.13419e+8 
           5910      3.10546e+8 
           5930      3.06645e+8 
           5950      3.02767e+8 
           5970      2.99198e+8 
           5990      2.95356e+8 
           6010      2.91766e+8 
           6030      2.88114e+8 
           6050      2.84597e+8 
           6070      2.81129e+8 
           6090      2.77681e+8 
           6110      2.74302e+8 
           6130      2.70961e+8 
           6150      2.67548e+8 
           6170      2.64361e+8 
           6190       2.6123e+8 
           6210      2.58095e+8 
           6230      2.55004e+8 
           6250      2.51928e+8 
           6270      2.48934e+8 
           6290      2.45991e+8 
           6310      2.43044e+8 
           6330      2.40203e+8 
           6350      2.37282e+8 
           6370      2.34569e+8 
           6390       2.3182e+8 
           6410      2.29101e+8 
           6430      2.26466e+8 
           6450      2.23842e+8 
           6470      2.21128e+8 
           6490      2.18587e+8 
           6510      2.15619e+8 
           6530      2.11932e+8 
           6550      2.00472e+8 
           6570      1.77949e+8 
           6590      2.02773e+8 
           6610      2.03255e+8 
           6630      2.01645e+8 
           6650      1.99539e+8 
           6670      1.94924e+8 
           6690      1.92826e+8 
           6710      1.92983e+8 
           6730      1.90707e+8 
           6750      1.88726e+8 
           6770      1.86635e+8 
           6790      1.84401e+8 
           6810      1.82515e+8 
           6830      1.80471e+8 
           6850      1.78536e+8 
           6870       1.7658e+8 
           6890      1.74596e+8 
           6910      1.72655e+8 
           6930      1.70884e+8 
           6950      1.69044e+8 
           6970      1.67222e+8 
           6990      1.65418e+8 
           7010       1.6364e+8 
           7030      1.61879e+8 
           7050      1.60159e+8 
           7070      1.55855e+8 
           7090      1.56775e+8 
           7110      1.55097e+8 
           7130      1.53465e+8 
           7150      1.51856e+8 
           7170      1.50255e+8 
           7190      1.48692e+8 
           7210      1.47136e+8 
           7230      1.45069e+8 
           7250      1.44026e+8 
           7270        1.426e+8 
           7290      1.39933e+8 
           7310      1.39655e+8 
           7330      1.38228e+8 
           7350      1.36814e+8 
           7370      1.35414e+8 
           7390      1.34034e+8 
           7410      1.32666e+8 
           7430      1.31318e+8 
           7450      1.30003e+8 
           7470      1.28559e+8 
           7490      1.27383e+8 
           7510      1.26077e+8 
           7530      1.24837e+8 
           7550      1.23601e+8 
           7570      1.22371e+8 
           7590      1.21151e+8 
           7610      1.19904e+8 
           7630      1.18758e+8 
           7650      1.17585e+8 
           7670      1.16428e+8 
           7690      1.15281e+8 
           7710      1.14152e+8 
           7730      1.13032e+8 
           7750      1.11935e+8 
           7770      1.10779e+8 
           7790      1.09771e+8 
           7810      1.08653e+8 
           7830      1.07656e+8 
           7850      1.06693e+8 
           7870      1.05634e+8 
           7890      1.04555e+8 
           7910      1.03665e+8 
           7930       1.0267e+8 
           7950      1.01671e+8 
           7970      1.00634e+8 
           7990      9.97293e+7 
           8010      9.87563e+7 
           8030      9.77566e+7 
           8050      9.68122e+7 
           8070      9.59454e+7 
           8090       9.4896e+7 
           8110      9.39646e+7 
           8130      9.32691e+7 
           8150      9.23525e+7 
           8170      9.15849e+7 
           8190      9.05596e+7 
           8210      8.95768e+7 
           8230      8.89028e+7 
           8250      8.81512e+7 
           8270      8.69267e+7 
           8290      8.65132e+7 
           8310      8.57754e+7 
           8330       8.4946e+7 
           8350      8.38425e+7 
           8370      8.33079e+7 
           8390      8.26811e+7 
           8410      8.19314e+7 
           8430      8.11614e+7 
           8450      7.99229e+7 
           8470      7.97245e+7 
           8490      7.88476e+7 
           8510      7.82693e+7 
           8530      7.74005e+7 
           8550      7.66677e+7 
           8570      7.63257e+7 
           8590      7.43829e+7 
