# Kurucz ODFNEW /NOVER (2003)
# teff = 8250 K (value for the effective temperature for the model. Temperatures are given in K)
# logg = 2.5 log(cm/s2) (value for Log(G) for the model.)
# meta = -4  (value for the Metallicity for the model.)
# lh = 1.25  (l/Hp where l is the  mixing length of the convective element and Hp is the pressure scale height)
# vtur = 2 km/s (Microturbulence velocity)
# alpha = 0.4  (Alpha)
#
# column 1: WAVELENGTH (ANGSTROM), Wavelength in Angstrom
# column 2: FLUX (ERG/CM2/S/A), Flux in erg/cm2/s/A
          147.2     1.73866e-35 
            151     1.65225e-35 
          155.2     1.56403e-35 
          158.8     1.49392e-35 
            162     1.43549e-35 
            166     1.36714e-35 
          170.3     1.29897e-35 
          173.4     1.25294e-35 
          176.8     1.20522e-35 
          180.2     1.16017e-35 
          181.7     1.14109e-35 
          186.1     1.08777e-35 
            191     1.03267e-35 
          193.9     1.00201e-35 
          198.4     9.57076e-36 
          201.8     9.25097e-36 
            205     8.96441e-36 
          210.5     8.50208e-36 
          216.2     8.05969e-36 
          219.8     7.79784e-36 
            223     7.57565e-36 
          226.8     7.32392e-36 
            230     7.12154e-36 
            234     6.88015e-36 
            240     6.54044e-36 
          246.5     6.20006e-36 
          252.4     5.91358e-36 
          256.8     5.71267e-36 
            260     5.57292e-36 
            264     5.40532e-36 
          268.5     5.22566e-36 
          273.5     5.03634e-36 
          278.5     4.85712e-36 
            284      5.1379e-23 
            290     2.92841e-22 
            296     1.43819e-21 
            301     5.11323e-21 
            308     2.80339e-20 
            318     2.78207e-19 
            328     2.38734e-18 
            338     1.79408e-17 
            348     1.19554e-16 
            357     5.99018e-16 
            366     2.76948e-15 
            375     1.18448e-14 
            385     5.48224e-14 
            395     2.33943e-13 
            405     9.26728e-13 
            414     3.01676e-12 
            422      8.2376e-12 
            430       2.164e-11 
            441     7.69417e-11 
            451     2.30389e-10 
            460     5.92779e-10 
            470      1.62183e-9 
            480      4.24556e-9 
            490      1.06791e-8 
            500       2.5818e-8 
            506      7.49174e-8 
            512      1.47117e-7 
            520      2.80109e-7 
            530      6.16219e-7 
            540      1.28385e-6 
            550      2.65292e-6 
            560       5.2789e-6 
            570      1.02357e-5 
            580       1.9094e-5 
            590      3.58147e-5 
            600      6.47828e-5 
            610      0.00011474 
            620     0.000199233 
            630     0.000339512 
            640     0.000568442 
            650     0.000935537 
            658      0.00137731 
            665      0.00191625 
            675      0.00303302 
            685      0.00473151 
            695      0.00727931 
            705       0.0110519 
            716       0.0172449 
            726        0.025516 
            735       0.0359494 
            745       0.0520705 
            755       0.0746222 
            765        0.105862 
            775        0.148754 
            785        0.207077 
            795        0.285671 
            805        0.390691 
            815        0.529869 
            825         0.71297 
            835        0.952002 
            845         1.26184 
            855         1.66049 
            865         2.17007 
            875         2.81726 
            885         3.63524 
            895          4.6617 
            905         5.94239 
            915         16.8515 
            925         68.9241 
            935           111.8 
            945         196.923 
            955         318.431 
            965         372.002 
            975          256.65 
            985         935.781 
            995          1659.7 
           1005         1110.21 
           1015         686.741 
           1025         575.193 
           1035            1088 
           1045         2709.91 
           1055         69102.7 
           1065          724678 
           1075      1.78705e+6 
           1085      2.90548e+6 
           1095       2.9142e+6 
           1105      2.75954e+6 
           1115      2.14658e+6 
           1125      1.43173e+6 
           1135          951427 
           1145          394423 
           1155          100295 
           1165         13339.9 
           1175         5417.26 
           1185         38968.1 
           1195         6241.52 
           1205         4622.64 
           1215         3096.83 
           1225         5372.43 
           1235         9310.64 
           1245         4709.04 
           1255         9791.46 
           1265         16813.7 
           1275         48429.9 
           1285          331276 
           1295          718898 
           1305      1.56328e+6 
           1315      2.42478e+6 
           1325      3.66038e+6 
           1335       4.7601e+6 
           1345      6.19898e+6 
           1355      7.22568e+6 
           1365      8.54201e+6 
           1375      8.74779e+6 
           1385      8.48838e+6 
           1395      8.44204e+6 
           1405      1.14351e+7 
           1415      1.53322e+7 
           1425       1.6386e+7 
           1435      1.71068e+7 
           1442      1.82788e+7 
           1447      1.80303e+7 
           1455      1.92135e+7 
           1465      1.88977e+7 
           1475      1.99912e+7 
           1485      2.02508e+7 
           1495       2.0891e+7 
           1505      2.15424e+7 
           1512      2.19877e+7 
           1517      2.13339e+7 
           1525      2.18995e+7 
           1535      2.17446e+7 
           1545      2.17828e+7 
           1555      2.16345e+7 
           1565      2.00714e+7 
           1575      2.07453e+7 
           1585      2.03464e+7 
           1595       2.0517e+7 
           1605      2.01189e+7 
           1615      2.16731e+7 
           1625      2.27639e+7 
           1635      2.41591e+7 
           1645      2.56469e+7 
           1655      2.47052e+7 
           1665       2.6869e+7 
           1672      2.63588e+7 
           1677      2.69185e+7 
           1685      2.72739e+7 
           1695      2.70973e+7 
           1705      2.69203e+7 
           1715      2.72938e+7 
           1725      2.71644e+7 
           1735      2.74879e+7 
           1745      2.71119e+7 
           1755      2.72735e+7 
           1765      2.71709e+7 
           1775      2.72124e+7 
           1785      2.69497e+7 
           1795      2.71355e+7 
           1805       2.6668e+7 
           1815      2.66837e+7 
           1825      2.65618e+7 
           1835      2.66893e+7 
           1845      2.63908e+7 
           1855      2.65285e+7 
           1865      2.65123e+7 
           1875      2.64521e+7 
           1885      2.63906e+7 
           1895        2.633e+7 
           1905      2.61529e+7 
           1915      2.61537e+7 
           1925      2.61186e+7 
           1935      2.56994e+7 
           1945      2.59865e+7 
           1955      2.59086e+7 
           1967      2.58369e+7 
           1976      2.57545e+7 
           1984      2.56898e+7 
           1995      2.56477e+7 
           2005      2.55228e+7 
           2015      2.53759e+7 
           2025      2.52912e+7 
           2035      2.53471e+7 
           2045      2.52728e+7 
           2055      2.49454e+7 
           2065      2.49676e+7 
           2074      2.51236e+7 
           2078      2.51046e+7 
           2085      2.50516e+7 
           2095      2.49898e+7 
           2105      2.49349e+7 
           2115      2.48647e+7 
           2125      2.47698e+7 
           2135      2.47176e+7 
           2145      2.47194e+7 
           2155      2.46447e+7 
           2165      2.44039e+7 
           2175      2.44308e+7 
           2185      2.44736e+7 
           2195      2.44896e+7 
           2205      2.43346e+7 
           2215      2.40793e+7 
           2225       2.4113e+7 
           2235      2.42951e+7 
           2245      2.42085e+7 
           2255      2.40046e+7 
           2265      2.38666e+7 
           2275      2.40292e+7 
           2285      2.40055e+7 
           2295      2.38983e+7 
           2305      2.39509e+7 
           2315      2.38899e+7 
           2325      2.38479e+7 
           2335      2.35557e+7 
           2345      2.30366e+7 
           2355      2.35764e+7 
           2365      2.30279e+7 
           2375      2.34094e+7 
           2385      2.27598e+7 
           2395      2.32736e+7 
           2405      2.32635e+7 
           2415      2.32269e+7 
           2425      2.36078e+7 
           2435      2.35064e+7 
           2445       2.3474e+7 
           2455      2.35356e+7 
           2465      2.34182e+7 
           2475      2.34053e+7 
           2485      2.33631e+7 
           2495      2.32131e+7 
           2505      2.34124e+7 
           2513      2.32373e+7 
           2518      2.32723e+7 
           2525      2.31735e+7 
           2535      2.30215e+7 
           2545       2.3208e+7 
           2555      2.33406e+7 
           2565      2.30811e+7 
           2575      2.31715e+7 
           2585      2.31217e+7 
           2595      2.30602e+7 
           2605      2.29884e+7 
           2615      2.29314e+7 
           2625      2.29281e+7 
           2635      2.29856e+7 
           2645      2.33355e+7 
           2655      2.33172e+7 
           2665      2.32353e+7 
           2675      2.32457e+7 
           2685      2.32814e+7 
           2695      2.32495e+7 
           2705      2.32473e+7 
           2715       2.3128e+7 
           2725      2.30813e+7 
           2735      2.31062e+7 
           2745      2.26397e+7 
           2755      2.27665e+7 
           2765      2.30308e+7 
           2775      2.31748e+7 
           2785      2.31515e+7 
           2795      2.24306e+7 
           2805      2.27971e+7 
           2815       2.3156e+7 
           2825      2.31425e+7 
           2835      2.30836e+7 
           2845      2.30929e+7 
           2855      2.29693e+7 
           2865      2.30438e+7 
           2875      2.30628e+7 
           2885      2.30427e+7 
           2895      2.30698e+7 
           2910      2.30653e+7 
           2930      2.29849e+7 
           2950      2.29622e+7 
           2970      2.29897e+7 
           2990      2.29592e+7 
           3010      2.29611e+7 
           3030      2.29417e+7 
           3050      2.29172e+7 
           3070      2.28726e+7 
           3090      2.28695e+7 
           3110      2.28439e+7 
           3130      2.28147e+7 
           3150      2.27841e+7 
           3170      2.27644e+7 
           3190      2.27105e+7 
           3210      2.27077e+7 
           3230      2.26433e+7 
           3250      2.26487e+7 
           3270      2.26332e+7 
           3290      2.26067e+7 
           3310      2.25767e+7 
           3330      2.25347e+7 
           3350      2.24859e+7 
           3370       2.2459e+7 
           3390      2.24292e+7 
           3410      2.24082e+7 
           3430      2.23715e+7 
           3450      2.23347e+7 
           3470      2.22958e+7 
           3490      2.22578e+7 
           3510      2.22186e+7 
           3530      2.21789e+7 
           3550      2.21374e+7 
           3570      2.20938e+7 
           3590      2.20505e+7 
           3610      2.20072e+7 
           3630      2.19612e+7 
           3640      2.19374e+7 
           3650      2.20396e+7 
           3670      2.17648e+7 
           3690      2.18317e+7 
           3710      2.66016e+7 
           3730      3.23606e+7 
           3750      4.68417e+7 
           3770      5.05366e+7 
           3790      6.17361e+7 
           3810      7.18937e+7 
           3830      5.70735e+7 
           3850      7.86042e+7 
           3870      8.68166e+7 
           3890      4.89606e+7 
           3910      8.53353e+7 
           3930      8.78057e+7 
           3950      8.38403e+7 
           3970      4.68638e+7 
           3990      8.00592e+7 
           4010      8.48315e+7 
           4030      8.41911e+7 
           4050      8.30975e+7 
           4070      8.09683e+7 
           4090      6.58642e+7 
           4110      5.01061e+7 
           4130      7.69962e+7 
           4150      7.79117e+7 
           4170      7.72702e+7 
           4190      7.65021e+7 
           4210      7.55708e+7 
           4230      7.46241e+7 
           4250      7.36627e+7 
           4270      7.25776e+7 
           4290      7.14214e+7 
           4310      6.93445e+7 
           4330      5.42904e+7 
           4350      4.58805e+7 
           4370      6.63526e+7 
           4390      6.70963e+7 
           4410      6.65995e+7 
           4430      6.59822e+7 
           4450      6.52135e+7 
           4470      6.43918e+7 
           4490      6.36625e+7 
           4510      6.29213e+7 
           4530      6.21797e+7 
           4550      6.14468e+7 
           4570      6.07316e+7 
           4590      6.00246e+7 
           4610      5.93312e+7 
           4630       5.8644e+7 
           4650      5.79682e+7 
           4670      5.73034e+7 
           4690      5.66462e+7 
           4710      5.59929e+7 
           4730      5.53638e+7 
           4750      5.47366e+7 
           4770      5.40633e+7 
           4790      5.33287e+7 
           4810      5.25051e+7 
           4830      5.09731e+7 
           4850      4.16681e+7 
           4870      3.35559e+7 
           4890      4.86113e+7 
           4910      4.95584e+7 
           4930      4.92905e+7 
           4950      4.88883e+7 
           4970      4.84194e+7 
           4990      4.78944e+7 
           5010      4.73702e+7 
           5030      4.68647e+7 
           5050      4.63612e+7 
           5070      4.58643e+7 
           5090      4.53752e+7 
           5110      4.48923e+7 
           5130      4.44169e+7 
           5150      4.39476e+7 
           5170      4.34772e+7 
           5190      4.30239e+7 
           5210      4.25776e+7 
           5230      4.21328e+7 
           5250      4.16948e+7 
           5270      4.12623e+7 
           5290      4.08364e+7 
           5310      4.04158e+7 
           5330      4.00004e+7 
           5350      3.95913e+7 
           5370      3.91872e+7 
           5390      3.87893e+7 
           5410      3.83962e+7 
           5430      3.80078e+7 
           5450      3.76241e+7 
           5470      3.72462e+7 
           5490      3.68741e+7 
           5510      3.65052e+7 
           5530      3.61418e+7 
           5550      3.57839e+7 
           5570      3.54291e+7 
           5590      3.50796e+7 
           5610      3.47353e+7 
           5630      3.43951e+7 
           5650      3.40588e+7 
           5670      3.37263e+7 
           5690      3.33989e+7 
           5710      3.30752e+7 
           5730      3.27552e+7 
           5750        3.244e+7 
           5770      3.21284e+7 
           5790      3.18203e+7 
           5810      3.15168e+7 
           5830      3.12167e+7 
           5850      3.09199e+7 
           5870      3.06178e+7 
           5890      3.03374e+7 
           5910      3.00526e+7 
           5930       2.9771e+7 
           5950      2.94924e+7 
           5970      2.92169e+7 
           5990      2.89445e+7 
           6010       2.8676e+7 
           6030      2.84105e+7 
           6050      2.81488e+7 
           6070       2.7889e+7 
           6090       2.7634e+7 
           6110      2.73807e+7 
           6130      2.71312e+7 
           6150      2.68843e+7 
           6170        2.664e+7 
           6190      2.63993e+7 
           6210      2.61612e+7 
           6230      2.59255e+7 
           6250      2.56923e+7 
           6270      2.54626e+7 
           6290      2.52352e+7 
           6310      2.50102e+7 
           6330      2.47885e+7 
           6350      2.45681e+7 
           6370      2.43509e+7 
           6390      2.41369e+7 
           6410      2.39242e+7 
           6430      2.37136e+7 
           6450      2.35061e+7 
           6470       2.3271e+7 
           6490      2.30178e+7 
           6510      2.27335e+7 
           6530      2.22322e+7 
           6550      1.98347e+7 
           6570      1.58608e+7 
           6590      2.12237e+7 
           6610       2.1693e+7 
           6630      2.16412e+7 
           6650      2.15061e+7 
           6670      2.13689e+7 
           6690      2.11874e+7 
           6710      2.10094e+7 
           6730      2.08315e+7 
           6750      2.06561e+7 
           6770      2.04825e+7 
           6790      2.03105e+7 
           6810      2.01402e+7 
           6830      1.99716e+7 
           6850      1.98053e+7 
           6870      1.96407e+7 
           6890      1.94776e+7 
           6910      1.93161e+7 
           6930       1.9157e+7 
           6950      1.89993e+7 
           6970      1.88431e+7 
           6990      1.86884e+7 
           7010      1.85351e+7 
           7030      1.83841e+7 
           7050      1.82345e+7 
           7070      1.80862e+7 
           7090      1.79394e+7 
           7110      1.77946e+7 
           7130      1.76504e+7 
           7150      1.75084e+7 
           7170      1.73676e+7 
           7190      1.72288e+7 
           7210      1.70906e+7 
           7230      1.69544e+7 
           7250      1.68194e+7 
           7270      1.66857e+7 
           7290      1.65531e+7 
           7310      1.64218e+7 
           7330      1.62923e+7 
           7350       1.6164e+7 
           7370      1.60369e+7 
           7390      1.59109e+7 
           7410       1.5786e+7 
           7430      1.56629e+7 
           7450      1.55402e+7 
           7470      1.54193e+7 
           7490      1.52995e+7 
           7510      1.51814e+7 
           7530      1.50636e+7 
           7550      1.49476e+7 
           7570      1.48325e+7 
           7590      1.47185e+7 
           7610      1.46055e+7 
           7630      1.44934e+7 
           7650       1.4383e+7 
           7670      1.42735e+7 
           7690      1.41649e+7 
           7710      1.40573e+7 
           7730      1.39506e+7 
           7750      1.38455e+7 
           7770      1.37387e+7 
           7790      1.36372e+7 
           7810      1.35347e+7 
           7830      1.34331e+7 
           7850      1.33329e+7 
           7870       1.3233e+7 
           7890      1.31346e+7 
           7910      1.30369e+7 
           7930      1.29401e+7 
           7950      1.28441e+7 
           7970      1.27488e+7 
           7990       1.2655e+7 
           8010      1.25619e+7 
           8030      1.24696e+7 
           8050      1.23781e+7 
           8070      1.22873e+7 
           8090      1.21973e+7 
           8110      1.21086e+7 
           8130        1.202e+7 
           8150      1.19327e+7 
           8170      1.18461e+7 
           8190      1.17603e+7 
           8210      1.17103e+7 
           8230      1.16329e+7 
           8250      1.15583e+7 
           8270      1.14832e+7 
           8290      1.14043e+7 
           8310      1.13178e+7 
           8330       1.1219e+7 
           8350       1.1127e+7 
           8370      1.09641e+7 
           8390      1.08723e+7 
           8410       1.0736e+7 
           8430      1.07922e+7 
           8450      1.07607e+7 
           8470      1.02174e+7 
           8490      1.09914e+7 
           8510      9.99929e+6 
           8530      1.11159e+7 
           8550      9.57252e+6 
           8570      1.13006e+7 
