# Kurucz ODFNEW /NOVER (2003)
# teff = 7500 K (value for the effective temperature for the model. Temperatures are given in K)
# logg = 5 log(cm/s2) (value for Log(G) for the model.)
# meta = -2  (value for the Metallicity for the model.)
# lh = 1.25  (l/Hp where l is the  mixing length of the convective element and Hp is the pressure scale height)
# vtur = 2 km/s (Microturbulence velocity)
# alpha = 0  (Alpha)
#
# column 1: WAVELENGTH (ANGSTROM), Wavelength in Angstrom
# column 2: FLUX (ERG/CM2/S/A), Flux in erg/cm2/s/A
            318     3.72162e-23 
            328     5.12967e-22 
            338     5.25404e-21 
            348     2.53113e-21 
            357     1.47814e-20 
            366     7.88664e-20 
            375     3.86012e-19 
            385     2.05507e-18 
            395     9.99091e-18 
            405     4.46976e-17 
            414     1.61191e-16 
            422      4.7968e-16 
            430     1.36678e-15 
            441     5.39618e-15 
            451     1.76551e-14 
            460     4.89357e-14 
            470     1.44632e-13 
            480     4.06897e-13 
            490     1.09415e-12 
            500     2.81583e-12 
            506     6.44058e-12 
            512     1.23923e-11 
            520     2.46532e-11 
            530     5.68487e-11 
            540     1.24597e-10 
            550     2.68069e-10 
            560     5.56204e-10 
            570      1.12177e-9 
            580      2.17717e-9 
            590      4.21567e-9 
            600      7.87678e-9 
            610      1.43848e-8 
            620      2.57027e-8 
            630      4.49883e-8 
            640      7.72516e-8 
            650      1.30201e-7 
            658      1.95159e-7 
            665       2.7558e-7 
            675      4.44874e-7 
            685      7.06844e-7 
            695      1.10619e-6 
            705      1.70619e-6 
            716      2.70494e-6 
            726      4.05537e-6 
            735      5.77739e-6 
            745      8.46415e-6 
            755      1.22564e-5 
            765      1.75501e-5 
            775      2.48621e-5 
            785      3.48598e-5 
            795      4.83858e-5 
            805      6.65471e-5 
            815       9.0685e-5 
            825     0.000122507 
            835      0.00016413 
            845      0.00021811 
            855     0.000287572 
            865     0.000376304 
            875     0.000488802 
            885     0.000630636 
            895     0.000808038 
            905      0.00102859 
            915         0.69206 
            925         4.96347 
            935         8.81725 
            945         15.5585 
            955         21.8171 
            965         29.3009 
            975         25.6123 
            985         47.2317 
            995         57.7371 
           1005         71.0024 
           1015         76.5691 
           1025         59.5596 
           1035         113.192 
           1045         152.996 
           1055         177.583 
           1065          217.31 
           1075         260.846 
           1085          315.64 
           1095         362.803 
           1105         472.923 
           1115         608.749 
           1125         692.066 
           1135         846.031 
           1145         968.989 
           1155         1049.46 
           1165         1198.87 
           1175         1293.92 
           1185         1452.48 
           1195         1155.52 
           1205         841.867 
           1215         308.483 
           1225         970.452 
           1235         1946.65 
           1245         2084.25 
           1255         3364.92 
           1265         4032.79 
           1275         4812.17 
           1285         6074.53 
           1295         7163.82 
           1305         8431.49 
           1315         9775.83 
           1325         11260.7 
           1335           12767 
           1345         14766.6 
           1355         16472.2 
           1365         18962.4 
           1375         20964.3 
           1385         22974.3 
           1395         25635.1 
           1405         27880.3 
           1415         31879.2 
           1425         33991.7 
           1435         37072.4 
           1442         41130.4 
           1447           40978 
           1455         45269.3 
           1465         47103.8 
           1475         51951.2 
           1485         56209.8 
           1495           61670 
           1505         67481.2 
           1512           71434 
           1517         70973.7 
           1525         75693.4 
           1535         80552.6 
           1545         84102.7 
           1555         88024.1 
           1565         87705.7 
           1575         96263.5 
           1585          101945 
           1595          108785 
           1605          114650 
           1615          127612 
           1625          144008 
           1635          174651 
           1645          276085 
           1655          452676 
           1665      1.49796e+6 
           1672      2.08714e+6 
           1677       3.2964e+6 
           1685      4.90851e+6 
           1695      6.21696e+6 
           1705      8.27242e+6 
           1715      1.03427e+7 
           1725      1.13125e+7 
           1735      1.29342e+7 
           1745      1.30326e+7 
           1755       1.4307e+7 
           1765      1.27704e+7 
           1775      1.45114e+7 
           1785      1.49818e+7 
           1795      1.61132e+7 
           1805        1.549e+7 
           1815      1.57898e+7 
           1825      1.52371e+7 
           1835      1.61008e+7 
           1845      1.48422e+7 
           1855      1.58135e+7 
           1865      1.67178e+7 
           1875      1.67607e+7 
           1885       1.6965e+7 
           1895      1.75638e+7 
           1905      1.71546e+7 
           1915      1.80885e+7 
           1925      1.86574e+7 
           1935      1.75947e+7 
           1945      1.90813e+7 
           1955      1.91715e+7 
           1967      1.99236e+7 
           1976      1.93142e+7 
           1984      1.93444e+7 
           1995      1.95387e+7 
           2005      1.89254e+7 
           2015      1.94079e+7 
           2025      1.83265e+7 
           2035      2.01054e+7 
           2045      2.07614e+7 
           2055      2.03591e+7 
           2065      2.03285e+7 
           2074       2.1531e+7 
           2078      2.14595e+7 
           2085      2.13391e+7 
           2095      2.10269e+7 
           2105      2.08097e+7 
           2115      2.13233e+7 
           2125      2.14894e+7 
           2135      2.04422e+7 
           2145      2.17021e+7 
           2155      2.14225e+7 
           2165      2.06946e+7 
           2175      2.08352e+7 
           2185      2.15714e+7 
           2195      2.24957e+7 
           2205      2.19512e+7 
           2215      2.09887e+7 
           2225      2.17562e+7 
           2235      2.32242e+7 
           2245      2.23293e+7 
           2255      2.14398e+7 
           2265      2.08389e+7 
           2275      2.20464e+7 
           2285      2.24239e+7 
           2295      2.16066e+7 
           2305      2.22583e+7 
           2315      2.23856e+7 
           2325      2.23147e+7 
           2335      2.23347e+7 
           2345      2.05594e+7 
           2355      2.29202e+7 
           2365      2.13063e+7 
           2375      2.23281e+7 
           2385      2.01299e+7 
           2395      2.19186e+7 
           2405      2.17003e+7 
           2415      2.17832e+7 
           2425      2.30248e+7 
           2435      2.23875e+7 
           2445       2.2869e+7 
           2455      2.28024e+7 
           2465      2.25787e+7 
           2475      2.19901e+7 
           2485      2.20563e+7 
           2495      2.17177e+7 
           2505      2.34634e+7 
           2513      2.21253e+7 
           2518      2.16733e+7 
           2525      2.09748e+7 
           2535      2.10254e+7 
           2545      2.08198e+7 
           2555      2.24323e+7 
           2565      2.24994e+7 
           2575      2.35289e+7 
           2585      2.37751e+7 
           2595      2.36896e+7 
           2605        2.311e+7 
           2615      2.27738e+7 
           2625      2.35601e+7 
           2635      2.37354e+7 
           2645      2.55325e+7 
           2655      2.55335e+7 
           2665      2.44601e+7 
           2675      2.49973e+7 
           2685      2.55691e+7 
           2695      2.46759e+7 
           2705      2.47816e+7 
           2715       2.3824e+7 
           2725      2.39108e+7 
           2735      2.44509e+7 
           2745      2.25597e+7 
           2755       2.3107e+7 
           2765      2.41923e+7 
           2775      2.47917e+7 
           2785      2.43837e+7 
           2795      1.96678e+7 
           2805      2.16805e+7 
           2815      2.56876e+7 
           2825      2.54608e+7 
           2835      2.50255e+7 
           2845       2.4633e+7 
           2855      2.31107e+7 
           2865      2.46602e+7 
           2875      2.45683e+7 
           2885      2.50107e+7 
           2895      2.52351e+7 
           2910       2.5804e+7 
           2930      2.52431e+7 
           2950      2.49362e+7 
           2970      2.50512e+7 
           2990       2.5056e+7 
           3010      2.50148e+7 
           3030      2.50882e+7 
           3050      2.51563e+7 
           3070      2.51986e+7 
           3090      2.51165e+7 
           3110      2.50636e+7 
           3130      2.51173e+7 
           3150      2.52227e+7 
           3170      2.51653e+7 
           3190      2.45386e+7 
           3210      2.46795e+7 
           3230      2.43224e+7 
           3250      2.46532e+7 
           3270      2.49564e+7 
           3290      2.49786e+7 
           3310      2.49545e+7 
           3330      2.46543e+7 
           3350      2.43866e+7 
           3370       2.4311e+7 
           3390      2.41676e+7 
           3410      2.42828e+7 
           3430        2.423e+7 
           3450       2.4011e+7 
           3470      2.39675e+7 
           3490      2.39964e+7 
           3510      2.40408e+7 
           3530      2.39106e+7 
           3550       2.3969e+7 
           3570       2.3551e+7 
           3590      2.34592e+7 
           3610      2.34072e+7 
           3630      2.34668e+7 
           3640      2.34938e+7 
           3650      2.35635e+7 
           3670      2.36621e+7 
           3690      2.29876e+7 
           3710      2.27487e+7 
           3730      2.15352e+7 
           3750      2.40818e+7 
           3770      2.45489e+7 
           3790      2.76775e+7 
           3810      3.08939e+7 
           3830       2.5749e+7 
           3850      3.30815e+7 
           3870      3.54999e+7 
           3890      2.43528e+7 
           3910      3.56077e+7 
           3930       3.5817e+7 
           3950       3.5716e+7 
           3970      2.37092e+7 
           3990      3.48993e+7 
           4010      3.74103e+7 
           4030      3.75688e+7 
           4050      3.72055e+7 
           4070      3.58856e+7 
           4090       3.0894e+7 
           4110      2.53062e+7 
           4130      3.50382e+7 
           4150      3.60225e+7 
           4170      3.62086e+7 
           4190       3.5911e+7 
           4210      3.56429e+7 
           4230      3.52308e+7 
           4250       3.5144e+7 
           4270      3.47205e+7 
           4290      3.44057e+7 
           4310      3.30813e+7 
           4330      2.76646e+7 
           4350      2.44205e+7 
           4370      3.24691e+7 
           4390       3.3165e+7 
           4410         3.32e+7 
           4430      3.32387e+7 
           4450      3.30339e+7 
           4470      3.28502e+7 
           4490      3.26834e+7 
           4510      3.25164e+7 
           4530      3.22189e+7 
           4550      3.19781e+7 
           4570      3.18558e+7 
           4590      3.16074e+7 
           4610      3.14241e+7 
           4630      3.11884e+7 
           4650      3.09851e+7 
           4670      3.07877e+7 
           4690      3.05445e+7 
           4710      3.02228e+7 
           4730      3.00806e+7 
           4750      2.98512e+7 
           4770      2.95964e+7 
           4790       2.9289e+7 
           4810      2.88489e+7 
           4830      2.79048e+7 
           4850      2.39002e+7 
           4870      2.02892e+7 
           4890       2.6876e+7 
           4910      2.77483e+7 
           4930      2.77282e+7 
           4950      2.77122e+7 
           4970      2.76345e+7 
           4990      2.74315e+7 
           5010      2.72115e+7 
           5030      2.71236e+7 
           5050       2.6915e+7 
           5070      2.67559e+7 
           5090       2.6562e+7 
           5110      2.63848e+7 
           5130      2.61881e+7 
           5150      2.59822e+7 
           5170      2.55265e+7 
           5190       2.5442e+7 
           5210      2.54011e+7 
           5230      2.52058e+7 
           5250      2.51262e+7 
           5270       2.4826e+7 
           5290      2.47638e+7 
           5310       2.4591e+7 
           5330      2.43471e+7 
           5350       2.4251e+7 
           5370      2.40459e+7 
           5390      2.38898e+7 
           5410       2.3689e+7 
           5430      2.35506e+7 
           5450      2.33857e+7 
           5470       2.3244e+7 
           5490      2.30962e+7 
           5510      2.29387e+7 
           5530      2.27706e+7 
           5550      2.26252e+7 
           5570      2.24508e+7 
           5590      2.22857e+7 
           5610      2.21402e+7 
           5630      2.20022e+7 
           5650      2.18502e+7 
           5670       2.1694e+7 
           5690      2.15488e+7 
           5710      2.13969e+7 
           5730       2.1257e+7 
           5750      2.11071e+7 
           5770      2.09622e+7 
           5790      2.08176e+7 
           5810      2.06756e+7 
           5830       2.0534e+7 
           5850      2.03895e+7 
           5870      2.02497e+7 
           5890      1.99951e+7 
           5910      1.99732e+7 
           5930      1.98366e+7 
           5950      1.97013e+7 
           5970      1.95664e+7 
           5990      1.94318e+7 
           6010      1.92985e+7 
           6030      1.91644e+7 
           6050      1.90379e+7 
           6070      1.89086e+7 
           6090      1.87785e+7 
           6110      1.86497e+7 
           6130      1.85102e+7 
           6150       1.8391e+7 
           6170      1.82551e+7 
           6190      1.81492e+7 
           6210      1.80266e+7 
           6230      1.79013e+7 
           6250      1.77725e+7 
           6270      1.76641e+7 
           6290      1.75452e+7 
           6310      1.74228e+7 
           6330      1.73063e+7 
           6350       1.7191e+7 
           6370      1.70757e+7 
           6390      1.69598e+7 
           6410      1.68376e+7 
           6430      1.66966e+7 
           6450      1.65606e+7 
           6470      1.64296e+7 
           6490      1.62641e+7 
           6510      1.60514e+7 
           6530      1.56193e+7 
           6550      1.40901e+7 
           6570      1.17571e+7 
           6590      1.49493e+7 
           6610      1.54323e+7 
           6630      1.55005e+7 
           6650      1.54653e+7 
           6670       1.5393e+7 
           6690      1.53104e+7 
           6710      1.52393e+7 
           6730      1.51439e+7 
           6750      1.50427e+7 
           6770      1.49458e+7 
           6790       1.4848e+7 
           6810      1.47496e+7 
           6830      1.46528e+7 
           6850      1.45569e+7 
           6870      1.44619e+7 
           6890      1.43686e+7 
           6910      1.42745e+7 
           6930       1.4182e+7 
           6950      1.40896e+7 
           6970       1.3998e+7 
           6990      1.39072e+7 
           7010      1.38157e+7 
           7030      1.37265e+7 
           7050      1.36389e+7 
           7070      1.35505e+7 
           7090      1.34629e+7 
           7110      1.33724e+7 
           7130      1.32886e+7 
           7150      1.32026e+7 
           7170       1.3118e+7 
           7190      1.30335e+7 
           7210      1.29497e+7 
           7230      1.28681e+7 
           7250      1.27864e+7 
           7270      1.27047e+7 
           7290      1.26217e+7 
           7310      1.25428e+7 
           7330      1.24618e+7 
           7350      1.23844e+7 
           7370      1.23054e+7 
           7390      1.22258e+7 
           7410      1.21455e+7 
           7430      1.20706e+7 
           7450      1.19951e+7 
           7470      1.19188e+7 
           7490      1.18424e+7 
           7510      1.17688e+7 
           7530      1.16957e+7 
           7550      1.16226e+7 
           7570      1.15494e+7 
           7590      1.14769e+7 
           7610      1.14049e+7 
           7630      1.13335e+7 
           7650      1.12621e+7 
           7670        1.119e+7 
           7690      1.11217e+7 
           7710       1.1052e+7 
           7730      1.09848e+7 
           7750       1.0915e+7 
           7770      1.08358e+7 
           7790      1.07815e+7 
           7810      1.07146e+7 
           7830      1.06471e+7 
           7850      1.05819e+7 
           7870      1.05166e+7 
           7890      1.04518e+7 
           7910      1.03882e+7 
           7930      1.03215e+7 
           7950      1.02589e+7 
           7970      1.01986e+7 
           7990      1.01358e+7 
           8010      1.00729e+7 
           8030      1.00123e+7 
           8050      9.95097e+6 
           8070      9.89072e+6 
           8090      9.82979e+6 
           8110      9.77105e+6 
           8130      9.71164e+6 
           8150      9.65269e+6 
           8170       9.5942e+6 
           8190      9.52887e+6 
           8210      9.48026e+6 
           8230        9.422e+6 
           8250      9.36863e+6 
           8270      9.31676e+6 
           8290      9.26199e+6 
           8310       9.2071e+6 
           8330      9.14502e+6 
           8350      9.09965e+6 
           8370      9.04546e+6 
           8390      8.98793e+6 
           8410      8.93511e+6 
           8430      8.88269e+6 
           8450      8.82645e+6 
           8470      8.75646e+6 
           8490      8.73198e+6 
           8510      8.57498e+6 
           8530      8.63526e+6 
           8550      8.37331e+6 
           8570      8.55587e+6 
           8590       8.3966e+6 
           8610      8.31241e+6 
           8630      8.43579e+6 
           8650      8.31375e+6 
           8670      7.85245e+6 
           8690      8.26583e+6 
           8710      8.28502e+6 
           8730      8.15664e+6 
           8750      7.51712e+6 
           8770      7.97269e+6 
           8790      8.11685e+6 
           8810      8.08878e+6 
           8830      8.00483e+6 
           8850      7.65652e+6 
           8870      7.06707e+6 
           8890      7.77749e+6 
           8910      7.87501e+6 
           8930       7.8686e+6 
           8950      7.82877e+6 
           8970      7.74567e+6 
           8990      7.56068e+6 
           9010      6.72061e+6 
           9030      7.08173e+6 
           9050       7.4902e+6 
           9070      7.53826e+6 
           9090      7.51561e+6 
           9110      7.50943e+6 
           9130      7.47566e+6 
           9150      7.42547e+6 
           9170      7.35817e+6 
           9190      7.24812e+6 
           9210      6.97951e+6 
           9230      6.03702e+6 
           9250      6.82813e+6 
           9270      7.06832e+6 
           9290      7.11125e+6 
           9310      7.10246e+6 
           9330      7.07637e+6 
           9350      7.04398e+6 
