# Kurucz ODFNEW /NOVER (2003)
# teff = 27000 K (value for the effective temperature for the model. Temperatures are given in K)
# logg = 4.5 log(cm/s2) (value for Log(G) for the model.)
# meta = -1.5  (value for the Metallicity for the model.)
# lh = 1.25  (l/Hp where l is the  mixing length of the convective element and Hp is the pressure scale height)
# vtur = 2 km/s (Microturbulence velocity)
# alpha = 0  (Alpha)
#
# column 1: WAVELENGTH (ANGSTROM), Wavelength in Angstrom
# column 2: FLUX (ERG/CM2/S/A), Flux in erg/cm2/s/A
          147.2     6.26803e-12 
            151     2.58494e-11 
          155.2     1.14372e-10 
          158.8      3.8488e-10 
            162      1.08264e-9 
            166      3.73052e-9 
          170.3      1.32235e-8 
          173.4      3.16656e-8 
          176.8      7.96407e-8 
          180.2      1.93388e-7 
          181.7       2.8299e-7 
          186.1      8.34276e-7 
            191      2.61968e-6 
          193.9      5.01478e-6 
          198.4      1.32143e-5 
          201.8      2.66807e-5 
            205      5.05817e-5 
          210.5     0.000144995 
          216.2     0.000407304 
          219.8     0.000759845 
            223      0.00129968 
          226.8      0.00240854 
            230       0.0881575 
            234        0.203687 
            240        0.444658 
          246.5        0.994613 
          252.4         2.01298 
          256.8         3.08364 
            260         4.66253 
            264         7.05881 
          268.5         11.1651 
          273.5         18.1943 
          278.5         29.1476 
            284         48.1094 
            290         80.7258 
            296          132.39 
            301         195.215 
            308         315.151 
            318         690.358 
            328         1340.42 
            338         2533.11 
            348         4565.09 
            357         7600.86 
            366         12316.6 
            375         19045.8 
            385         30659.4 
            395         47684.9 
            405         72392.2 
            414          103968 
            422          139836 
            430          186468 
            441          273577 
            451          380913 
            460          502140 
            470          679000 
            480          900177 
            490      1.18059e+6 
            500      1.53027e+6 
            506      8.60044e+6 
            512      2.92538e+7 
            520      3.32007e+7 
            530      4.04491e+7 
            540      4.18291e+7 
            550      5.34545e+7 
            560      5.91823e+7 
            570      6.79041e+7 
            580      6.71808e+7 
            590       8.1703e+7 
            600      9.12188e+7 
            610      1.02064e+8 
            620      1.10931e+8 
            630      1.22216e+8 
            640      1.28452e+8 
            650      1.41846e+8 
            658       1.5341e+8 
            665       1.6255e+8 
            675       1.7104e+8 
            685      1.81554e+8 
            695       2.0489e+8 
            705      2.14998e+8 
            716       2.3489e+8 
            726      2.48391e+8 
            735      2.64012e+8 
            745      2.84034e+8 
            755      3.01641e+8 
            765      3.19125e+8 
            775      3.39406e+8 
            785      3.60342e+8 
            795      3.76846e+8 
            805      3.96539e+8 
            815      4.13786e+8 
            825      4.37762e+8 
            835      4.42728e+8 
            845      4.73818e+8 
            855      4.92963e+8 
            865      5.17495e+8 
            875      5.43327e+8 
            885      5.67529e+8 
            895      5.89486e+8 
            905      6.04497e+8 
            915      7.82955e+8 
            925      4.21061e+9 
            935     1.06586e+10 
            945     2.72651e+10 
            955     3.62191e+10 
            965     4.75754e+10 
            975      1.8171e+10 
            985       5.087e+10 
            995     4.78777e+10 
           1005      5.0253e+10 
           1015     4.59144e+10 
           1025     1.72852e+10 
           1035     4.08196e+10 
           1045     4.96188e+10 
           1055     4.79515e+10 
           1065     4.33983e+10 
           1075     4.49614e+10 
           1085     4.10387e+10 
           1095      4.3777e+10 
           1105     4.17757e+10 
           1115     4.10479e+10 
           1125     3.78687e+10 
           1135     3.94239e+10 
           1145     3.68906e+10 
           1155     3.74294e+10 
           1165     3.67257e+10 
           1175     3.05286e+10 
           1185     3.44958e+10 
           1195     3.25306e+10 
           1205     2.81738e+10 
           1215     1.19484e+10 
           1225     2.78664e+10 
           1235     3.07934e+10 
           1245     3.01573e+10 
           1255     2.97982e+10 
           1265     2.91289e+10 
           1275     2.89518e+10 
           1285     2.83136e+10 
           1295     2.58832e+10 
           1305     2.59968e+10 
           1315     2.64591e+10 
           1325     2.54561e+10 
           1335     2.44463e+10 
           1345     2.44506e+10 
           1355     2.42716e+10 
           1365     2.33876e+10 
           1375     2.29769e+10 
           1385     2.25461e+10 
           1395     2.08244e+10 
           1405     2.08076e+10 
           1415     2.09756e+10 
           1425     2.04373e+10 
           1435     2.02376e+10 
           1442     2.01413e+10 
           1447     1.98656e+10 
           1455     1.94929e+10 
           1465     1.89819e+10 
           1475     1.86319e+10 
           1485     1.82657e+10 
           1495     1.78789e+10 
           1505     1.72079e+10 
           1512     1.68034e+10 
           1517     1.67747e+10 
           1525     1.65133e+10 
           1535     1.55658e+10 
           1545     1.53809e+10 
           1555     1.48666e+10 
           1565     1.50598e+10 
           1575     1.50055e+10 
           1585     1.47747e+10 
           1595     1.45515e+10 
           1605     1.40083e+10 
           1615     1.37081e+10 
           1625     1.36372e+10 
           1635     1.35297e+10 
           1645     1.30493e+10 
           1655     1.30939e+10 
           1665     1.29227e+10 
           1672     1.26533e+10 
           1677      1.2806e+10 
           1685     1.25586e+10 
           1695     1.22494e+10 
           1705     1.19482e+10 
           1715     1.16178e+10 
           1725     1.14407e+10 
           1735       1.136e+10 
           1745     1.11386e+10 
           1755     1.10244e+10 
           1765     1.06536e+10 
           1775     1.05082e+10 
           1785     1.04234e+10 
           1795     1.03126e+10 
           1805     1.02023e+10 
           1815      9.89631e+9 
           1825      9.79109e+9 
           1835      9.61787e+9 
           1845      9.14901e+9 
           1855      8.96885e+9 
           1865      8.97084e+9 
           1875       8.9666e+9 
           1885      8.48802e+9 
           1895       8.1686e+9 
           1905      8.35516e+9 
           1915      8.05496e+9 
           1925      7.85712e+9 
           1935      7.93549e+9 
           1945      7.94293e+9 
           1955      7.51404e+9 
           1967      7.63344e+9 
           1976      7.69798e+9 
           1984      7.40757e+9 
           1995      7.18176e+9 
           2005      7.23672e+9 
           2015      7.21211e+9 
           2025      7.17395e+9 
           2035      6.93341e+9 
           2045      6.83586e+9 
           2055      6.57894e+9 
           2065       6.5031e+9 
           2074      6.59234e+9 
           2078      6.40009e+9 
           2085      6.40095e+9 
           2095      6.25518e+9 
           2105      6.30599e+9 
           2115      6.25476e+9 
           2125      6.21547e+9 
           2135      6.10771e+9 
           2145      5.97712e+9 
           2155      5.93532e+9 
           2165      5.86028e+9 
           2175      5.76774e+9 
           2185      5.69313e+9 
           2195      5.62863e+9 
           2205      5.54732e+9 
           2215      5.47047e+9 
           2225      5.38716e+9 
           2235      5.30482e+9 
           2245      5.24885e+9 
           2255      5.16372e+9 
           2265      5.10604e+9 
           2275      5.03686e+9 
           2285      4.97173e+9 
           2295      4.82879e+9 
           2305      4.83152e+9 
           2315      4.76154e+9 
           2325      4.69962e+9 
           2335      4.62774e+9 
           2345      4.57684e+9 
           2355      4.52033e+9 
           2365      4.46015e+9 
           2375      4.39783e+9 
           2385      4.33752e+9 
           2395      4.28259e+9 
           2405      4.22783e+9 
           2415      4.17054e+9 
           2425      4.12328e+9 
           2435        4.064e+9 
           2445      4.01513e+9 
           2455      3.96711e+9 
           2465      3.91577e+9 
           2475      3.86531e+9 
           2485      3.81572e+9 
           2495      3.67783e+9 
           2505      3.71661e+9 
           2513      3.64132e+9 
           2518      3.65587e+9 
           2525      3.62653e+9 
           2535      3.58138e+9 
           2545      3.51927e+9 
           2555      3.48866e+9 
           2565       3.4496e+9 
           2575      3.40945e+9 
           2585      3.36812e+9 
           2595      3.32711e+9 
           2605      3.30645e+9 
           2615      3.26677e+9 
           2625       3.2281e+9 
           2635      3.18606e+9 
           2645      3.14705e+9 
           2655      3.10623e+9 
           2665      3.05978e+9 
           2675       3.0211e+9 
           2685      3.00512e+9 
           2695      2.94183e+9 
           2705      2.93109e+9 
           2715      2.89783e+9 
           2725      2.84088e+9 
           2735      2.82941e+9 
           2745      2.79389e+9 
           2755      2.76391e+9 
           2765      2.70937e+9 
           2775      2.70338e+9 
           2785      2.67142e+9 
           2795      2.61598e+9 
           2805      2.60262e+9 
           2815      2.58188e+9 
           2825      2.52417e+9 
           2835      2.49529e+9 
           2845        2.495e+9 
           2855      2.46595e+9 
           2865      2.43922e+9 
           2875      2.41193e+9 
           2885      2.38528e+9 
           2895      2.35854e+9 
           2910      2.31872e+9 
           2930      2.26808e+9 
           2950      2.20124e+9 
           2970      2.17106e+9 
           2990      2.12352e+9 
           3010      2.07698e+9 
           3030      2.03492e+9 
           3050      1.99212e+9 
           3070      1.95042e+9 
           3090       1.9058e+9 
           3110      1.86964e+9 
           3130      1.83206e+9 
           3150      1.79478e+9 
           3170      1.75748e+9 
           3190      1.70645e+9 
           3210      1.68638e+9 
           3230      1.65209e+9 
           3250      1.61902e+9 
           3270      1.58856e+9 
           3290      1.55473e+9 
           3310      1.52674e+9 
           3330      1.49674e+9 
           3350      1.46489e+9 
           3370      1.43923e+9 
           3390      1.41161e+9 
           3410      1.38463e+9 
           3430      1.35169e+9 
           3450      1.32109e+9 
           3470      1.30006e+9 
           3490      1.27552e+9 
           3510      1.25433e+9 
           3530      1.23375e+9 
           3550      1.21118e+9 
           3570      1.19632e+9 
           3590       1.1654e+9 
           3610      1.14804e+9 
           3630      1.12382e+9 
           3640      1.12255e+9 
           3650      1.10159e+9 
           3670      1.08673e+9 
           3690      1.06627e+9 
           3710      1.02995e+9 
           3730      9.88201e+8 
           3750      1.00209e+9 
           3770      9.89555e+8 
           3790      1.03658e+9 
           3810      1.07887e+9 
           3830      9.42511e+8 
           3850      1.10712e+9 
           3870      1.12079e+9 
           3890      8.88366e+8 
           3910      1.10081e+9 
           3930      1.08907e+9 
           3950      1.06508e+9 
           3970      8.25244e+8 
           3990      1.01981e+9 
           4010      1.01819e+9 
           4030      9.55457e+8 
           4050      9.94965e+8 
           4070      9.70474e+8 
           4090      8.86011e+8 
           4110      7.74173e+8 
           4130       9.0977e+8 
           4150       9.0321e+8 
           4170      8.96625e+8 
           4190      8.83687e+8 
           4210       8.6938e+8 
           4230      8.54547e+8 
           4250      8.39494e+8 
           4270      8.22247e+8 
           4290      8.09849e+8 
           4310      7.90913e+8 
           4330      7.10302e+8 
           4350      6.47901e+8 
           4370      7.50188e+8 
           4390      7.23097e+8 
           4410        7.336e+8 
           4430      7.20253e+8 
           4450       7.1151e+8 
           4470      6.66034e+8 
           4490       6.8807e+8 
           4510      6.78536e+8 
           4530      6.67692e+8 
           4550      6.56831e+8 
           4570      6.46333e+8 
           4590      6.36313e+8 
           4610      6.26444e+8 
           4630      6.16702e+8 
           4650      6.05206e+8 
           4670      5.97667e+8 
           4690      5.88299e+8 
           4710      5.71562e+8 
           4730      5.70662e+8 
           4750      5.61609e+8 
           4770      5.54127e+8 
           4790      5.45651e+8 
           4810      5.36042e+8 
           4830      5.24475e+8 
           4850      4.80343e+8 
           4870       4.2934e+8 
           4890      4.99363e+8 
           4910      4.96366e+8 
           4930      4.77606e+8 
           4950      4.84102e+8 
           4970      4.77346e+8 
           4990       4.7038e+8 
           5010      4.57072e+8 
           5030      4.56898e+8 
           5050      4.47422e+8 
           5070      4.43943e+8 
           5090      4.37611e+8 
           5110      4.31393e+8 
           5130      4.25159e+8 
           5150      4.19179e+8 
           5170      4.13419e+8 
           5190      4.07665e+8 
           5210      4.01932e+8 
           5230      3.96399e+8 
           5250      3.90924e+8 
           5270      3.85521e+8 
           5290      3.80228e+8 
           5310      3.75018e+8 
           5330      3.69915e+8 
           5350      3.64851e+8 
           5370      3.59956e+8 
           5390      3.55073e+8 
           5410       3.5029e+8 
           5430      3.45593e+8 
           5450      3.40969e+8 
           5470       3.3644e+8 
           5490      3.31968e+8 
           5510       3.2759e+8 
           5530      3.23266e+8 
           5550      3.19032e+8 
           5570      3.14839e+8 
           5590      3.10733e+8 
           5610      3.06678e+8 
           5630       3.0272e+8 
           5650      2.98764e+8 
           5670      2.94832e+8 
           5690      2.90947e+8 
           5710      2.87411e+8 
           5730      2.83744e+8 
           5750      2.80076e+8 
           5770       2.7661e+8 
           5790      2.73118e+8 
           5810      2.69678e+8 
           5830      2.66268e+8 
           5850      2.62954e+8 
           5870      2.51259e+8 
           5890      2.55854e+8 
           5910      2.53252e+8 
           5930      2.50089e+8 
           5950      2.47006e+8 
           5970      2.44022e+8 
           5990       2.4101e+8 
           6010      2.38084e+8 
           6030      2.35181e+8 
           6050      2.32352e+8 
           6070      2.29545e+8 
           6090      2.26781e+8 
           6110      2.24057e+8 
           6130      2.21374e+8 
           6150      2.18692e+8 
           6170      2.16109e+8 
           6190      2.13564e+8 
           6210      2.11038e+8 
           6230      2.08549e+8 
           6250      2.06088e+8 
           6270      2.03674e+8 
           6290      2.01295e+8 
           6310      1.98942e+8 
           6330      1.96634e+8 
           6350      1.94323e+8 
           6370      1.92093e+8 
           6390      1.89887e+8 
           6410      1.87704e+8 
           6430      1.85563e+8 
           6450      1.83436e+8 
           6470      1.81314e+8 
           6490      1.79259e+8 
           6510      1.77013e+8 
           6530      1.74207e+8 
           6550      1.65725e+8 
           6570      1.47053e+8 
           6590      1.67076e+8 
           6610      1.67007e+8 
           6630      1.65658e+8 
           6650      1.63913e+8 
           6670      1.60273e+8 
           6690      1.58558e+8 
           6710      1.58552e+8 
           6730      1.56796e+8 
           6750      1.55099e+8 
           6770      1.53403e+8 
           6790      1.51675e+8 
           6810      1.50079e+8 
           6830      1.48458e+8 
           6850      1.46854e+8 
           6870      1.45274e+8 
           6890       1.4371e+8 
           6910      1.42169e+8 
           6930      1.40651e+8 
           6950      1.39156e+8 
           6970      1.37677e+8 
           6990      1.36219e+8 
           7010      1.34784e+8 
           7030      1.33362e+8 
           7050      1.31955e+8 
           7070      1.28383e+8 
           7090      1.29211e+8 
           7110      1.27859e+8 
           7130      1.26535e+8 
           7150      1.25217e+8 
           7170      1.23903e+8 
           7190      1.22647e+8 
           7210       1.2138e+8 
           7230      1.19852e+8 
           7250      1.18898e+8 
           7270      1.17696e+8 
           7290      1.15491e+8 
           7310       1.1529e+8 
           7330      1.14143e+8 
           7350      1.12986e+8 
           7370      1.11846e+8 
           7390      1.10724e+8 
           7410      1.09613e+8 
           7430      1.08512e+8 
           7450      1.07448e+8 
           7470      1.06367e+8 
           7490      1.05316e+8 
           7510      1.04235e+8 
           7530      1.03243e+8 
           7550      1.02228e+8 
           7570      1.01222e+8 
           7590      1.00231e+8 
           7610      9.92432e+7 
           7630      9.82771e+7 
           7650      9.73198e+7 
           7670      9.63774e+7 
           7690      9.54436e+7 
           7710      9.45181e+7 
           7730      9.36072e+7 
           7750      9.27044e+7 
           7770      9.17973e+7 
           7790      9.09416e+7 
           7810      9.00194e+7 
           7830      8.92098e+7 
           7850      8.84502e+7 
           7870      8.76058e+7 
           7890      8.67205e+7 
           7910      8.59694e+7 
           7930      8.51589e+7 
           7950      8.43435e+7 
           7970      8.33929e+7 
           7990      8.25983e+7 
           8010      8.18105e+7 
           8030      8.10354e+7 
           8050      8.02903e+7 
           8070       7.9592e+7 
           8090      7.87327e+7 
           8110        7.811e+7 
           8130      7.74469e+7 
           8150      7.66702e+7 
           8170      7.60696e+7 
           8190      7.52716e+7 
           8210      7.43856e+7 
           8230      7.39077e+7 
           8250      7.32619e+7 
           8270       7.2247e+7 
           8290      7.18988e+7 
           8310      7.12859e+7 
           8330      7.06073e+7 
           8350      6.96265e+7 
           8370      6.92458e+7 
           8390      6.87287e+7 
           8410      6.81146e+7 
           8430      6.74578e+7 
           8450      6.63896e+7 
           8470      6.62445e+7 
           8490      6.55042e+7 
           8510      6.49626e+7 
           8530      6.43425e+7 
           8550      6.33822e+7 
           8570      6.37432e+7 
