# Kurucz ODFNEW /NOVER (2003)
# teff = 26000 K (value for the effective temperature for the model. Temperatures are given in K)
# logg = 4 log(cm/s2) (value for Log(G) for the model.)
# meta = 0.5  (value for the Metallicity for the model.)
# lh = 1.25  (l/Hp where l is the  mixing length of the convective element and Hp is the pressure scale height)
# vtur = 2 km/s (Microturbulence velocity)
# alpha = 0.4  (Alpha)
#
# column 1: WAVELENGTH (ANGSTROM), Wavelength in Angstrom
# column 2: FLUX (ERG/CM2/S/A), Flux in erg/cm2/s/A
          147.2     2.88756e-13 
            151     1.14911e-12 
          155.2     4.90137e-12 
          158.8     1.60268e-11 
            162     4.40594e-11 
            166     1.47938e-10 
          170.3     5.08054e-10 
          173.4      1.20656e-9 
          176.8       2.9899e-9 
          180.2      7.16948e-9 
          181.7      1.04237e-8 
          186.1       3.0401e-8 
            191      9.49532e-8 
          193.9      1.81224e-7 
          198.4      4.76719e-7 
          201.8      9.63118e-7 
            205      1.82919e-6 
          210.5      5.28183e-6 
          216.2      1.50023e-5 
          219.8      2.82531e-5 
            223      4.87834e-5 
          226.8      9.32042e-5 
            230      0.00136207 
            234       0.0030347 
            240      0.00708264 
          246.5       0.0169999 
          252.4       0.0366778 
          256.8       0.0617654 
            260       0.0971973 
            264          0.1517 
          268.5        0.257844 
          273.5        0.446753 
          278.5        0.754166 
            284         1.46239 
            290         2.60033 
            296          4.5496 
            301         7.08876 
            308         13.9661 
            318         33.0206 
            328         68.7949 
            338         147.537 
            348         291.777 
            357         2191.85 
            366         5789.76 
            375          8590.1 
            385         14945.9 
            395         44432.5 
            405         65295.2 
            414          108346 
            422          155040 
            430          221474 
            441          325123 
            451          424124 
            460          536466 
            470          758183 
            480      1.01691e+6 
            490      1.35169e+6 
            500      1.72015e+6 
            506      5.87262e+6 
            512      6.19969e+7 
            520      6.40217e+7 
            530       6.9249e+7 
            540      6.81717e+7 
            550      1.13242e+8 
            560      1.39267e+8 
            570      1.58971e+8 
            580      1.43457e+8 
            590      1.92856e+8 
            600      1.91358e+8 
            610      2.37073e+8 
            620      2.55537e+8 
            630      2.56791e+8 
            640       2.0905e+8 
            650      1.36924e+8 
            658      2.18565e+8 
            665      2.94432e+8 
            675      3.17218e+8 
            685      2.99641e+8 
            695      4.51451e+8 
            705      4.10342e+8 
            716      5.06405e+8 
            726      4.89013e+8 
            735      5.35061e+8 
            745      6.08346e+8 
            755      6.33076e+8 
            765      6.79848e+8 
            775      7.26394e+8 
            785      7.73664e+8 
            795       7.7298e+8 
            805      7.88892e+8 
            815      7.97273e+8 
            825      8.79464e+8 
            835      6.31048e+8 
            845      8.62226e+8 
            855      8.58203e+8 
            865       9.1415e+8 
            875      9.60737e+8 
            885      1.04107e+9 
            895      1.08124e+9 
            905       1.0343e+9 
            915      1.40324e+9 
            925      8.76104e+9 
            935     1.75699e+10 
            945     2.79004e+10 
            955     3.30298e+10 
            965     3.48546e+10 
            975      5.68646e+9 
            985     2.30936e+10 
            995     2.50013e+10 
           1005     3.09798e+10 
           1015     3.35969e+10 
           1025     2.17989e+10 
           1035     2.72064e+10 
           1045     4.15773e+10 
           1055     3.74792e+10 
           1065     2.65439e+10 
           1075     3.22577e+10 
           1085     2.98577e+10 
           1095     3.36159e+10 
           1105     2.88487e+10 
           1115     2.58493e+10 
           1125     1.70192e+10 
           1135      2.8882e+10 
           1145     2.64128e+10 
           1155     2.65581e+10 
           1165     2.65116e+10 
           1175     1.27973e+10 
           1185     2.43362e+10 
           1195     2.21441e+10 
           1205     1.19942e+10 
           1215     1.44376e+10 
           1225     2.16115e+10 
           1235     2.53125e+10 
           1245     2.39861e+10 
           1255     2.36953e+10 
           1265       2.467e+10 
           1275     2.57398e+10 
           1285     2.57583e+10 
           1295     1.47381e+10 
           1305     1.69386e+10 
           1315     2.52522e+10 
           1325     2.33017e+10 
           1335     2.27721e+10 
           1345     2.26784e+10 
           1355     2.25788e+10 
           1365     1.99127e+10 
           1375     1.87764e+10 
           1385     1.67246e+10 
           1395      8.34311e+9 
           1405     1.06069e+10 
           1415     1.51744e+10 
           1425     1.53163e+10 
           1435     1.64526e+10 
           1442      1.6972e+10 
           1447     1.67349e+10 
           1455     1.58598e+10 
           1465     1.41982e+10 
           1475     1.50442e+10 
           1485     1.47863e+10 
           1495      1.4351e+10 
           1505     1.25008e+10 
           1512     1.12789e+10 
           1517     1.17343e+10 
           1525     1.21499e+10 
           1535      9.77964e+9 
           1545      8.98696e+9 
           1555      8.93609e+9 
           1565     1.00477e+10 
           1575     1.09236e+10 
           1585     1.10872e+10 
           1595      1.0919e+10 
           1605      1.1329e+10 
           1615      1.0967e+10 
           1625     1.07321e+10 
           1635     1.16599e+10 
           1645     1.18582e+10 
           1655      1.1532e+10 
           1665     1.18016e+10 
           1672     1.09355e+10 
           1677     1.28058e+10 
           1685     1.21953e+10 
           1695      1.1349e+10 
           1705     1.11595e+10 
           1715     1.03458e+10 
           1725     1.00694e+10 
           1735     1.06769e+10 
           1745     1.05024e+10 
           1755     1.04828e+10 
           1765     1.05055e+10 
           1775       9.5125e+9 
           1785       9.8327e+9 
           1795     1.02255e+10 
           1805      1.0372e+10 
           1815      9.01676e+9 
           1825      9.46997e+9 
           1835       9.1454e+9 
           1845      8.23165e+9 
           1855      8.53038e+9 
           1865      8.60508e+9 
           1875      8.96896e+9 
           1885      7.90244e+9 
           1895      7.37413e+9 
           1905      8.15792e+9 
           1915      7.48451e+9 
           1925      6.99795e+9 
           1935      7.65467e+9 
           1945      7.79874e+9 
           1955      6.84604e+9 
           1967      7.68767e+9 
           1976      8.06289e+9 
           1984      7.43064e+9 
           1995      7.33387e+9 
           2005      7.74277e+9 
           2015      7.60654e+9 
           2025      7.76845e+9 
           2035      7.03848e+9 
           2045      7.25961e+9 
           2055      6.73087e+9 
           2065      6.65399e+9 
           2074      7.01378e+9 
           2078       6.2967e+9 
           2085      6.83919e+9 
           2095      6.48702e+9 
           2105      6.79631e+9 
           2115      6.89962e+9 
           2125      6.88665e+9 
           2135      6.77617e+9 
           2145      6.38905e+9 
           2155      6.73932e+9 
           2165      6.69368e+9 
           2175      6.63068e+9 
           2185      6.33347e+9 
           2195      6.47841e+9 
           2205      6.51099e+9 
           2215      6.36034e+9 
           2225      6.16799e+9 
           2235       6.0728e+9 
           2245      6.14911e+9 
           2255      5.89303e+9 
           2265      6.02153e+9 
           2275      5.90888e+9 
           2285      5.85417e+9 
           2295      5.00053e+9 
           2305       5.6283e+9 
           2315      5.44945e+9 
           2325       5.4203e+9 
           2335      5.23143e+9 
           2345      5.32961e+9 
           2355      5.27426e+9 
           2365      5.24005e+9 
           2375       5.0951e+9 
           2385      5.05631e+9 
           2395      4.98764e+9 
           2405       4.9073e+9 
           2415      4.84949e+9 
           2425      4.84315e+9 
           2435      4.68661e+9 
           2445      4.71074e+9 
           2455      4.71294e+9 
           2465      4.61582e+9 
           2475      4.51076e+9 
           2485      4.26863e+9 
           2495       3.0036e+9 
           2505      4.00124e+9 
           2513      4.02532e+9 
           2518      4.18659e+9 
           2525      4.20619e+9 
           2535      4.19705e+9 
           2545       3.9434e+9 
           2555      4.06835e+9 
           2565      3.97296e+9 
           2575      4.04074e+9 
           2585      3.97328e+9 
           2595      3.94423e+9 
           2605       3.9109e+9 
           2615      3.83008e+9 
           2625      3.81588e+9 
           2635      3.77808e+9 
           2645      3.72544e+9 
           2655      3.70994e+9 
           2665      3.48769e+9 
           2675      3.53252e+9 
           2685      3.53949e+9 
           2695      3.38008e+9 
           2705      3.26019e+9 
           2715       3.2978e+9 
           2725      3.32737e+9 
           2735      3.29412e+9 
           2745      3.21926e+9 
           2755      3.20586e+9 
           2765      3.17015e+9 
           2775      3.22029e+9 
           2785      3.14887e+9 
           2795      2.99806e+9 
           2805      3.05424e+9 
           2815      3.07593e+9 
           2825      3.04348e+9 
           2835      2.90158e+9 
           2845      2.94536e+9 
           2855      2.87415e+9 
           2865      2.88901e+9 
           2875      2.84748e+9 
           2885      2.81179e+9 
           2895      2.75496e+9 
           2910      2.67734e+9 
           2930      2.68523e+9 
           2950      2.60206e+9 
           2970      2.56026e+9 
           2990      2.48963e+9 
           3010      2.35424e+9 
           3030      2.36278e+9 
           3050      2.34494e+9 
           3070      2.32979e+9 
           3090       2.1975e+9 
           3110       2.2223e+9 
           3130      2.14769e+9 
           3150      2.12609e+9 
           3170      2.05818e+9 
           3190      2.03179e+9 
           3210      2.00187e+9 
           3230      1.94115e+9 
           3250      1.92333e+9 
           3270      1.87017e+9 
           3290      1.83529e+9 
           3310      1.79894e+9 
           3330      1.75422e+9 
           3350      1.72861e+9 
           3370      1.68516e+9 
           3390      1.67127e+9 
           3410       1.6387e+9 
           3430      1.60975e+9 
           3450      1.56949e+9 
           3470      1.54003e+9 
           3490      1.50592e+9 
           3510      1.48015e+9 
           3530      1.46784e+9 
           3550      1.43619e+9 
           3570       1.4119e+9 
           3590       1.3668e+9 
           3610      1.34728e+9 
           3630      1.32627e+9 
           3640      1.32442e+9 
           3650      1.30264e+9 
           3670      1.28952e+9 
           3690      1.26271e+9 
           3710      1.20679e+9 
           3730      1.16385e+9 
           3750      1.20379e+9 
           3770      1.18276e+9 
           3790      1.23391e+9 
           3810      1.27235e+9 
           3830      1.12408e+9 
           3850      1.26153e+9 
           3870      1.22699e+9 
           3890      1.06343e+9 
           3910      1.25006e+9 
           3930      1.19861e+9 
           3950       1.1755e+9 
           3970      9.85249e+8 
           3990      1.14928e+9 
           4010      1.14311e+9 
           4030      1.08459e+9 
           4050      1.09405e+9 
           4070      1.02426e+9 
           4090       9.6596e+8 
           4110       8.8129e+8 
           4130      9.90806e+8 
           4150      9.84014e+8 
           4170      9.89308e+8 
           4190      9.79113e+8 
           4210       9.7283e+8 
           4230      9.45608e+8 
           4250      9.08864e+8 
           4270      8.82973e+8 
           4290      8.63112e+8 
           4310      8.30236e+8 
           4330      7.80931e+8 
           4350      7.27438e+8 
           4370      7.95127e+8 
           4390      8.07309e+8 
           4410      7.92875e+8 
           4430      7.91664e+8 
           4450      7.75375e+8 
           4470      7.50634e+8 
           4490      7.57006e+8 
           4510      7.52048e+8 
           4530      7.42723e+8 
           4550      7.34279e+8 
           4570      7.20452e+8 
           4590      7.06892e+8 
           4610       6.8402e+8 
           4630      6.75522e+8 
           4650      6.46865e+8 
           4670      6.55674e+8 
           4690      6.52594e+8 
           4710      6.21438e+8 
           4730      6.33622e+8 
           4750      6.22236e+8 
           4770      6.27013e+8 
           4790      6.14284e+8 
           4810      5.97837e+8 
           4830      5.86566e+8 
           4850      5.55969e+8 
           4870      5.01027e+8 
           4890      5.63501e+8 
           4910      5.57263e+8 
           4930      5.39777e+8 
           4950      5.37115e+8 
           4970      5.38993e+8 
           4990      5.29008e+8 
           5010      5.01258e+8 
           5030      5.09847e+8 
           5050      4.98475e+8 
           5070       4.9968e+8 
           5090      4.89086e+8 
           5110      4.79841e+8 
           5130      4.68176e+8 
           5150      4.65172e+8 
           5170      4.61636e+8 
           5190      4.56588e+8 
           5210      4.47302e+8 
           5230      4.43681e+8 
           5250      4.37983e+8 
           5270      4.29172e+8 
           5290      4.26202e+8 
           5310      4.19377e+8 
           5330      4.14021e+8 
           5350      4.07364e+8 
           5370      4.03473e+8 
           5390      3.96996e+8 
           5410      3.92406e+8 
           5430      3.86352e+8 
           5450       3.8049e+8 
           5470      3.75434e+8 
           5490      3.71029e+8 
           5510      3.67657e+8 
           5530      3.60851e+8 
           5550      3.58109e+8 
           5570      3.52858e+8 
           5590      3.48794e+8 
           5610      3.43535e+8 
           5630      3.40076e+8 
           5650       3.3228e+8 
           5670      3.26248e+8 
           5690      3.20712e+8 
           5710      3.19498e+8 
           5730      3.17054e+8 
           5750      3.11023e+8 
           5770      3.10161e+8 
           5790      3.05505e+8 
           5810      3.01697e+8 
           5830      2.96616e+8 
           5850      2.93788e+8 
           5870      2.82857e+8 
           5890      2.83089e+8 
           5910       2.8095e+8 
           5930      2.77237e+8 
           5950      2.73216e+8 
           5970      2.73376e+8 
           5990      2.67227e+8 
           6010      2.66015e+8 
           6030      2.61528e+8 
           6050      2.58752e+8 
           6070      2.56539e+8 
           6090      2.53516e+8 
           6110      2.50416e+8 
           6130      2.47792e+8 
           6150      2.42208e+8 
           6170      2.40057e+8 
           6190      2.38498e+8 
           6210      2.36193e+8 
           6230      2.33669e+8 
           6250      2.29524e+8 
           6270      2.27334e+8 
           6290      2.25129e+8 
           6310      2.21764e+8 
           6330      2.20074e+8 
           6350      2.16083e+8 
           6370      2.14774e+8 
           6390      2.12233e+8 
           6410      2.09801e+8 
           6430      2.07896e+8 
           6450      2.05278e+8 
           6470      2.01284e+8 
           6490      1.99428e+8 
           6510      1.97307e+8 
           6530      1.93962e+8 
           6550      1.88336e+8 
           6570      1.67065e+8 
           6590      1.86482e+8 
           6610      1.86528e+8 
           6630      1.84984e+8 
           6650      1.82527e+8 
           6670      1.79207e+8 
           6690      1.77413e+8 
           6710      1.77018e+8 
           6730      1.74171e+8 
           6750      1.73438e+8 
           6770      1.71535e+8 
           6790      1.67405e+8 
           6810      1.67235e+8 
           6830      1.65062e+8 
           6850      1.63987e+8 
           6870      1.62108e+8 
           6890      1.59914e+8 
           6910      1.57507e+8 
           6930      1.57023e+8 
           6950      1.55504e+8 
           6970      1.53876e+8 
           6990      1.52072e+8 
           7010      1.50377e+8 
           7030      1.48707e+8 
           7050      1.47251e+8 
           7070      1.43268e+8 
           7090       1.4387e+8 
           7110      1.40446e+8 
           7130      1.39222e+8 
           7150      1.39284e+8 
           7170      1.38267e+8 
           7190      1.36966e+8 
           7210      1.35526e+8 
           7230      1.31571e+8 
           7250      1.32107e+8 
           7270      1.31331e+8 
           7290      1.28896e+8 
           7310      1.28594e+8 
           7330      1.27178e+8 
           7350      1.25998e+8 
           7370      1.24802e+8 
           7390      1.23534e+8 
           7410      1.22292e+8 
           7430      1.20863e+8 
           7450        1.197e+8 
           7470      1.17027e+8 
           7490      1.17041e+8 
           7510      1.16105e+8 
           7530      1.14651e+8 
           7550      1.13906e+8 
           7570      1.12819e+8 
           7590      1.11584e+8 
           7610      1.10087e+8 
           7630      1.09407e+8 
           7650      1.08289e+8 
           7670      1.07354e+8 
           7690      1.06248e+8 
           7710      1.05184e+8 
           7730      1.03947e+8 
           7750      1.03236e+8 
           7770      1.01295e+8 
           7790      1.01266e+8 
           7810      1.00247e+8 
           7830      9.93426e+7 
           7850       9.8244e+7 
           7870      9.69607e+7 
           7890       9.5677e+7 
           7910      9.53082e+7 
           7930      9.43428e+7 
           7950      9.32964e+7 
           7970      9.25738e+7 
           7990      9.14795e+7 
           8010      9.08823e+7 
           8030       9.0027e+7 
           8050      8.92721e+7 
           8070      8.85178e+7 
           8090      8.76029e+7 
           8110       8.5854e+7 
           8130      8.60648e+7 
           8150      8.52515e+7 
           8170      8.46145e+7 
           8190      8.27864e+7 
           8210      8.22439e+7 
           8230      8.11271e+7 
           8250      8.13376e+7 
           8270      7.91434e+7 
           8290      7.96336e+7 
           8310      7.91089e+7 
           8330      7.85069e+7 
           8350      7.73478e+7 
           8370      7.67097e+7 
           8390      7.63444e+7 
           8410      7.54917e+7 
           8430      7.49378e+7 
           8450      7.34122e+7 
           8470      7.35123e+7 
           8490      7.27168e+7 
           8510      7.18032e+7 
           8530      7.16015e+7 
           8550      6.99477e+7 
           8570      7.10116e+7 
