# Kurucz ODFNEW /NOVER (2003)
# teff = 7500 K (value for the effective temperature for the model. Temperatures are given in K)
# logg = 1 log(cm/s2) (value for Log(G) for the model.)
# meta = -0.5  (value for the Metallicity for the model.)
# lh = 1.25  (l/Hp where l is the  mixing length of the convective element and Hp is the pressure scale height)
# vtur = 2 km/s (Microturbulence velocity)
# alpha = 0.4  (Alpha)
#
# column 1: WAVELENGTH (ANGSTROM), Wavelength in Angstrom
# column 2: FLUX (ERG/CM2/S/A), Flux in erg/cm2/s/A
            385     2.36626e-24 
            395      6.6598e-23 
            405     4.99733e-22 
            414     2.69959e-21 
            422     1.13395e-20 
            430     4.50506e-20 
            441     2.75901e-19 
            451     1.32366e-18 
            460     4.56259e-19 
            470     1.77723e-18 
            480     6.51542e-18 
            490     2.25834e-17 
            500     7.41569e-17 
            506     1.67974e-15 
            512     4.71156e-15 
            520      1.1904e-14 
            530     3.69809e-14 
            540     7.96545e-15 
            550     2.09636e-14 
            560     5.28094e-14 
            570     1.28429e-13 
            580     2.98673e-13 
            590     6.88297e-13 
            600      1.5222e-12 
            610     3.27383e-12 
            620     6.84954e-12 
            630     1.39691e-11 
            640     2.78105e-11 
            650     5.41162e-11 
            658      9.0701e-11 
            665     1.40784e-10 
            675     2.59678e-10 
            685     4.69682e-10 
            695     8.33441e-10 
            705      1.44795e-9 
            716      2.62168e-9 
            726      4.40924e-9 
            735      6.94651e-9 
            745      1.13435e-8 
            755       1.8264e-8 
            765      2.90015e-8 
            775       4.5439e-8 
            785      7.03236e-8 
            795      1.06589e-7 
            805      1.61703e-7 
            815      2.41967e-7 
            825      3.57332e-7 
            835      5.22021e-7 
            845      7.55068e-7 
            855      1.08135e-6 
            865      1.53411e-6 
            875      2.15116e-6 
            885      3.00474e-6 
            895      4.15165e-6 
            905      5.67423e-6 
            915      0.00923122 
            925       0.0300481 
            935       0.0389513 
            945        0.053462 
            955       0.0771365 
            965         0.10187 
            975         0.12496 
            985        0.168747 
            995        0.208113 
           1005        0.286404 
           1015        0.363772 
           1025        0.447037 
           1035        0.579465 
           1045        0.739815 
           1055        0.929347 
           1065         1.12598 
           1075         1.42177 
           1085         1.76194 
           1095         2.10147 
           1105         7.35332 
           1115         24.9499 
           1125          35.913 
           1135         47.9632 
           1145         57.6089 
           1155         59.3098 
           1165         72.7742 
           1175         73.8738 
           1185         90.4113 
           1195         22.2538 
           1205         17.1492 
           1215         4.10052 
           1225         20.2011 
           1235         59.2354 
           1245         147.965 
           1255         304.297 
           1265         336.254 
           1275         657.876 
           1285         1052.76 
           1295         1411.33 
           1305         1035.87 
           1315         2113.05 
           1325         2784.87 
           1335         3161.63 
           1345         4237.89 
           1355         4600.92 
           1365         5121.32 
           1375         5828.81 
           1385         6846.13 
           1395         8100.35 
           1405         9236.05 
           1415            9652 
           1425         11206.4 
           1435         11404.4 
           1442         13306.2 
           1447         14570.2 
           1455         16486.9 
           1465         16924.7 
           1475         18659.6 
           1485         21062.2 
           1495         24228.4 
           1505         26816.5 
           1512         27353.2 
           1517         29710.6 
           1525         30873.8 
           1535          127286 
           1545          505084 
           1555          456137 
           1565          400290 
           1575          699538 
           1585          834954 
           1595      1.15671e+6 
           1605          977132 
           1615          900028 
           1625          795809 
           1635          943619 
           1645      1.27356e+6 
           1655          711667 
           1665      1.15335e+6 
           1672          355979 
           1677       1.5981e+6 
           1685      2.56843e+6 
           1695      2.93264e+6 
           1705      2.75527e+6 
           1715      3.60357e+6 
           1725        3.806e+6 
           1735      4.60714e+6 
           1745      4.16106e+6 
           1755      5.26781e+6 
           1765      4.13707e+6 
           1775       5.2141e+6 
           1785      4.60686e+6 
           1795      6.40447e+6 
           1805      5.07355e+6 
           1815      5.86978e+6 
           1825      4.82858e+6 
           1835      4.63412e+6 
           1845      4.38825e+6 
           1855      5.05028e+6 
           1865      5.49288e+6 
           1875      5.36854e+6 
           1885       5.6386e+6 
           1895       6.0997e+6 
           1905      5.36646e+6 
           1915      5.97902e+6 
           1925      6.16654e+6 
           1935      4.92315e+6 
           1945      6.63171e+6 
           1955      6.76019e+6 
           1967       7.2574e+6 
           1976      7.04122e+6 
           1984      6.84003e+6 
           1995      6.70006e+6 
           2005      6.43913e+6 
           2015       5.9674e+6 
           2025         5.66e+6 
           2035      6.60473e+6 
           2045      7.24925e+6 
           2055      6.31756e+6 
           2065      6.19883e+6 
           2074      7.73318e+6 
           2078       8.1175e+6 
           2085      7.72901e+6 
           2095      7.33378e+6 
           2105      6.81467e+6 
           2115      6.91529e+6 
           2125      7.07194e+6 
           2135        5.359e+6 
           2145      6.68407e+6 
           2155      6.89848e+6 
           2165       6.2386e+6 
           2175      6.32025e+6 
           2185       6.5874e+6 
           2195      7.31507e+6 
           2205      6.97372e+6 
           2215       5.9308e+6 
           2225      5.77868e+6 
           2235      7.24125e+6 
           2245      6.42664e+6 
           2255      5.72567e+6 
           2265      5.73852e+6 
           2275      6.62178e+6 
           2285      6.91187e+6 
           2295       6.2709e+6 
           2305      6.65488e+6 
           2315      6.33004e+6 
           2325      6.01283e+6 
           2335      4.48719e+6 
           2345      3.60046e+6 
           2355      5.64473e+6 
           2365      3.64846e+6 
           2375      4.89066e+6 
           2385         2.91e+6 
           2395      3.85962e+6 
           2405      3.65916e+6 
           2415       4.4525e+6 
           2425      6.39712e+6 
           2435      6.20687e+6 
           2445      6.66678e+6 
           2455      6.55008e+6 
           2465       6.4214e+6 
           2475      6.02048e+6 
           2485      6.34957e+6 
           2495      6.12145e+6 
           2505      7.57838e+6 
           2513      6.00663e+6 
           2518       6.4118e+6 
           2525      5.40145e+6 
           2535      5.21288e+6 
           2545      5.42076e+6 
           2555      6.26495e+6 
           2565      5.71591e+6 
           2575      6.52595e+6 
           2585      6.12489e+6 
           2595      5.62854e+6 
           2605       5.0211e+6 
           2615      4.73464e+6 
           2625      6.00088e+6 
           2635      6.82953e+6 
           2645      9.25827e+6 
           2655      9.27791e+6 
           2665        7.807e+6 
           2675      8.46264e+6 
           2685      8.33701e+6 
           2695      7.90906e+6 
           2705      8.25486e+6 
           2715      7.32584e+6 
           2725      7.46242e+6 
           2735       8.1221e+6 
           2745      5.26919e+6 
           2755      6.02368e+6 
           2765      6.58284e+6 
           2775      7.54523e+6 
           2785      5.68332e+6 
           2795      1.98925e+6 
           2805      2.59994e+6 
           2815       6.9325e+6 
           2825      8.68156e+6 
           2835      8.60261e+6 
           2845      8.37329e+6 
           2855      7.63116e+6 
           2865      8.97049e+6 
           2875      8.65797e+6 
           2885      8.94929e+6 
           2895      8.48931e+6 
           2910      1.00436e+7 
           2930      9.57654e+6 
           2950      9.59432e+6 
           2970      1.01796e+7 
           2990      1.03557e+7 
           3010      1.07292e+7 
           3030      1.06508e+7 
           3050      1.05768e+7 
           3070      1.05026e+7 
           3090      1.10189e+7 
           3110      1.06268e+7 
           3130      1.06387e+7 
           3150      1.11138e+7 
           3170      1.10943e+7 
           3190       1.0384e+7 
           3210      1.09738e+7 
           3230      1.04942e+7 
           3250      1.10421e+7 
           3270      1.12379e+7 
           3290      1.15005e+7 
           3310      1.17632e+7 
           3330      1.14287e+7 
           3350      1.12379e+7 
           3370       1.1226e+7 
           3390      1.14316e+7 
           3410      1.18681e+7 
           3430      1.21131e+7 
           3450      1.20037e+7 
           3470      1.18217e+7 
           3490      1.17271e+7 
           3510      1.21531e+7 
           3530      1.23296e+7 
           3550      1.26036e+7 
           3570       1.2119e+7 
           3590      1.21603e+7 
           3610      1.22893e+7 
           3630       1.2441e+7 
           3640      1.22124e+7 
           3650      1.26927e+7 
           3670      1.26468e+7 
           3690      1.39485e+7 
           3710      1.88038e+7 
           3730      2.79279e+7 
           3750      4.26491e+7 
           3770       4.3706e+7 
           3790      5.20347e+7 
           3810      5.73006e+7 
           3830      4.58453e+7 
           3850      5.87619e+7 
           3870      6.11746e+7 
           3890      4.40287e+7 
           3910      5.80615e+7 
           3930      3.88538e+7 
           3950      5.56963e+7 
           3970       3.4812e+7 
           3990      5.80306e+7 
           4010      5.88683e+7 
           4030      5.77334e+7 
           4050       5.7454e+7 
           4070      5.62835e+7 
           4090      5.39304e+7 
           4110      4.28089e+7 
           4130      5.47174e+7 
           4150      5.54206e+7 
           4170      5.33521e+7 
           4190      5.32688e+7 
           4210       5.2951e+7 
           4230      5.19567e+7 
           4250      5.16899e+7 
           4270      5.05828e+7 
           4290      5.02167e+7 
           4310      4.74316e+7 
           4330      4.41914e+7 
           4350      3.84086e+7 
           4370      4.86671e+7 
           4390      4.71809e+7 
           4410      4.60062e+7 
           4430      4.64862e+7 
           4450        4.633e+7 
           4470       4.6037e+7 
           4490      4.55325e+7 
           4510      4.58037e+7 
           4530      4.42509e+7 
           4550      4.32149e+7 
           4570      4.44123e+7 
           4590      4.29174e+7 
           4610      4.41731e+7 
           4630      4.26729e+7 
           4650      4.30297e+7 
           4670      4.25928e+7 
           4690      4.18055e+7 
           4710      4.03406e+7 
           4730      4.13305e+7 
           4750      4.13188e+7 
           4770      4.04399e+7 
           4790       4.0029e+7 
           4810      3.95535e+7 
           4830       3.9028e+7 
           4850      3.48486e+7 
           4870      2.82997e+7 
           4890       3.7553e+7 
           4910      3.75384e+7 
           4930      3.67415e+7 
           4950      3.69388e+7 
           4970      3.69593e+7 
           4990      3.58497e+7 
           5010      3.45869e+7 
           5030      3.51344e+7 
           5050      3.47429e+7 
           5070      3.47873e+7 
           5090      3.44723e+7 
           5110      3.41568e+7 
           5130      3.33628e+7 
           5150       3.2911e+7 
           5170      3.20494e+7 
           5190      3.16686e+7 
           5210      3.18215e+7 
           5230      3.12769e+7 
           5250      3.16337e+7 
           5270      3.01298e+7 
           5290      3.09982e+7 
           5310      3.03095e+7 
           5330      2.96502e+7 
           5350      3.03174e+7 
           5370       2.9845e+7 
           5390      2.94048e+7 
           5410      2.89909e+7 
           5430      2.87202e+7 
           5450      2.88408e+7 
           5470      2.85737e+7 
           5490      2.82984e+7 
           5510      2.80251e+7 
           5530      2.76626e+7 
           5550      2.77192e+7 
           5570      2.73492e+7 
           5590      2.70116e+7 
           5610      2.68673e+7 
           5630      2.67219e+7 
           5650      2.62935e+7 
           5670      2.60169e+7 
           5690      2.59518e+7 
           5710      2.57103e+7 
           5730      2.55839e+7 
           5750      2.52752e+7 
           5770      2.50901e+7 
           5790      2.48272e+7 
           5810      2.46208e+7 
           5830       2.4399e+7 
           5850      2.41653e+7 
           5870      2.39626e+7 
           5890      2.34624e+7 
           5910      2.35261e+7 
           5930      2.33163e+7 
           5950      2.30566e+7 
           5970       2.2914e+7 
           5990      2.26037e+7 
           6010      2.24379e+7 
           6030      2.22779e+7 
           6050      2.20567e+7 
           6070      2.19259e+7 
           6090      2.16978e+7 
           6110      2.14682e+7 
           6130       2.1197e+7 
           6150      2.07128e+7 
           6170      2.07786e+7 
           6190      2.07842e+7 
           6210      2.06075e+7 
           6230      2.03463e+7 
           6250      1.98498e+7 
           6270      2.00991e+7 
           6290      1.99248e+7 
           6310      1.96359e+7 
           6330       1.9544e+7 
           6350      1.92221e+7 
           6370      1.90839e+7 
           6390      1.90514e+7 
           6410      1.87933e+7 
           6430      1.87058e+7 
           6450      1.83201e+7 
           6470      1.84014e+7 
           6490       1.8052e+7 
           6510      1.79804e+7 
           6530      1.78086e+7 
           6550      1.64004e+7 
           6570      1.29589e+7 
           6590      1.71717e+7 
           6610       1.7262e+7 
           6630      1.72377e+7 
           6650      1.71274e+7 
           6670      1.69748e+7 
           6690      1.68466e+7 
           6710      1.67078e+7 
           6730      1.65479e+7 
           6750      1.63888e+7 
           6770      1.63308e+7 
           6790      1.61742e+7 
           6810      1.60656e+7 
           6830      1.58933e+7 
           6850      1.57902e+7 
           6870       1.5684e+7 
           6890      1.55597e+7 
           6910      1.54351e+7 
           6930      1.53038e+7 
           6950      1.51916e+7 
           6970      1.50635e+7 
           6990      1.49535e+7 
           7010      1.47265e+7 
           7030       1.4703e+7 
           7050      1.46015e+7 
           7070      1.44911e+7 
           7090      1.43833e+7 
           7110      1.41184e+7 
           7130       1.4123e+7 
           7150      1.40014e+7 
           7170      1.39131e+7 
           7190      1.37914e+7 
           7210       1.3678e+7 
           7230      1.35635e+7 
           7250      1.34702e+7 
           7270      1.34011e+7 
           7290      1.32582e+7 
           7310      1.31435e+7 
           7330       1.3062e+7 
           7350      1.29792e+7 
           7370      1.29151e+7 
           7390      1.27963e+7 
           7410      1.26567e+7 
           7430       1.2547e+7 
           7450       1.2475e+7 
           7470      1.23394e+7 
           7490      1.22843e+7 
           7510      1.22069e+7 
           7530      1.21422e+7 
           7550       1.2076e+7 
           7570      1.19544e+7 
           7590      1.18941e+7 
           7610      1.18063e+7 
           7630      1.17231e+7 
           7650      1.16085e+7 
           7670      1.15179e+7 
           7690      1.14409e+7 
           7710      1.13347e+7 
           7730      1.12931e+7 
           7750      1.12073e+7 
           7770      1.08808e+7 
           7790      1.10602e+7 
           7810      1.09722e+7 
           7830      1.08793e+7 
           7850      1.07769e+7 
           7870      1.06845e+7 
           7890      1.05838e+7 
           7910      1.05556e+7 
           7930      1.04647e+7 
           7950      1.03644e+7 
           7970      1.03647e+7 
           7990      1.01759e+7 
           8010      1.02097e+7 
           8030      1.01297e+7 
           8050      1.00667e+7 
           8070      9.99311e+6 
           8090      9.92419e+6 
           8110      9.85926e+6 
           8130       9.7977e+6 
           8150      9.72926e+6 
           8170       9.6608e+6 
           8190      9.50584e+6 
           8210      9.47579e+6 
           8230      9.40865e+6 
           8250      9.34538e+6 
           8270      9.37294e+6 
           8290       9.2894e+6 
           8310        9.182e+6 
           8330      9.01852e+6 
           8350      9.07101e+6 
           8370      8.83089e+6 
           8390      8.87126e+6 
           8410      8.82699e+6 
           8430        9.064e+6 
           8450       8.8771e+6 
           8470      8.61678e+6 
           8490       9.3785e+6 
           8510       8.3617e+6 
           8530      9.55015e+6 
           8550      7.75799e+6 
           8570      9.82693e+6 
           8590      9.23187e+6 
           8610       8.9512e+6 
           8630       1.0101e+7 
           8650      9.88718e+6 
           8670       7.7041e+6 
           8690      9.83628e+6 
           8710      1.00851e+7 
           8730      9.88673e+6 
           8750      8.00229e+6 
           8770      9.60768e+6 
           8790      9.83609e+6 
           8810      9.72255e+6 
           8830      9.58337e+6 
           8850      9.15339e+6 
           8870      7.76616e+6 
           8890      9.38772e+6 
           8910      9.37267e+6 
           8930      9.31231e+6 
           8950       9.3394e+6 
           8970      9.24864e+6 
           8990      9.09333e+6 
           9010      7.62832e+6 
           9030      8.40725e+6 
           9050      8.96625e+6 
           9070      8.76144e+6 
           9090      8.63721e+6 
           9110      8.75049e+6 
           9130      8.75874e+6 
           9150      8.72409e+6 
           9170        8.648e+6 
           9190      8.54126e+6 
           9210      8.28658e+6 
           9230      6.71183e+6 
           9250      8.00769e+6 
           9270      8.09899e+6 
           9290       8.3038e+6 
           9310       8.2573e+6 
           9330      8.18602e+6 
           9350      8.14629e+6 
           9370      8.09825e+6 
           9390      8.00568e+6 
           9410      7.77641e+6 
           9430      7.85911e+6 
           9450      7.85119e+6 
           9470      7.82059e+6 
