# Kurucz ODFNEW /NOVER (2003)
# teff = 30000 K (value for the effective temperature for the model. Temperatures are given in K)
# logg = 4.5 log(cm/s2) (value for Log(G) for the model.)
# meta = -4  (value for the Metallicity for the model.)
# lh = 1.25  (l/Hp where l is the  mixing length of the convective element and Hp is the pressure scale height)
# vtur = 2 km/s (Microturbulence velocity)
# alpha = 0.4  (Alpha)
#
# column 1: WAVELENGTH (ANGSTROM), Wavelength in Angstrom
# column 2: FLUX (ERG/CM2/S/A), Flux in erg/cm2/s/A
          147.2       1.5066e-7 
            151      5.18939e-7 
          155.2      1.89107e-6 
          158.8      5.41025e-6 
            162      1.32158e-5 
            166       3.8351e-5 
          170.3     0.000113651 
          173.4     0.000240076 
          176.8      0.00052809 
          180.2      0.00112555 
          181.7      0.00155667 
          186.1      0.00390324 
            191       0.0103034 
          193.9       0.0178559 
          198.4       0.0405092 
          201.8       0.0733028 
            205        0.125654 
          210.5        0.304536 
          216.2        0.724308 
          219.8         1.22106 
            223         1.91315 
          226.8         3.20326 
            230         21.6965 
            234          59.666 
            240         113.346 
          246.5         220.412 
          252.4          389.77 
          256.8         504.092 
            260         760.425 
            264         1065.82 
          268.5         1537.49 
          273.5         2274.31 
          278.5         3323.78 
            284         4965.08 
            290         7548.03 
            296           11213 
            301         14958.4 
            308         21618.7 
            318         42972.7 
            328           74163 
            338          123646 
            348          199766 
            357          299701 
            366          440721 
            375          633789 
            385          929643 
            395      1.33285e+6 
            405      1.87355e+6 
            414      2.50617e+6 
            422      3.20556e+6 
            430      4.05641e+6 
            441      5.52326e+6 
            451      7.19968e+6 
            460      9.03207e+6 
            470      1.14883e+7 
            480      1.44344e+7 
            490      1.79437e+7 
            500      2.20658e+7 
            506      1.36763e+8 
            512      4.55851e+8 
            520      4.74283e+8 
            530      5.44896e+8 
            540      5.23442e+8 
            550      5.95133e+8 
            560      6.21075e+8 
            570      6.51247e+8 
            580      6.32018e+8 
            590      7.06587e+8 
            600      7.45652e+8 
            610      7.83427e+8 
            620       8.1973e+8 
            630      8.59406e+8 
            640      8.97758e+8 
            650      9.41333e+8 
            658       9.7514e+8 
            665      1.00566e+9 
            675      1.04752e+9 
            685      1.08541e+9 
            695      1.14237e+9 
            705      1.17826e+9 
            716      1.23824e+9 
            726      1.28641e+9 
            735       1.3346e+9 
            745      1.38406e+9 
            755      1.43369e+9 
            765      1.48355e+9 
            775      1.53508e+9 
            785      1.58597e+9 
            795      1.63609e+9 
            805      1.68702e+9 
            815       1.7373e+9 
            825      1.78799e+9 
            835      1.81372e+9 
            845      1.88817e+9 
            855      1.93769e+9 
            865      1.98705e+9 
            875      2.03583e+9 
            885      2.08416e+9 
            895      2.13186e+9 
            905      2.17779e+9 
            915      2.68607e+9 
            925     1.36862e+10 
            935      2.7548e+10 
            945     5.45968e+10 
            955     6.45131e+10 
            965     8.13191e+10 
            975     4.73337e+10 
            985     8.37699e+10 
            995      7.7962e+10 
           1005     8.14946e+10 
           1015     7.71724e+10 
           1025     3.88123e+10 
           1035     7.18906e+10 
           1045     7.37365e+10 
           1055     7.22336e+10 
           1065     6.99834e+10 
           1075     6.83679e+10 
           1085     6.35965e+10 
           1095     6.54691e+10 
           1105     6.35089e+10 
           1115     6.21476e+10 
           1125      5.9988e+10 
           1135     5.93391e+10 
           1145     5.78848e+10 
           1155     5.64999e+10 
           1165     5.51816e+10 
           1175     5.13675e+10 
           1185     5.25056e+10 
           1195     5.09789e+10 
           1205     4.76326e+10 
           1215     2.50142e+10 
           1225      4.5259e+10 
           1235     4.64482e+10 
           1245     4.55252e+10 
           1255     4.46734e+10 
           1265     4.36521e+10 
           1275     4.26665e+10 
           1285     4.17107e+10 
           1295     4.03389e+10 
           1305     3.97186e+10 
           1315     3.89752e+10 
           1325     3.81123e+10 
           1335     3.70975e+10 
           1345      3.6475e+10 
           1355     3.56924e+10 
           1365     3.49206e+10 
           1375     3.41694e+10 
           1385     3.34362e+10 
           1395     3.23275e+10 
           1405     3.17105e+10 
           1415     3.13486e+10 
           1425     3.06949e+10 
           1435     3.00601e+10 
           1442     2.96276e+10 
           1447     2.93224e+10 
           1455     2.88407e+10 
           1465     2.82465e+10 
           1475     2.76656e+10 
           1485     2.70995e+10 
           1495     2.65494e+10 
           1505     2.60098e+10 
           1512      2.5646e+10 
           1517     2.53839e+10 
           1525     2.49757e+10 
           1535     2.44707e+10 
           1545      2.3814e+10 
           1555     2.33685e+10 
           1565     2.30585e+10 
           1575     2.26148e+10 
           1585     2.21789e+10 
           1595     2.17535e+10 
           1605     2.13327e+10 
           1615     2.09292e+10 
           1625     2.05297e+10 
           1635     1.99468e+10 
           1645     1.89839e+10 
           1655      1.9392e+10 
           1665     1.90306e+10 
           1672     1.87827e+10 
           1677     1.86106e+10 
           1685     1.83361e+10 
           1695     1.79997e+10 
           1705     1.76687e+10 
           1715     1.73415e+10 
           1725     1.70297e+10 
           1735       1.673e+10 
           1745     1.64312e+10 
           1755     1.61381e+10 
           1765     1.58505e+10 
           1775     1.55684e+10 
           1785     1.52928e+10 
           1795     1.50235e+10 
           1805     1.47603e+10 
           1815     1.45032e+10 
           1825     1.42508e+10 
           1835     1.40075e+10 
           1845     1.37676e+10 
           1855     1.35276e+10 
           1865     1.33027e+10 
           1875     1.30841e+10 
           1885     1.28618e+10 
           1895     1.26425e+10 
           1905     1.24375e+10 
           1915     1.22257e+10 
           1925     1.20248e+10 
           1935     1.18294e+10 
           1945     1.16364e+10 
           1955     1.14428e+10 
           1967     1.12237e+10 
           1976     1.10619e+10 
           1984     1.09183e+10 
           1995     1.07244e+10 
           2005     1.05577e+10 
           2015      1.0391e+10 
           2025     1.02271e+10 
           2035     1.00668e+10 
           2045      9.91003e+9 
           2055      9.23753e+9 
           2065      9.05022e+9 
           2074      8.95257e+9 
           2078      8.94082e+9 
           2085      8.95975e+9 
           2095      9.05038e+9 
           2105      9.02156e+9 
           2115      8.89603e+9 
           2125      8.76161e+9 
           2135      8.62848e+9 
           2145      8.50073e+9 
           2155       8.3847e+9 
           2165       8.2383e+9 
           2175      8.14361e+9 
           2185      7.99033e+9 
           2195       7.9044e+9 
           2205       7.7887e+9 
           2215      7.64075e+9 
           2225      7.56293e+9 
           2235       7.4534e+9 
           2245      7.34559e+9 
           2255       7.2065e+9 
           2265      7.13537e+9 
           2275      7.03296e+9 
           2285      6.93207e+9 
           2295      6.81214e+9 
           2305      6.70516e+9 
           2315      6.64082e+9 
           2325      6.54743e+9 
           2335      6.45568e+9 
           2345       6.3656e+9 
           2355      6.27728e+9 
           2365      6.19056e+9 
           2375      6.10541e+9 
           2385      5.99611e+9 
           2395      5.93931e+9 
           2405       5.8583e+9 
           2415      5.77868e+9 
           2425      5.70057e+9 
           2435      5.62372e+9 
           2445      5.54832e+9 
           2455      5.47415e+9 
           2465      5.40124e+9 
           2475      5.32933e+9 
           2485      5.25865e+9 
           2495      5.13633e+9 
           2505      5.11972e+9 
           2513      5.01994e+9 
           2518      5.03366e+9 
           2525      4.98764e+9 
           2535      4.92299e+9 
           2545      4.85919e+9 
           2555      4.79659e+9 
           2565      4.73487e+9 
           2575      4.67413e+9 
           2585      4.61447e+9 
           2595       4.5557e+9 
           2605      4.52013e+9 
           2615      4.46281e+9 
           2625      4.40635e+9 
           2635       4.3479e+9 
           2645      4.29172e+9 
           2655      4.23358e+9 
           2665      4.17471e+9 
           2675      4.11786e+9 
           2685      4.08662e+9 
           2695      4.01221e+9 
           2705      3.98651e+9 
           2715      3.93762e+9 
           2725      3.86241e+9 
           2735      3.82948e+9 
           2745      3.79528e+9 
           2755      3.74926e+9 
           2765      3.67578e+9 
           2775      3.65941e+9 
           2785      3.61555e+9 
           2795      3.57207e+9 
           2805      3.52979e+9 
           2815      3.48793e+9 
           2825      3.41385e+9 
           2835      3.39113e+9 
           2845      3.36617e+9 
           2855      3.32677e+9 
           2865      3.28794e+9 
           2875      3.24961e+9 
           2885      3.21182e+9 
           2895      3.17461e+9 
           2910      3.11986e+9 
           2930      3.04871e+9 
           2950      2.95912e+9 
           2970      2.91244e+9 
           2990      2.84718e+9 
           3010      2.78378e+9 
           3030      2.72216e+9 
           3050      2.66223e+9 
           3070      2.60392e+9 
           3090      2.54716e+9 
           3110      2.49207e+9 
           3130      2.44059e+9 
           3150      2.38836e+9 
           3170      2.33718e+9 
           3190      2.26857e+9 
           3210      2.23593e+9 
           3230      2.19165e+9 
           3250       2.1456e+9 
           3270       2.1033e+9 
           3290      2.05734e+9 
           3310      2.01784e+9 
           3330      1.97679e+9 
           3350      1.93351e+9 
           3370      1.89779e+9 
           3390      1.85983e+9 
           3410      1.82279e+9 
           3430      1.77972e+9 
           3450      1.73876e+9 
           3470      1.70939e+9 
           3490      1.67591e+9 
           3510      1.64598e+9 
           3530      1.61707e+9 
           3550      1.58578e+9 
           3570      1.56433e+9 
           3590      1.52415e+9 
           3610      1.50014e+9 
           3630      1.46719e+9 
           3640      1.46403e+9 
           3650      1.44516e+9 
           3670      1.42363e+9 
           3690      1.39632e+9 
           3710       1.3498e+9 
           3730      1.29843e+9 
           3750      1.30366e+9 
           3770      1.28025e+9 
           3790      1.32696e+9 
           3810      1.37362e+9 
           3830      1.21035e+9 
           3850      1.39473e+9 
           3870      1.40518e+9 
           3890      1.14041e+9 
           3910      1.37355e+9 
           3930      1.35709e+9 
           3950      1.32761e+9 
           3970      1.05686e+9 
           3990      1.27226e+9 
           4010      1.26351e+9 
           4030      1.19354e+9 
           4050      1.23126e+9 
           4070      1.20566e+9 
           4090      1.11374e+9 
           4110      9.80557e+8 
           4130      1.12991e+9 
           4150      1.11795e+9 
           4170      1.10732e+9 
           4190      1.09014e+9 
           4210      1.07082e+9 
           4230      1.05311e+9 
           4250      1.03509e+9 
           4270      1.01744e+9 
           4290      9.99298e+8 
           4310      9.77147e+8 
           4330      8.89817e+8 
           4350      8.15695e+8 
           4370      9.26668e+8 
           4390      8.94122e+8 
           4410       9.0391e+8 
           4430      8.85861e+8 
           4450      8.74511e+8 
           4470      8.24091e+8 
           4490      8.45637e+8 
           4510      8.32561e+8 
           4530      8.19112e+8 
           4550      8.05303e+8 
           4570      7.93057e+8 
           4590      7.80421e+8 
           4610      7.68027e+8 
           4630      7.55888e+8 
           4650      7.43963e+8 
           4670      7.32319e+8 
           4690      7.17865e+8 
           4710       7.0166e+8 
           4730      6.98686e+8 
           4750      6.87906e+8 
           4770      6.77331e+8 
           4790      6.66941e+8 
           4810      6.55968e+8 
           4830      6.42537e+8 
           4850      5.95144e+8 
           4870      5.35162e+8 
           4890      6.11679e+8 
           4910      6.06518e+8 
           4930      5.85239e+8 
           4950      5.90713e+8 
           4970      5.81972e+8 
           4990      5.73398e+8 
           5010      5.58578e+8 
           5030      5.56691e+8 
           5050      5.45746e+8 
           5070      5.40628e+8 
           5090      5.32796e+8 
           5110      5.25114e+8 
           5130      5.17563e+8 
           5150      5.10142e+8 
           5170      5.02862e+8 
           5190      4.95707e+8 
           5210      4.88689e+8 
           5230      4.81791e+8 
           5250      4.75011e+8 
           5270      4.68346e+8 
           5290       4.6181e+8 
           5310      4.55371e+8 
           5330      4.49056e+8 
           5350      4.42862e+8 
           5370       4.3676e+8 
           5390      4.30763e+8 
           5410      4.24559e+8 
           5430      4.19074e+8 
           5450      4.13378e+8 
           5470      4.07792e+8 
           5490      4.02289e+8 
           5510       3.9688e+8 
           5530      3.91563e+8 
           5550      3.86336e+8 
           5570      3.81187e+8 
           5590      3.76137e+8 
           5610      3.71162e+8 
           5630      3.66271e+8 
           5650      3.61464e+8 
           5670      3.56739e+8 
           5690      3.52071e+8 
           5710      3.47495e+8 
           5730      3.42997e+8 
           5750      3.38564e+8 
           5770      3.34206e+8 
           5790      3.29913e+8 
           5810      3.25692e+8 
           5830      3.21544e+8 
           5850      3.17456e+8 
           5870      3.04199e+8 
           5890      3.08999e+8 
           5910      3.05574e+8 
           5930      3.01749e+8 
           5950      2.97968e+8 
           5970      2.94252e+8 
           5990        2.906e+8 
           6010      2.86989e+8 
           6030      2.83452e+8 
           6050      2.79955e+8 
           6070      2.76518e+8 
           6090       2.7313e+8 
           6110      2.69801e+8 
           6130      2.66509e+8 
           6150      2.63285e+8 
           6170      2.60096e+8 
           6190      2.56963e+8 
           6210      2.53875e+8 
           6230       2.5083e+8 
           6250      2.47829e+8 
           6270       2.4488e+8 
           6290      2.41973e+8 
           6310      2.39108e+8 
           6330      2.36283e+8 
           6350      2.33507e+8 
           6370      2.30762e+8 
           6390      2.28065e+8 
           6410      2.25406e+8 
           6430      2.22785e+8 
           6450      2.20201e+8 
           6470      2.17654e+8 
           6490      2.15143e+8 
           6510      2.12579e+8 
           6530      2.09273e+8 
           6550      2.00322e+8 
           6570      1.79179e+8 
           6590      2.01194e+8 
           6610      2.00461e+8 
           6630      1.98551e+8 
           6650      1.96413e+8 
           6670      1.92248e+8 
           6690      1.90124e+8 
           6710      1.89887e+8 
           6730       1.8777e+8 
           6750      1.85684e+8 
           6770      1.83627e+8 
           6790      1.81598e+8 
           6810      1.79599e+8 
           6830      1.77628e+8 
           6850      1.75677e+8 
           6870      1.73762e+8 
           6890      1.71866e+8 
           6910      1.69997e+8 
           6930      1.68154e+8 
           6950      1.66337e+8 
           6970      1.64539e+8 
           6990      1.62774e+8 
           7010      1.61026e+8 
           7030      1.59303e+8 
           7050      1.57604e+8 
           7070      1.53496e+8 
           7090      1.54272e+8 
           7110      1.52645e+8 
           7130      1.51034e+8 
           7150      1.49439e+8 
           7170      1.47852e+8 
           7190      1.46323e+8 
           7210      1.44795e+8 
           7230      1.43289e+8 
           7250      1.41797e+8 
           7270      1.40327e+8 
           7290      1.37771e+8 
           7310      1.37434e+8 
           7330      1.36033e+8 
           7350      1.34639e+8 
           7370      1.33264e+8 
           7390      1.31902e+8 
           7410       1.3056e+8 
           7430      1.29237e+8 
           7450       1.2794e+8 
           7470      1.26648e+8 
           7490      1.25375e+8 
           7510      1.24073e+8 
           7530       1.2287e+8 
           7550      1.21639e+8 
           7570      1.20425e+8 
           7590      1.19229e+8 
           7610      1.18043e+8 
           7630      1.16875e+8 
           7650      1.15724e+8 
           7670      1.14583e+8 
           7690      1.13459e+8 
           7710      1.12346e+8 
           7730      1.11248e+8 
           7750       1.1016e+8 
           7770      1.09088e+8 
           7790      1.08032e+8 
           7810       1.0693e+8 
           7830      1.05954e+8 
           7850      1.05024e+8 
           7870      1.04016e+8 
           7890      1.02975e+8 
           7910      1.02034e+8 
           7930      1.01058e+8 
           7950      1.00098e+8 
           7970      9.90443e+7 
           7990      9.81478e+7 
           8010      9.71298e+7 
           8030       9.6185e+7 
           8050      9.52949e+7 
           8070      9.44472e+7 
           8090      9.33879e+7 
           8110      9.26472e+7 
           8130      9.18442e+7 
           8150      9.08892e+7 
           8170      9.01682e+7 
           8190      8.92117e+7 
           8210      8.82857e+7 
           8230      8.76736e+7 
           8250      8.69058e+7 
           8270      8.57424e+7 
           8290      8.52689e+7 
           8310      8.45261e+7 
           8330      8.37135e+7 
           8350       8.2589e+7 
           8370       8.2098e+7 
           8390      8.14608e+7 
           8410      8.07276e+7 
           8430      7.99474e+7 
           8450        7.872e+7 
           8470      7.84852e+7 
           8490      7.76141e+7 
           8510      7.69792e+7 
           8530      7.62096e+7 
           8550      7.51629e+7 
           8570      7.54075e+7 
