# Kurucz ODFNEW /NOVER (2003)
# teff = 26000 K (value for the effective temperature for the model. Temperatures are given in K)
# logg = 4 log(cm/s2) (value for Log(G) for the model.)
# meta = -0.5  (value for the Metallicity for the model.)
# lh = 1.25  (l/Hp where l is the  mixing length of the convective element and Hp is the pressure scale height)
# vtur = 2 km/s (Microturbulence velocity)
# alpha = 0.4  (Alpha)
#
# column 1: WAVELENGTH (ANGSTROM), Wavelength in Angstrom
# column 2: FLUX (ERG/CM2/S/A), Flux in erg/cm2/s/A
          147.2     3.17566e-13 
            151     1.29715e-12 
          155.2     5.72671e-12 
          158.8     1.93254e-11 
            162     5.47466e-11 
            166     1.91195e-10 
          170.3      6.9008e-10 
          173.4       1.6812e-9 
          176.8      4.31371e-9 
          180.2      1.07051e-8 
          181.7      1.58201e-8 
          186.1      4.81229e-8 
            191      1.56832e-7 
          193.9      3.07097e-7 
          198.4      8.38704e-7 
          201.8       1.7402e-6 
            205      3.38433e-6 
          210.5      1.01353e-5 
          216.2      2.97813e-5 
          219.8      5.71457e-5 
            223     0.000100188 
          226.8     0.000191498 
            230       0.0185438 
            234       0.0419607 
            240       0.0926192 
          246.5        0.210635 
          252.4        0.432815 
          256.8         0.67541 
            260          1.0549 
            264         1.57262 
          268.5         2.56454 
          273.5         4.25198 
          278.5         6.89857 
            284         12.4753 
            290         21.1815 
            296         35.4121 
            301         52.9162 
            308         93.5906 
            318         213.258 
            328         417.475 
            338         838.972 
            348         1562.58 
            357         5067.04 
            366         9322.62 
            375         13982.1 
            385         22910.5 
            395         38823.5 
            405         57867.4 
            414           84599 
            422          110537 
            430          150280 
            441          219125 
            451          303197 
            460          392610 
            470          534124 
            480          703784 
            490          931876 
            500      1.21233e+6 
            506      6.93556e+6 
            512      3.08849e+7 
            520      3.41369e+7 
            530      4.01018e+7 
            540      4.09661e+7 
            550      5.61607e+7 
            560      6.50591e+7 
            570      7.57065e+7 
            580      7.30244e+7 
            590      9.27505e+7 
            600      1.00953e+8 
            610      1.16228e+8 
            620      1.27161e+8 
            630        1.371e+8 
            640      1.35562e+8 
            650      1.32457e+8 
            658      1.61207e+8 
            665      1.79392e+8 
            675      1.85469e+8 
            685      1.92208e+8 
            695      2.33529e+8 
            705       2.3613e+8 
            716      2.66144e+8 
            726      2.74823e+8 
            735      2.88462e+8 
            745      3.20307e+8 
            755       3.3846e+8 
            765      3.60614e+8 
            775      3.84291e+8 
            785      4.09599e+8 
            795      4.23303e+8 
            805      4.41623e+8 
            815        4.538e+8 
            825      4.88092e+8 
            835      4.48833e+8 
            845      5.11675e+8 
            855      5.28022e+8 
            865      5.57321e+8 
            875      5.87169e+8 
            885      6.24383e+8 
            895      6.50249e+8 
            905      6.55048e+8 
            915      8.98823e+8 
            925      5.84319e+9 
            935     1.37962e+10 
            945     2.70293e+10 
            955     3.24838e+10 
            965      3.9011e+10 
            975     1.01904e+10 
            985     3.55659e+10 
            995     3.28485e+10 
           1005     3.58097e+10 
           1015     3.56542e+10 
           1025     1.85531e+10 
           1035     3.00659e+10 
           1045     4.03802e+10 
           1055     3.77804e+10 
           1065     3.14277e+10 
           1075      3.5025e+10 
           1085     3.20623e+10 
           1095     3.52057e+10 
           1105     3.18162e+10 
           1115     3.08359e+10 
           1125     2.55671e+10 
           1135     3.18409e+10 
           1145     2.87165e+10 
           1155     2.94826e+10 
           1165     2.94838e+10 
           1175     2.02597e+10 
           1185     2.76787e+10 
           1195     2.54982e+10 
           1205     1.82238e+10 
           1215     1.31154e+10 
           1225     2.32129e+10 
           1235     2.57793e+10 
           1245     2.52648e+10 
           1255     2.47896e+10 
           1265     2.48112e+10 
           1275     2.52532e+10 
           1285     2.47088e+10 
           1295     1.85828e+10 
           1305     1.97655e+10 
           1315     2.36574e+10 
           1325     2.23339e+10 
           1335      2.1692e+10 
           1345     2.14185e+10 
           1355     2.14934e+10 
           1365     2.00271e+10 
           1375     1.95067e+10 
           1385       1.914e+10 
           1395     1.39295e+10 
           1405     1.51602e+10 
           1415     1.74911e+10 
           1425     1.68691e+10 
           1435     1.73042e+10 
           1442     1.76443e+10 
           1447     1.72939e+10 
           1455     1.67804e+10 
           1465     1.59158e+10 
           1475     1.59197e+10 
           1485     1.56203e+10 
           1495     1.52708e+10 
           1505     1.41391e+10 
           1512     1.30852e+10 
           1517     1.33967e+10 
           1525      1.3539e+10 
           1535      1.1865e+10 
           1545     1.17041e+10 
           1555     1.11986e+10 
           1565      1.1887e+10 
           1575     1.24004e+10 
           1585     1.22078e+10 
           1595     1.21926e+10 
           1605     1.19235e+10 
           1615     1.15866e+10 
           1625     1.15146e+10 
           1635      1.1868e+10 
           1645      1.1677e+10 
           1655     1.15839e+10 
           1665     1.15397e+10 
           1672      1.1142e+10 
           1677     1.18889e+10 
           1685      1.1513e+10 
           1695     1.10191e+10 
           1705     1.06626e+10 
           1715      1.0204e+10 
           1725     1.00004e+10 
           1735     1.01938e+10 
           1745     1.00236e+10 
           1755      9.99952e+9 
           1765      9.78241e+9 
           1775      9.32788e+9 
           1785      9.36212e+9 
           1795      9.48726e+9 
           1805      9.48026e+9 
           1815      8.76219e+9 
           1825      8.94785e+9 
           1835      8.70011e+9 
           1845      7.97855e+9 
           1855      8.04702e+9 
           1865      8.14692e+9 
           1875      8.26128e+9 
           1885      7.50538e+9 
           1895      7.00957e+9 
           1905      7.46914e+9 
           1915      7.12701e+9 
           1925      6.79757e+9 
           1935       7.1201e+9 
           1945      7.24216e+9 
           1955      6.59459e+9 
           1967      7.00112e+9 
           1976      7.29863e+9 
           1984      6.78232e+9 
           1995      6.64876e+9 
           2005      6.77275e+9 
           2015      6.74141e+9 
           2025       6.8513e+9 
           2035      6.34992e+9 
           2045      6.38031e+9 
           2055      6.08714e+9 
           2065      6.09662e+9 
           2074      6.30578e+9 
           2078      5.89922e+9 
           2085       6.0687e+9 
           2095      5.82095e+9 
           2105      5.98564e+9 
           2115      5.96235e+9 
           2125       6.0094e+9 
           2135       5.8891e+9 
           2145      5.63044e+9 
           2155      5.77738e+9 
           2165      5.72188e+9 
           2175      5.62726e+9 
           2185      5.51108e+9 
           2195      5.51478e+9 
           2205      5.46046e+9 
           2215      5.38385e+9 
           2225      5.25954e+9 
           2235      5.16862e+9 
           2245      5.17664e+9 
           2255      5.04919e+9 
           2265       5.0481e+9 
           2275      4.97885e+9 
           2285      4.93089e+9 
           2295      4.63303e+9 
           2305      4.77798e+9 
           2315      4.67585e+9 
           2325      4.62031e+9 
           2335      4.50903e+9 
           2345      4.51655e+9 
           2355      4.48018e+9 
           2365      4.42836e+9 
           2375      4.34226e+9 
           2385      4.29983e+9 
           2395      4.24035e+9 
           2405       4.1851e+9 
           2415      4.11828e+9 
           2425      4.10213e+9 
           2435      4.00669e+9 
           2445      3.98306e+9 
           2455      3.95567e+9 
           2465      3.90486e+9 
           2475      3.84495e+9 
           2485      3.78119e+9 
           2495      3.31853e+9 
           2505      3.66312e+9 
           2513      3.54772e+9 
           2518      3.61244e+9 
           2525      3.60088e+9 
           2535      3.56726e+9 
           2545      3.43987e+9 
           2555       3.4598e+9 
           2565      3.41043e+9 
           2575      3.40417e+9 
           2585      3.36243e+9 
           2595      3.32599e+9 
           2605      3.30084e+9 
           2615      3.25807e+9 
           2625      3.22717e+9 
           2635      3.18807e+9 
           2645      3.14925e+9 
           2655      3.11457e+9 
           2665      3.04037e+9 
           2675      3.02347e+9 
           2685      3.01233e+9 
           2695      2.92637e+9 
           2705      2.90534e+9 
           2715      2.88556e+9 
           2725      2.84367e+9 
           2735      2.82534e+9 
           2745      2.77764e+9 
           2755      2.75716e+9 
           2765      2.71385e+9 
           2775      2.71639e+9 
           2785      2.67506e+9 
           2795        2.584e+9 
           2805       2.6009e+9 
           2815      2.59543e+9 
           2825      2.54787e+9 
           2835      2.48751e+9 
           2845      2.50743e+9 
           2855      2.46826e+9 
           2865      2.44932e+9 
           2875      2.42192e+9 
           2885      2.39859e+9 
           2895      2.36677e+9 
           2910      2.31881e+9 
           2930       2.2762e+9 
           2950      2.21267e+9 
           2970      2.18096e+9 
           2990      2.13039e+9 
           3010       2.0687e+9 
           3030       2.0421e+9 
           3050      2.00512e+9 
           3070      1.96845e+9 
           3090      1.89866e+9 
           3110       1.8839e+9 
           3130      1.83937e+9 
           3150      1.80629e+9 
           3170      1.76707e+9 
           3190      1.72233e+9 
           3210      1.70079e+9 
           3230      1.66137e+9 
           3250      1.63328e+9 
           3270       1.5998e+9 
           3290      1.56673e+9 
           3310      1.53923e+9 
           3330      1.50744e+9 
           3350      1.47828e+9 
           3370      1.44974e+9 
           3390      1.42508e+9 
           3410      1.39863e+9 
           3430      1.36684e+9 
           3450      1.33622e+9 
           3470       1.3132e+9 
           3490      1.28774e+9 
           3510      1.26849e+9 
           3530      1.24925e+9 
           3550      1.22589e+9 
           3570      1.20891e+9 
           3590      1.17636e+9 
           3610      1.15822e+9 
           3630      1.13672e+9 
           3640      1.13514e+9 
           3650      1.11089e+9 
           3670      1.09775e+9 
           3690       1.0746e+9 
           3710      1.03624e+9 
           3730      9.97678e+8 
           3750      1.03901e+9 
           3770      1.03151e+9 
           3790      1.07324e+9 
           3810      1.10869e+9 
           3830      9.82241e+8 
           3850      1.12171e+9 
           3870      1.11402e+9 
           3890      9.31311e+8 
           3910      1.10155e+9 
           3930      1.07051e+9 
           3950      1.05873e+9 
           3970       8.6454e+8 
           3990      1.02102e+9 
           4010      1.01365e+9 
           4030      9.62578e+8 
           4050      9.84859e+8 
           4070      9.46048e+8 
           4090      8.87453e+8 
           4110      7.95739e+8 
           4130      8.97866e+8 
           4150      8.92207e+8 
           4170      8.86616e+8 
           4190      8.73451e+8 
           4210      8.63982e+8 
           4230      8.46904e+8 
           4250      8.26333e+8 
           4270      8.05015e+8 
           4290      7.95029e+8 
           4310        7.755e+8 
           4330      7.19364e+8 
           4350      6.59826e+8 
           4370      7.38983e+8 
           4390      7.23273e+8 
           4410      7.22791e+8 
           4430      7.14743e+8 
           4450      7.03158e+8 
           4470      6.69654e+8 
           4490      6.80259e+8 
           4510      6.74165e+8 
           4530       6.6336e+8 
           4550      6.52082e+8 
           4570      6.41065e+8 
           4590      6.30538e+8 
           4610      6.19371e+8 
           4630      6.11044e+8 
           4650      5.92522e+8 
           4670      5.91068e+8 
           4690      5.85062e+8 
           4710      5.64039e+8 
           4730      5.66587e+8 
           4750      5.56867e+8 
           4770      5.53382e+8 
           4790      5.44518e+8 
           4810      5.34154e+8 
           4830      5.23118e+8 
           4850      4.92307e+8 
           4870      4.44145e+8 
           4890      5.01301e+8 
           4910      4.96131e+8 
           4930       4.7945e+8 
           4950      4.80981e+8 
           4970      4.77087e+8 
           4990      4.69821e+8 
           5010      4.54235e+8 
           5030      4.55975e+8 
           5050      4.45915e+8 
           5070      4.43694e+8 
           5090      4.36811e+8 
           5110      4.30484e+8 
           5130       4.2357e+8 
           5150      4.17872e+8 
           5170      4.12672e+8 
           5190      4.07315e+8 
           5210       4.0085e+8 
           5230      3.96261e+8 
           5250      3.90869e+8 
           5270      3.85168e+8 
           5290      3.80269e+8 
           5310      3.74938e+8 
           5330      3.69848e+8 
           5350      3.64548e+8 
           5370      3.60126e+8 
           5390      3.54995e+8 
           5410       3.5047e+8 
           5430      3.45542e+8 
           5450      3.40842e+8 
           5470       3.3639e+8 
           5490      3.32156e+8 
           5510      3.27974e+8 
           5530      3.23463e+8 
           5550       3.1946e+8 
           5570      3.15191e+8 
           5590      3.11228e+8 
           5610      3.07037e+8 
           5630      3.03279e+8 
           5650      2.98634e+8 
           5670      2.94281e+8 
           5690       2.9011e+8 
           5710      2.87503e+8 
           5730        2.841e+8 
           5750      2.79768e+8 
           5770      2.77187e+8 
           5790      2.73624e+8 
           5810      2.70192e+8 
           5830      2.66601e+8 
           5850      2.63438e+8 
           5870      2.53184e+8 
           5890      2.55822e+8 
           5910      2.53468e+8 
           5930       2.5025e+8 
           5950      2.47017e+8 
           5970      2.44678e+8 
           5990      2.41241e+8 
           6010      2.38657e+8 
           6030      2.35595e+8 
           6050      2.32867e+8 
           6070      2.30159e+8 
           6090       2.2738e+8 
           6110      2.24693e+8 
           6130      2.22056e+8 
           6150      2.18951e+8 
           6170      2.16574e+8 
           6190      2.14193e+8 
           6210      2.11722e+8 
           6230      2.09258e+8 
           6250      2.06648e+8 
           6270      2.04297e+8 
           6290      2.01981e+8 
           6310       1.9952e+8 
           6330      1.97339e+8 
           6350       1.9465e+8 
           6370      1.92687e+8 
           6390      1.90532e+8 
           6410      1.88346e+8 
           6430      1.86292e+8 
           6450      1.84143e+8 
           6470      1.81764e+8 
           6490      1.79787e+8 
           6510      1.77866e+8 
           6530      1.75197e+8 
           6550       1.6893e+8 
           6570      1.51015e+8 
           6590      1.68135e+8 
           6610      1.67972e+8 
           6630      1.66335e+8 
           6650      1.64441e+8 
           6670      1.61289e+8 
           6690      1.59568e+8 
           6710      1.59221e+8 
           6730      1.57245e+8 
           6750      1.55802e+8 
           6770       1.5411e+8 
           6790      1.51961e+8 
           6810      1.50713e+8 
           6830      1.49007e+8 
           6850      1.47528e+8 
           6870      1.45936e+8 
           6890      1.44273e+8 
           6910      1.42642e+8 
           6930      1.41302e+8 
           6950      1.39835e+8 
           6970      1.38359e+8 
           6990      1.36882e+8 
           7010      1.35435e+8 
           7030      1.34003e+8 
           7050      1.32614e+8 
           7070      1.29212e+8 
           7090      1.29863e+8 
           7110      1.28329e+8 
           7130      1.27076e+8 
           7150       1.2585e+8 
           7170      1.24548e+8 
           7190      1.23288e+8 
           7210      1.22025e+8 
           7230      1.19701e+8 
           7250      1.19385e+8 
           7270      1.18316e+8 
           7290        1.162e+8 
           7310      1.15911e+8 
           7330      1.14746e+8 
           7350      1.13599e+8 
           7370      1.12463e+8 
           7390      1.11338e+8 
           7410      1.10223e+8 
           7430      1.09092e+8 
           7450      1.08032e+8 
           7470      1.06657e+8 
           7490       1.0588e+8 
           7510      1.04823e+8 
           7530      1.03788e+8 
           7550       1.0281e+8 
           7570      1.01807e+8 
           7590        1.008e+8 
           7610      9.97376e+7 
           7630      9.88466e+7 
           7650      9.78862e+7 
           7670      9.69474e+7 
           7690      9.60042e+7 
           7710      9.50758e+7 
           7730      9.41431e+7 
           7750      9.32627e+7 
           7770       9.2103e+7 
           7790      9.14941e+7 
           7810      9.05691e+7 
           7830      8.97567e+7 
           7850      8.89393e+7 
           7870      8.80438e+7 
           7890      8.70896e+7 
           7910      8.64631e+7 
           7930      8.56382e+7 
           7950      8.47429e+7 
           7970      8.38496e+7 
           7990      8.30291e+7 
           8010      8.23096e+7 
           8030      8.15437e+7 
           8050      8.08309e+7 
           8070      8.01473e+7 
           8090      7.92565e+7 
           8110      7.83792e+7 
           8130      7.79713e+7 
           8150      7.71637e+7 
           8170      7.65888e+7 
           8190      7.56479e+7 
           8210      7.48159e+7 
           8230      7.42469e+7 
           8250      7.37324e+7 
           8270      7.25059e+7 
           8290      7.23209e+7 
           8310      7.17168e+7 
           8330      7.10634e+7 
           8350      7.00858e+7 
           8370      6.96383e+7 
           8390      6.91462e+7 
           8410      6.85088e+7 
           8430      6.78448e+7 
           8450      6.67326e+7 
           8470      6.65491e+7 
           8490      6.59223e+7 
           8510      6.51707e+7 
           8530      6.48551e+7 
           8550       6.3377e+7 
           8570      6.44203e+7 
