# Kurucz ODFNEW /NOVER (2003)
# teff = 30000 K (value for the effective temperature for the model. Temperatures are given in K)
# logg = 5 log(cm/s2) (value for Log(G) for the model.)
# meta = -4  (value for the Metallicity for the model.)
# lh = 1.25  (l/Hp where l is the  mixing length of the convective element and Hp is the pressure scale height)
# vtur = 2 km/s (Microturbulence velocity)
# alpha = 0.4  (Alpha)
#
# column 1: WAVELENGTH (ANGSTROM), Wavelength in Angstrom
# column 2: FLUX (ERG/CM2/S/A), Flux in erg/cm2/s/A
          147.2      5.91404e-8 
            151      2.08117e-7 
          155.2      7.75808e-7 
          158.8      2.26165e-6 
            162      5.61491e-6 
            166      1.66149e-5 
          170.3       5.0243e-5 
          173.4     0.000107635 
          176.8     0.000240308 
          180.2     0.000519615 
          181.7     0.000723131 
          186.1      0.00184551 
            191      0.00496416 
          193.9      0.00869568 
          198.4       0.0200479 
          201.8       0.0367041 
            205       0.0635944 
          210.5        0.156872 
          216.2        0.379627 
          219.8        0.646784 
            223         1.02256 
          226.8         1.73013 
            230         11.4593 
            234         28.7969 
            240         55.3361 
          246.5          108.65 
          252.4          195.06 
          256.8          268.01 
            260         390.171 
            264         553.073 
          268.5         807.625 
          273.5         1211.29 
          278.5         1793.98 
            284         2716.64 
            290         4191.24 
            296         6329.27 
            301         8693.79 
            308         12908.6 
            318         25283.7 
            328         44422.9 
            338         75280.6 
            348          123511 
            357          187772 
            366          279479 
            375          406774 
            385          603784 
            395          875828 
            405      1.24479e+6 
            414      1.68073e+6 
            422      2.16708e+6 
            430      2.76384e+6 
            441      3.80098e+6 
            451      4.99766e+6 
            460      6.31752e+6 
            470      8.09926e+6 
            480      1.02543e+7 
            490      1.28407e+7 
            500       1.5901e+7 
            506      8.17579e+7 
            512      3.09841e+8 
            520      3.29945e+8 
            530       3.9391e+8 
            540      3.78215e+8 
            550      4.38712e+8 
            560      4.61782e+8 
            570      4.87731e+8 
            580      4.75515e+8 
            590      5.36317e+8 
            600      5.71373e+8 
            610      6.03344e+8 
            620      6.35246e+8 
            630      6.69513e+8 
            640      7.03618e+8 
            650      7.41029e+8 
            658      7.70863e+8 
            665       7.9751e+8 
            675      8.34861e+8 
            685      8.70879e+8 
            695      9.17207e+8 
            705      9.53525e+8 
            716      1.00293e+9 
            726       1.0459e+9 
            735      1.08718e+9 
            745      1.13122e+9 
            755      1.17567e+9 
            765      1.22039e+9 
            775      1.26594e+9 
            785      1.31141e+9 
            795      1.35665e+9 
            805      1.40245e+9 
            815      1.44799e+9 
            825      1.49369e+9 
            835      1.52426e+9 
            845      1.58474e+9 
            855      1.62983e+9 
            865      1.67493e+9 
            875      1.71963e+9 
            885      1.76401e+9 
            895      1.80787e+9 
            905      1.85029e+9 
            915      2.11879e+9 
            925       8.7126e+9 
            935     1.90355e+10 
            945     4.52569e+10 
            955     5.91019e+10 
            965     7.91992e+10 
            975     4.03905e+10 
            985     8.87594e+10 
            995      8.2574e+10 
           1005      8.7414e+10 
           1015     7.97358e+10 
           1025     3.03008e+10 
           1035     7.24779e+10 
           1045     7.84249e+10 
           1055     7.70366e+10 
           1065     7.46135e+10 
           1075     7.27624e+10 
           1085     6.66591e+10 
           1095     6.93526e+10 
           1105     6.72113e+10 
           1115     6.56778e+10 
           1125     6.33426e+10 
           1135     6.24273e+10 
           1145     6.07526e+10 
           1155     5.92109e+10 
           1165     5.77103e+10 
           1175      5.3676e+10 
           1185     5.45553e+10 
           1195     5.26621e+10 
           1205     4.73706e+10 
           1215     1.97773e+10 
           1225      4.4074e+10 
           1235     4.75523e+10 
           1245     4.68109e+10 
           1255       4.591e+10 
           1265     4.48975e+10 
           1275     4.38391e+10 
           1285     4.28149e+10 
           1295     4.13475e+10 
           1305     4.06477e+10 
           1315     3.98423e+10 
           1325     3.89084e+10 
           1335     3.77908e+10 
           1345     3.71331e+10 
           1355     3.62792e+10 
           1365     3.54443e+10 
           1375     3.46457e+10 
           1385     3.38801e+10 
           1395     3.27766e+10 
           1405     3.21361e+10 
           1415     3.16985e+10 
           1425     3.10048e+10 
           1435     3.03217e+10 
           1442     2.98523e+10 
           1447      2.9524e+10 
           1455     2.90133e+10 
           1465     2.83939e+10 
           1475     2.77851e+10 
           1485     2.71935e+10 
           1495     2.66169e+10 
           1505     2.60597e+10 
           1512     2.56872e+10 
           1517     2.54215e+10 
           1525     2.50033e+10 
           1535     2.44899e+10 
           1545     2.38488e+10 
           1555     2.33763e+10 
           1565     2.30093e+10 
           1575     2.25449e+10 
           1585     2.20919e+10 
           1595     2.16543e+10 
           1605     2.12259e+10 
           1615     2.08151e+10 
           1625     2.04128e+10 
           1635     1.98425e+10 
           1645     1.89212e+10 
           1655     1.92475e+10 
           1665     1.88784e+10 
           1672      1.8625e+10 
           1677     1.84458e+10 
           1685     1.81609e+10 
           1695     1.78148e+10 
           1705     1.74782e+10 
           1715     1.71469e+10 
           1725     1.68296e+10 
           1735     1.65273e+10 
           1745     1.62258e+10 
           1755     1.59314e+10 
           1765     1.56437e+10 
           1775     1.53639e+10 
           1785      1.5087e+10 
           1795     1.48142e+10 
           1805     1.45476e+10 
           1815     1.42882e+10 
           1825     1.40359e+10 
           1835     1.37916e+10 
           1845     1.35495e+10 
           1855     1.33075e+10 
           1865     1.30796e+10 
           1875     1.28601e+10 
           1885     1.26392e+10 
           1895     1.24212e+10 
           1905     1.22174e+10 
           1915      1.2008e+10 
           1925     1.18073e+10 
           1935     1.16091e+10 
           1945     1.14163e+10 
           1955      1.1223e+10 
           1967     1.10037e+10 
           1976     1.08419e+10 
           1984     1.06991e+10 
           1995     1.05067e+10 
           2005     1.03422e+10 
           2015     1.01786e+10 
           2025     1.00186e+10 
           2035       9.8603e+9 
           2045      9.70464e+9 
           2055      9.19828e+9 
           2065      9.02548e+9 
           2074      8.91229e+9 
           2078      8.86667e+9 
           2085      8.82023e+9 
           2095      8.80747e+9 
           2105      8.79966e+9 
           2115      8.69643e+9 
           2125      8.57473e+9 
           2135      8.43756e+9 
           2145      8.30749e+9 
           2155      8.18514e+9 
           2165      8.05344e+9 
           2175      7.94531e+9 
           2185      7.81113e+9 
           2195      7.71103e+9 
           2205      7.59723e+9 
           2215      7.46706e+9 
           2225      7.37627e+9 
           2235      7.26878e+9 
           2245      7.16201e+9 
           2255      7.03669e+9 
           2265       6.9545e+9 
           2275      6.85375e+9 
           2285      6.75537e+9 
           2295       6.6452e+9 
           2305      6.54427e+9 
           2315      6.47098e+9 
           2325      6.37976e+9 
           2335       6.2902e+9 
           2345      6.20241e+9 
           2355      6.11629e+9 
           2365      6.03174e+9 
           2375      5.94853e+9 
           2385      5.84927e+9 
           2395      5.78667e+9 
           2405      5.70739e+9 
           2415      5.62928e+9 
           2425      5.55264e+9 
           2435      5.47721e+9 
           2445      5.40306e+9 
           2455      5.33026e+9 
           2465       5.2587e+9 
           2475      5.18843e+9 
           2485      5.11943e+9 
           2495      5.00815e+9 
           2505      4.98416e+9 
           2513      4.90063e+9 
           2518      4.90032e+9 
           2525      4.85552e+9 
           2535      4.79255e+9 
           2545      4.73042e+9 
           2555      4.66922e+9 
           2565      4.60912e+9 
           2575      4.54999e+9 
           2585      4.49185e+9 
           2595      4.43469e+9 
           2605      4.40138e+9 
           2615      4.34558e+9 
           2625      4.29066e+9 
           2635      4.23483e+9 
           2645      4.18014e+9 
           2655      4.12359e+9 
           2665      4.06528e+9 
           2675      4.00678e+9 
           2685      3.97819e+9 
           2695      3.90245e+9 
           2705       3.8806e+9 
           2715      3.83311e+9 
           2725      3.75576e+9 
           2735      3.73162e+9 
           2745      3.69454e+9 
           2755       3.6497e+9 
           2765      3.57358e+9 
           2775       3.5622e+9 
           2785      3.51947e+9 
           2795      3.47712e+9 
           2805      3.43599e+9 
           2815      3.39527e+9 
           2825      3.31784e+9 
           2835      3.29508e+9 
           2845      3.27652e+9 
           2855      3.23803e+9 
           2865      3.20018e+9 
           2875      3.16287e+9 
           2885       3.1261e+9 
           2895      3.08979e+9 
           2910       3.0364e+9 
           2930        2.967e+9 
           2950      2.87539e+9 
           2970      2.83432e+9 
           2990      2.77091e+9 
           3010      2.70934e+9 
           3030      2.64944e+9 
           3050      2.59112e+9 
           3070      2.53445e+9 
           3090      2.47929e+9 
           3110      2.42574e+9 
           3130      2.37576e+9 
           3150      2.32488e+9 
           3170      2.27528e+9 
           3190      2.20516e+9 
           3210      2.17754e+9 
           3230      2.13318e+9 
           3250      2.08836e+9 
           3270      2.04732e+9 
           3290      2.00242e+9 
           3310      1.96426e+9 
           3330      1.92436e+9 
           3350      1.88205e+9 
           3370      1.84761e+9 
           3390      1.81066e+9 
           3410      1.77464e+9 
           3430      1.73239e+9 
           3450      1.69214e+9 
           3470      1.66384e+9 
           3490      1.63146e+9 
           3510      1.60148e+9 
           3530      1.57196e+9 
           3550      1.54264e+9 
           3570      1.52348e+9 
           3590      1.48203e+9 
           3610      1.46091e+9 
           3630      1.42702e+9 
           3640      1.42613e+9 
           3650      1.40877e+9 
           3670      1.38822e+9 
           3690      1.36345e+9 
           3710      1.31931e+9 
           3730      1.27736e+9 
           3750      1.25748e+9 
           3770      1.21806e+9 
           3790      1.25607e+9 
           3810      1.30323e+9 
           3830      1.13957e+9 
           3850      1.33432e+9 
           3870      1.36051e+9 
           3890       1.0664e+9 
           3910       1.3337e+9 
           3930      1.33101e+9 
           3950      1.29135e+9 
           3970      9.88452e+8 
           3990      1.23314e+9 
           4010      1.23887e+9 
           4030      1.15664e+9 
           4050      1.21192e+9 
           4070      1.18364e+9 
           4090      1.06462e+9 
           4110      9.27009e+8 
           4130      1.10486e+9 
           4150      1.09842e+9 
           4170      1.09161e+9 
           4190      1.07561e+9 
           4210       1.0567e+9 
           4230       1.0389e+9 
           4250      1.02105e+9 
           4270      1.00316e+9 
           4290      9.83045e+8 
           4310      9.58164e+8 
           4330      8.48866e+8 
           4350      7.74284e+8 
           4370      9.06763e+8 
           4390      8.72971e+8 
           4410      8.89904e+8 
           4430      8.72769e+8 
           4450      8.61422e+8 
           4470      8.00542e+8 
           4490      8.32594e+8 
           4510      8.20725e+8 
           4530      8.07454e+8 
           4550      7.94112e+8 
           4570      7.81711e+8 
           4590      7.69227e+8 
           4610      7.56983e+8 
           4630      7.45009e+8 
           4650      7.33231e+8 
           4670      7.21712e+8 
           4690      7.08206e+8 
           4710      6.89875e+8 
           4730      6.88431e+8 
           4750      6.77787e+8 
           4770       6.6733e+8 
           4790      6.56679e+8 
           4810      6.44586e+8 
           4830      6.29376e+8 
           4850      5.69486e+8 
           4870      5.08445e+8 
           4890      5.97405e+8 
           4910      5.95454e+8 
           4930      5.71614e+8 
           4950       5.8178e+8 
           4970      5.73203e+8 
           4990      5.64744e+8 
           5010      5.48852e+8 
           5030      5.48233e+8 
           5050      5.36957e+8 
           5070      5.32421e+8 
           5090      5.24697e+8 
           5110      5.17121e+8 
           5130      5.09675e+8 
           5150      5.02358e+8 
           5170      4.95181e+8 
           5190      4.88127e+8 
           5210      4.81194e+8 
           5230      4.74395e+8 
           5250      4.67712e+8 
           5270       4.6113e+8 
           5290      4.54688e+8 
           5310      4.48343e+8 
           5330      4.42121e+8 
           5350      4.36004e+8 
           5370      4.29993e+8 
           5390      4.24085e+8 
           5410      4.18136e+8 
           5430       4.1257e+8 
           5450      4.06973e+8 
           5470      4.01447e+8 
           5490      3.96027e+8 
           5510      3.90688e+8 
           5530       3.8544e+8 
           5550      3.80295e+8 
           5570      3.75225e+8 
           5590       3.7023e+8 
           5610      3.65333e+8 
           5630      3.60507e+8 
           5650      3.55764e+8 
           5670      3.51103e+8 
           5690      3.46521e+8 
           5710      3.42006e+8 
           5730      3.37569e+8 
           5750      3.33208e+8 
           5770      3.28911e+8 
           5790      3.24676e+8 
           5810      3.20525e+8 
           5830      3.16434e+8 
           5850      3.12403e+8 
           5870      2.97507e+8 
           5890        3.037e+8 
           5910      3.00699e+8 
           5930      2.96928e+8 
           5950      2.93211e+8 
           5970      2.89548e+8 
           5990      2.85948e+8 
           6010        2.824e+8 
           6030      2.78914e+8 
           6050      2.75467e+8 
           6070       2.7209e+8 
           6090      2.68752e+8 
           6110      2.65472e+8 
           6130      2.62239e+8 
           6150      2.59052e+8 
           6170       2.5592e+8 
           6190      2.52834e+8 
           6210      2.49791e+8 
           6230      2.46792e+8 
           6250      2.43846e+8 
           6270      2.40941e+8 
           6290      2.38079e+8 
           6310      2.35257e+8 
           6330      2.32475e+8 
           6350      2.29742e+8 
           6370      2.27039e+8 
           6390      2.24384e+8 
           6410      2.21766e+8 
           6430      2.19186e+8 
           6450      2.16634e+8 
           6470      2.14126e+8 
           6490      2.11655e+8 
           6510      2.08685e+8 
           6530      2.05138e+8 
           6550      1.93649e+8 
           6570      1.71656e+8 
           6590      1.96545e+8 
           6610      1.96737e+8 
           6630      1.95157e+8 
           6650      1.93227e+8 
           6670      1.88632e+8 
           6690      1.86563e+8 
           6710        1.868e+8 
           6730      1.84718e+8 
           6750      1.82666e+8 
           6770      1.80643e+8 
           6790       1.7864e+8 
           6810      1.76675e+8 
           6830      1.74729e+8 
           6850      1.72819e+8 
           6870      1.70928e+8 
           6890      1.69064e+8 
           6910      1.67219e+8 
           6930      1.65408e+8 
           6950      1.63623e+8 
           6970      1.61856e+8 
           6990      1.60114e+8 
           7010      1.58396e+8 
           7030      1.56703e+8 
           7050      1.55027e+8 
           7070      1.50745e+8 
           7090      1.51754e+8 
           7110      1.50149e+8 
           7130      1.48559e+8 
           7150         1.47e+8 
           7170      1.45441e+8 
           7190      1.43933e+8 
           7210      1.42426e+8 
           7230      1.40947e+8 
           7250      1.39482e+8 
           7270      1.38032e+8 
           7290      1.35404e+8 
           7310      1.35186e+8 
           7330      1.33811e+8 
           7350      1.32435e+8 
           7370      1.31079e+8 
           7390      1.29743e+8 
           7410      1.28419e+8 
           7430      1.27114e+8 
           7450      1.25842e+8 
           7470      1.24575e+8 
           7490       1.2332e+8 
           7510      1.22036e+8 
           7530       1.2085e+8 
           7550      1.19643e+8 
           7570      1.18453e+8 
           7590      1.17273e+8 
           7610      1.16111e+8 
           7630       1.1496e+8 
           7650      1.13825e+8 
           7670      1.12701e+8 
           7690      1.11593e+8 
           7710      1.10501e+8 
           7730       1.0942e+8 
           7750      1.08354e+8 
           7770      1.07298e+8 
           7790      1.06257e+8 
           7810      1.05176e+8 
           7830      1.04209e+8 
           7850      1.03306e+8 
           7870      1.02313e+8 
           7890      1.01287e+8 
           7910       1.0036e+8 
           7930       9.9399e+7 
           7950      9.84524e+7 
           7970      9.74252e+7 
           7990      9.65899e+7 
           8010      9.55797e+7 
           8030        9.459e+7 
           8050      9.36962e+7 
           8070      9.28621e+7 
           8090      9.18567e+7 
           8110      9.11178e+7 
           8130      9.02939e+7 
           8150      8.93976e+7 
           8170      8.86443e+7 
           8190      8.77233e+7 
           8210      8.68381e+7 
           8230      8.62219e+7 
           8250      8.54557e+7 
           8270      8.43433e+7 
           8290      8.38765e+7 
           8310      8.31514e+7 
           8330      8.23399e+7 
           8350      8.12544e+7 
           8370      8.07697e+7 
           8390      8.01496e+7 
           8410       7.9428e+7 
           8430      7.86698e+7 
           8450      7.74643e+7 
           8470      7.72721e+7 
           8490      7.64172e+7 
           8510      7.58712e+7 
           8530      7.50136e+7 
           8550      7.42869e+7 
           8570       7.3997e+7 
           8590      7.20139e+7 
