# Kurucz ODFNEW /NOVER (2003)
# teff = 7500 K (value for the effective temperature for the model. Temperatures are given in K)
# logg = 1 log(cm/s2) (value for Log(G) for the model.)
# meta = -1.5  (value for the Metallicity for the model.)
# lh = 1.25  (l/Hp where l is the  mixing length of the convective element and Hp is the pressure scale height)
# vtur = 2 km/s (Microturbulence velocity)
# alpha = 0.4  (Alpha)
#
# column 1: WAVELENGTH (ANGSTROM), Wavelength in Angstrom
# column 2: FLUX (ERG/CM2/S/A), Flux in erg/cm2/s/A
            375     4.54567e-23 
            385     3.94711e-22 
            395     2.84675e-21 
            405     1.85284e-20 
            414     9.22613e-20 
            422     3.62188e-19 
            430     1.34885e-18 
            441     7.58801e-18 
            451      3.3824e-17 
            460     1.22565e-16 
            470     4.82602e-16 
            480     1.79077e-15 
            490     6.28547e-15 
            500     2.09386e-14 
            506     4.14035e-14 
            512        8.32e-14 
            520     2.01113e-13 
            530     5.82958e-13 
            540     1.62164e-12 
            550     4.33893e-12 
            560     1.11906e-11 
            570      2.7875e-11 
            580     6.71797e-11 
            590     1.56925e-10 
            600     3.55821e-10 
            610     7.84399e-10 
            620      1.68342e-9 
            630      3.52174e-9 
            640      7.19079e-9 
            650       1.4346e-8 
            658      2.45338e-8 
            665      3.87979e-8 
            675      7.33805e-8 
            685      1.36087e-7 
            695      2.47661e-7 
            705      4.42676e-7 
            716      8.22086e-7 
            726      1.41836e-6 
            735      2.28614e-6 
            745      3.83018e-6 
            755      6.32422e-6 
            765      1.02972e-5 
            775      1.65432e-5 
            785      2.62361e-5 
            795      4.10965e-5 
            805      6.36113e-5 
            815      9.73323e-5 
            825     0.000147293 
            835      0.00022054 
            845     0.000326841 
            855      0.00047961 
            865     0.000697092 
            875      0.00100394 
            885      0.00143304 
            895      0.00202802 
            905      0.00284636 
            915       0.0968164 
            925        0.449544 
            935        0.587142 
            945        0.846078 
            955         1.24214 
            965         1.49389 
            975         1.33389 
            985         2.59968 
            995         3.08674 
           1005         3.90782 
           1015          3.7928 
           1025         4.19785 
           1035         6.45581 
           1045         9.48253 
           1055         12.0365 
           1065         14.3743 
           1075         17.8268 
           1085         21.5581 
           1095         25.0349 
           1105         69.2384 
           1115         170.925 
           1125         208.057 
           1135         241.439 
           1145         251.461 
           1155         225.085 
           1165         226.841 
           1175         192.926 
           1185         504.613 
           1195         63.4308 
           1205         39.7842 
           1215         11.3913 
           1225          46.823 
           1235         119.661 
           1245         221.236 
           1255         390.716 
           1265         581.023 
           1275         882.112 
           1285         1368.52 
           1295          1921.2 
           1305         2146.75 
           1315         3274.66 
           1325         5180.06 
           1335         8110.71 
           1345         15693.5 
           1355         20419.4 
           1365         28531.3 
           1375         40450.2 
           1385         50145.5 
           1395         66844.4 
           1405          103464 
           1415          142360 
           1425          195598 
           1435          207499 
           1442          283394 
           1447          326331 
           1455          437051 
           1465          449676 
           1475          512309 
           1485          613588 
           1495          766783 
           1505          898402 
           1512          887846 
           1517          621223 
           1525          653956 
           1535      1.11643e+6 
           1545      1.88173e+6 
           1555       1.8802e+6 
           1565      1.72012e+6 
           1575      2.21592e+6 
           1585      2.35555e+6 
           1595      2.79464e+6 
           1605      2.62377e+6 
           1615      2.75821e+6 
           1625      2.77344e+6 
           1635      3.26373e+6 
           1645      3.81445e+6 
           1655      2.75413e+6 
           1665      4.12086e+6 
           1672      2.37661e+6 
           1677      4.33215e+6 
           1685      4.87613e+6 
           1695      4.75949e+6 
           1705      4.65536e+6 
           1715       5.2268e+6 
           1725      5.24031e+6 
           1735      5.80358e+6 
           1745      5.56256e+6 
           1755      6.30699e+6 
           1765      5.46478e+6 
           1775      6.14533e+6 
           1785      6.13307e+6 
           1795      7.00101e+6 
           1805      6.36515e+6 
           1815      6.67397e+6 
           1825      6.13026e+6 
           1835      6.31111e+6 
           1845      5.87601e+6 
           1855      6.29662e+6 
           1865      6.40994e+6 
           1875      6.61811e+6 
           1885      6.79576e+6 
           1895      6.87697e+6 
           1905       6.3864e+6 
           1915      6.99696e+6 
           1925      7.22995e+6 
           1935      6.73877e+6 
           1945      7.55864e+6 
           1955      7.55997e+6 
           1967      7.78193e+6 
           1976      7.54708e+6 
           1984      7.51381e+6 
           1995      7.40846e+6 
           2005      7.28461e+6 
           2015      7.16887e+6 
           2025      6.90697e+6 
           2035      7.45549e+6 
           2045      7.79092e+6 
           2055      7.37085e+6 
           2065      7.33682e+6 
           2074      8.04269e+6 
           2078      8.27489e+6 
           2085      8.10165e+6 
           2095      7.88956e+6 
           2105      7.70085e+6 
           2115      7.76766e+6 
           2125      7.90238e+6 
           2135      6.59327e+6 
           2145      7.60636e+6 
           2155       7.7088e+6 
           2165      7.39349e+6 
           2175      7.41462e+6 
           2185      7.58118e+6 
           2195      8.15852e+6 
           2205      7.87238e+6 
           2215      7.17857e+6 
           2225      7.23937e+6 
           2235      8.21603e+6 
           2245      7.42841e+6 
           2255      7.22939e+6 
           2265      7.18288e+6 
           2275      7.86996e+6 
           2285      8.12159e+6 
           2295      7.59034e+6 
           2305      7.79336e+6 
           2315      7.72056e+6 
           2325      7.66334e+6 
           2335      7.09275e+6 
           2345      6.23344e+6 
           2355      7.69758e+6 
           2365      6.51932e+6 
           2375      7.41019e+6 
           2385       5.8598e+6 
           2395       6.7635e+6 
           2405      6.51588e+6 
           2415      6.88706e+6 
           2425       7.8573e+6 
           2435      7.65757e+6 
           2445      8.07841e+6 
           2455      7.87209e+6 
           2465      7.85113e+6 
           2475      7.49077e+6 
           2485      7.92537e+6 
           2495      7.78389e+6 
           2505      8.63983e+6 
           2513      7.74318e+6 
           2518      7.89309e+6 
           2525      7.33708e+6 
           2535      7.14858e+6 
           2545      7.35949e+6 
           2555      7.89698e+6 
           2565      7.84182e+6 
           2575      8.41681e+6 
           2585      8.36365e+6 
           2595      8.15666e+6 
           2605      7.77272e+6 
           2615      7.65609e+6 
           2625      8.40812e+6 
           2635      8.62711e+6 
           2645      9.87861e+6 
           2655      9.84602e+6 
           2665      9.14158e+6 
           2675      9.47559e+6 
           2685      9.57131e+6 
           2695      9.13007e+6 
           2705      9.33042e+6 
           2715      8.85397e+6 
           2725      8.98291e+6 
           2735      9.65919e+6 
           2745      7.97954e+6 
           2755      8.40963e+6 
           2765      8.81703e+6 
           2775      9.53244e+6 
           2785      9.04931e+6 
           2795      4.97193e+6 
           2805      5.99088e+6 
           2815      9.75361e+6 
           2825      1.00425e+7 
           2835      9.84053e+6 
           2845      9.63929e+6 
           2855      9.19566e+6 
           2865        9.826e+6 
           2875      9.66889e+6 
           2885      9.93963e+6 
           2895      9.70297e+6 
           2910       1.0614e+7 
           2930      1.03699e+7 
           2950      1.03839e+7 
           2970      1.06422e+7 
           2990       1.0783e+7 
           3010      1.09949e+7 
           3030      1.10291e+7 
           3050      1.09915e+7 
           3070      1.08859e+7 
           3090      1.12023e+7 
           3110      1.10178e+7 
           3130      1.10351e+7 
           3150      1.12645e+7 
           3170      1.13354e+7 
           3190      1.09538e+7 
           3210      1.12663e+7 
           3230      1.10554e+7 
           3250      1.13224e+7 
           3270       1.1414e+7 
           3290       1.1647e+7 
           3310      1.17694e+7 
           3330        1.157e+7 
           3350      1.14276e+7 
           3370      1.15548e+7 
           3390      1.16014e+7 
           3410      1.18956e+7 
           3430      1.20071e+7 
           3450      1.19674e+7 
           3470      1.18802e+7 
           3490      1.18975e+7 
           3510      1.21029e+7 
           3530      1.22265e+7 
           3550      1.23187e+7 
           3570      1.21237e+7 
           3590      1.21463e+7 
           3610      1.22303e+7 
           3630      1.22815e+7 
           3640      1.21936e+7 
           3650      1.24249e+7 
           3670      1.23953e+7 
           3690      1.37814e+7 
           3710      1.87791e+7 
           3730      2.83937e+7 
           3750       4.3643e+7 
           3770      4.45197e+7 
           3790      5.19088e+7 
           3810      5.73603e+7 
           3830      4.61894e+7 
           3850      5.98014e+7 
           3870      6.19695e+7 
           3890      4.33988e+7 
           3910       6.0262e+7 
           3930      5.23985e+7 
           3950      5.99169e+7 
           3970      3.94635e+7 
           3990      5.88092e+7 
           4010      5.90135e+7 
           4030      5.82274e+7 
           4050      5.76745e+7 
           4070      5.65223e+7 
           4090      5.24351e+7 
           4110      4.15577e+7 
           4130      5.48234e+7 
           4150      5.49591e+7 
           4170      5.35276e+7 
           4190      5.33182e+7 
           4210      5.27448e+7 
           4230      5.18724e+7 
           4250      5.14083e+7 
           4270      5.08555e+7 
           4290      5.00017e+7 
           4310      4.80441e+7 
           4330        4.344e+7 
           4350      3.75346e+7 
           4370      4.81167e+7 
           4390      4.70851e+7 
           4410      4.63645e+7 
           4430      4.68318e+7 
           4450       4.6018e+7 
           4470      4.55807e+7 
           4490      4.50074e+7 
           4510      4.47091e+7 
           4530      4.39553e+7 
           4550      4.29383e+7 
           4570      4.32921e+7 
           4590      4.26009e+7 
           4610      4.29358e+7 
           4630      4.19488e+7 
           4650      4.19599e+7 
           4670      4.14976e+7 
           4690      4.10348e+7 
           4710      4.00893e+7 
           4730       4.0236e+7 
           4750      3.99112e+7 
           4770      3.93934e+7 
           4790      3.89617e+7 
           4810      3.85048e+7 
           4830      3.79153e+7 
           4850      3.38796e+7 
           4870      2.76993e+7 
           4890        3.657e+7 
           4910      3.65524e+7 
           4930      3.58906e+7 
           4950      3.58994e+7 
           4970      3.56263e+7 
           4990      3.51477e+7 
           5010      3.43633e+7 
           5030       3.4436e+7 
           5050      3.40441e+7 
           5070      3.38171e+7 
           5090      3.34908e+7 
           5110      3.31585e+7 
           5130      3.27229e+7 
           5150      3.23911e+7 
           5170      3.16195e+7 
           5190      3.12952e+7 
           5210      3.14037e+7 
           5230      3.08307e+7 
           5250       3.0901e+7 
           5270      3.01786e+7 
           5290      3.02941e+7 
           5310      2.97885e+7 
           5330      2.94871e+7 
           5350      2.94763e+7 
           5370      2.91121e+7 
           5390      2.88265e+7 
           5410      2.85416e+7 
           5430      2.82475e+7 
           5450       2.8071e+7 
           5470      2.78207e+7 
           5490      2.75609e+7 
           5510      2.73053e+7 
           5530      2.69665e+7 
           5550      2.68276e+7 
           5570        2.656e+7 
           5590      2.62919e+7 
           5610        2.607e+7 
           5630      2.58483e+7 
           5650      2.55771e+7 
           5670      2.53454e+7 
           5690      2.51373e+7 
           5710      2.49072e+7 
           5730      2.46947e+7 
           5750      2.44616e+7 
           5770       2.4246e+7 
           5790      2.40237e+7 
           5810      2.38095e+7 
           5830      2.35943e+7 
           5850      2.33815e+7 
           5870      2.31689e+7 
           5890      2.28283e+7 
           5910      2.27635e+7 
           5930       2.2562e+7 
           5950      2.23553e+7 
           5970      2.21677e+7 
           5990      2.19559e+7 
           6010      2.17704e+7 
           6030      2.15837e+7 
           6050      2.13949e+7 
           6070      2.12163e+7 
           6090      2.10284e+7 
           6110      2.08395e+7 
           6130      2.06476e+7 
           6150       2.0396e+7 
           6170      2.02838e+7 
           6190      2.01402e+7 
           6210      1.99686e+7 
           6230      1.97882e+7 
           6250      1.95441e+7 
           6270      1.94675e+7 
           6290       1.9302e+7 
           6310      1.91241e+7 
           6330      1.89743e+7 
           6350      1.87465e+7 
           6370      1.86086e+7 
           6390      1.85015e+7 
           6410      1.83303e+7 
           6430        1.819e+7 
           6450      1.79724e+7 
           6470      1.78902e+7 
           6490      1.76844e+7 
           6510      1.75217e+7 
           6530      1.72741e+7 
           6550      1.59245e+7 
           6570      1.26324e+7 
           6590       1.6666e+7 
           6610      1.67955e+7 
           6630      1.67218e+7 
           6650      1.66256e+7 
           6670      1.64905e+7 
           6690      1.63592e+7 
           6710      1.62283e+7 
           6730      1.60946e+7 
           6750       1.5963e+7 
           6770       1.5845e+7 
           6790      1.57166e+7 
           6810      1.55944e+7 
           6830      1.54652e+7 
           6850      1.53462e+7 
           6870      1.52274e+7 
           6890      1.51074e+7 
           6910      1.49893e+7 
           6930      1.48707e+7 
           6950      1.47556e+7 
           6970      1.46393e+7 
           6990      1.45271e+7 
           7010      1.43983e+7 
           7030      1.43005e+7 
           7050      1.41914e+7 
           7070      1.40826e+7 
           7090      1.39748e+7 
           7110      1.38426e+7 
           7130      1.37569e+7 
           7150      1.36491e+7 
           7170      1.35489e+7 
           7190      1.34438e+7 
           7210      1.33396e+7 
           7230       1.3237e+7 
           7250      1.31397e+7 
           7270      1.30447e+7 
           7290      1.29407e+7 
           7310      1.28403e+7 
           7330      1.27465e+7 
           7350      1.26542e+7 
           7370      1.25641e+7 
           7390      1.24679e+7 
           7410      1.23692e+7 
           7430      1.22761e+7 
           7450      1.21885e+7 
           7470      1.20896e+7 
           7490       1.2007e+7 
           7510      1.19204e+7 
           7530      1.18372e+7 
           7550      1.17534e+7 
           7570      1.16632e+7 
           7590      1.15815e+7 
           7610      1.14973e+7 
           7630      1.14138e+7 
           7650      1.13271e+7 
           7670      1.12451e+7 
           7690      1.11644e+7 
           7710      1.10787e+7 
           7730      1.10063e+7 
           7750      1.09263e+7 
           7770      1.06954e+7 
           7790      1.07722e+7 
           7810      1.06942e+7 
           7830      1.06163e+7 
           7850      1.05378e+7 
           7870      1.04533e+7 
           7890      1.03689e+7 
           7910      1.03166e+7 
           7930      1.02406e+7 
           7950      1.01647e+7 
           7970      1.01031e+7 
           7990      1.00083e+7 
           8010      9.96077e+6 
           8030      9.89018e+6 
           8050      9.82249e+6 
           8070      9.75362e+6 
           8090      9.68588e+6 
           8110      9.61869e+6 
           8130      9.55262e+6 
           8150      9.48651e+6 
           8170      9.42093e+6 
           8190      9.33622e+6 
           8210      9.30867e+6 
           8230      9.24791e+6 
           8250      9.16937e+6 
           8270      9.14159e+6 
           8290      9.06739e+6 
           8310      8.96924e+6 
           8330      8.85076e+6 
           8350      8.85704e+6 
           8370      8.61902e+6 
           8390      8.67485e+6 
           8410      8.61872e+6 
           8430      8.85725e+6 
           8450      8.74836e+6 
           8470      8.42143e+6 
           8490      9.22954e+6 
           8510      8.29095e+6 
           8530       9.3943e+6 
           8550      8.01257e+6 
           8570       9.5956e+6 
           8590      9.01846e+6 
           8610       8.7464e+6 
           8630      9.87084e+6 
           8650      9.68578e+6 
           8670      7.85445e+6 
           8690      9.76294e+6 
           8710       9.8572e+6 
           8730      9.67121e+6 
           8750        7.834e+6 
           8770      9.35837e+6 
           8790      9.59375e+6 
           8810      9.51918e+6 
           8830        9.436e+6 
           8850      8.97205e+6 
           8870      7.61437e+6 
           8890      9.17988e+6 
           8910      9.16482e+6 
           8930      9.11578e+6 
           8950      9.11459e+6 
           8970      9.03092e+6 
           8990      8.89289e+6 
           9010      7.47193e+6 
           9030      8.21967e+6 
           9050      8.75007e+6 
           9070      8.65931e+6 
           9090      8.54329e+6 
           9110      8.58435e+6 
           9130      8.56621e+6 
           9150      8.51171e+6 
           9170      8.44953e+6 
           9190      8.36194e+6 
           9210      8.12669e+6 
           9230      6.61985e+6 
           9250       7.9117e+6 
           9270       8.0271e+6 
           9290      8.11305e+6 
           9310      8.06215e+6 
           9330      8.00641e+6 
           9350      7.95453e+6 
           9370      7.90259e+6 
           9390      7.84418e+6 
           9410      7.71769e+6 
           9430      7.73244e+6 
           9450      7.69046e+6 
