# Kurucz ODFNEW /NOVER (2003)
# teff = 19000 K (value for the effective temperature for the model. Temperatures are given in K)
# logg = 2.5 log(cm/s2) (value for Log(G) for the model.)
# meta = -2.5  (value for the Metallicity for the model.)
# lh = 1.25  (l/Hp where l is the  mixing length of the convective element and Hp is the pressure scale height)
# vtur = 2 km/s (Microturbulence velocity)
# alpha = 0.4  (Alpha)
#
# column 1: WAVELENGTH (ANGSTROM), Wavelength in Angstrom
# column 2: FLUX (ERG/CM2/S/A), Flux in erg/cm2/s/A
          147.2     3.38517e-21 
            151     2.57206e-20 
          155.2     2.14304e-19 
          158.8     1.20325e-18 
            162     5.22044e-18 
            166     3.01154e-17 
          170.3     1.80246e-16 
          173.4     6.18603e-16 
          176.8     2.27231e-15 
          180.2     7.93275e-15 
          181.7     1.35607e-14 
          186.1     6.20692e-14 
            191     3.09998e-13 
          193.9     7.71751e-13 
          198.4     3.00809e-12 
          201.8     8.06277e-12 
            205     1.97683e-11 
          210.5     8.64067e-11 
          216.2     3.66877e-10 
          219.8     8.78192e-10 
            223      1.86119e-9 
          226.8      4.41171e-9 
            230      1.19385e-8 
            234      2.90741e-8 
            240      9.59941e-8 
          246.5      3.27375e-7 
          252.4      9.45405e-7 
          256.8      1.99475e-6 
            260      3.42746e-6 
            264      6.54585e-6 
          268.5      1.32256e-5 
          273.5      2.80872e-5 
          278.5      5.80378e-5 
            284     0.000125014 
            290     0.000278802 
            296     0.000600636 
            301      0.00111159 
            308      0.00252592 
            318      0.00773546 
            328       0.0219267 
            338       0.0582321 
            348        0.145691 
            357        0.317289 
            366        0.663458 
            375         1.33504 
            385         2.78662 
            395         5.58702 
            405         10.7937 
            414         18.9574 
            422         30.5917 
            430         48.4084 
            441         88.3609 
            451         148.474 
            460         231.895 
            470         372.312 
            480         584.765 
            490         899.946 
            500         1358.56 
            506          9556.4 
            512         28854.3 
            520         38252.5 
            530         60814.5 
            540           66469 
            550          105985 
            560          134522 
            570          171343 
            580          169416 
            590          237087 
            600          327085 
            610          404298 
            620          488102 
            630          590807 
            640          695791 
            650          834333 
            658          961044 
            665      1.07305e+6 
            675      1.23712e+6 
            685      1.43707e+6 
            695      1.70065e+6 
            705      1.94843e+6 
            716      2.26924e+6 
            726      2.58198e+6 
            735      2.92171e+6 
            745      3.32864e+6 
            755      3.76283e+6 
            765      4.22451e+6 
            775      4.75559e+6 
            785      5.31691e+6 
            795      5.90852e+6 
            805      6.56519e+6 
            815      7.24505e+6 
            825      8.01641e+6 
            835      8.70196e+6 
            845      9.64583e+6 
            855      1.05197e+7 
            865      1.15366e+7 
            875      1.25853e+7 
            885      1.37084e+7 
            895      1.48571e+7 
            905      1.58792e+7 
            915      4.65543e+7 
            925      1.28725e+9 
            935      2.87508e+9 
            945      4.92181e+9 
            955      5.45375e+9 
            965      6.22485e+9 
            975      3.42155e+9 
            985      6.17654e+9 
            995      5.93771e+9 
           1005      6.15173e+9 
           1015      5.99015e+9 
           1025      3.72274e+9 
           1035      5.56711e+9 
           1045      6.40253e+9 
           1055      6.25973e+9 
           1065      5.83383e+9 
           1075      6.12091e+9 
           1085      5.82651e+9 
           1095      6.15102e+9 
           1105      5.86618e+9 
           1115      5.90022e+9 
           1125      5.64815e+9 
           1135      5.88595e+9 
           1145       5.6629e+9 
           1155      5.82141e+9 
           1165      5.80267e+9 
           1175      5.22189e+9 
           1185       5.6986e+9 
           1195      5.32899e+9 
           1205      4.57749e+9 
           1215      2.48361e+9 
           1225      5.05586e+9 
           1235      5.35124e+9 
           1245      5.33781e+9 
           1255      5.23873e+9 
           1265      5.18118e+9 
           1275      5.23603e+9 
           1285      5.16079e+9 
           1295      4.72556e+9 
           1305      4.80295e+9 
           1315      5.00185e+9 
           1325      4.88308e+9 
           1335      4.70937e+9 
           1345      4.80662e+9 
           1355       4.8098e+9 
           1365      4.71168e+9 
           1375      4.65496e+9 
           1385      4.63452e+9 
           1395      4.40667e+9 
           1405      4.42489e+9 
           1415      4.46305e+9 
           1425      4.42103e+9 
           1435      4.39915e+9 
           1442      4.37901e+9 
           1447      4.35024e+9 
           1455      4.30413e+9 
           1465      4.25137e+9 
           1475      4.20413e+9 
           1485      4.15351e+9 
           1495      4.09813e+9 
           1505      4.02123e+9 
           1512      3.99315e+9 
           1517      3.98782e+9 
           1525      3.94269e+9 
           1535      3.83009e+9 
           1545      3.83086e+9 
           1555      3.75619e+9 
           1565      3.77033e+9 
           1575      3.74432e+9 
           1585      3.70157e+9 
           1595       3.6676e+9 
           1605      3.57772e+9 
           1615       3.5363e+9 
           1625      3.52829e+9 
           1635      3.50358e+9 
           1645      3.43801e+9 
           1655      3.42244e+9 
           1665      3.39002e+9 
           1672      3.32854e+9 
           1677      3.35829e+9 
           1685      3.32395e+9 
           1695      3.27042e+9 
           1705      3.22401e+9 
           1715      3.16628e+9 
           1725      3.14361e+9 
           1735      3.11586e+9 
           1745      3.07617e+9 
           1755      3.06005e+9 
           1765      2.97419e+9 
           1775      2.96481e+9 
           1785      2.94564e+9 
           1795      2.92472e+9 
           1805      2.89887e+9 
           1815      2.84929e+9 
           1825      2.82562e+9 
           1835      2.79502e+9 
           1845      2.71633e+9 
           1855      2.65351e+9 
           1865      2.65069e+9 
           1875      2.66043e+9 
           1885      2.57142e+9 
           1895      2.50312e+9 
           1905      2.54864e+9 
           1915      2.47751e+9 
           1925      2.44604e+9 
           1935      2.45453e+9 
           1945      2.44897e+9 
           1955      2.36465e+9 
           1967      2.38895e+9 
           1976      2.38856e+9 
           1984      2.33392e+9 
           1995      2.27636e+9 
           2005       2.2956e+9 
           2015      2.28864e+9 
           2025      2.27446e+9 
           2035      2.22996e+9 
           2045      2.20586e+9 
           2055      2.14814e+9 
           2065      2.14099e+9 
           2074      2.16142e+9 
           2078      2.11341e+9 
           2085      2.11545e+9 
           2095       2.0723e+9 
           2105      2.07357e+9 
           2115      2.05864e+9 
           2125      2.04699e+9 
           2135       2.0224e+9 
           2145      1.99205e+9 
           2155      1.98009e+9 
           2165      1.96023e+9 
           2175      1.93731e+9 
           2185      1.91875e+9 
           2195      1.90076e+9 
           2205      1.88007e+9 
           2215      1.86068e+9 
           2225      1.83866e+9 
           2235      1.81946e+9 
           2245      1.80328e+9 
           2255      1.78229e+9 
           2265      1.76607e+9 
           2275      1.74752e+9 
           2285      1.73067e+9 
           2295      1.69989e+9 
           2305      1.69446e+9 
           2315      1.67514e+9 
           2325      1.65867e+9 
           2335      1.63779e+9 
           2345      1.62098e+9 
           2355      1.60887e+9 
           2365      1.59098e+9 
           2375      1.57494e+9 
           2385      1.55699e+9 
           2395      1.54192e+9 
           2405       1.5271e+9 
           2415      1.50938e+9 
           2425       1.4983e+9 
           2435      1.48208e+9 
           2445      1.46765e+9 
           2455      1.45397e+9 
           2465      1.43866e+9 
           2475      1.42448e+9 
           2485      1.40998e+9 
           2495      1.37777e+9 
           2505      1.38198e+9 
           2513      1.36639e+9 
           2518      1.36216e+9 
           2525      1.35391e+9 
           2535      1.34049e+9 
           2545      1.32137e+9 
           2555      1.31474e+9 
           2565      1.30004e+9 
           2575      1.29013e+9 
           2585      1.27735e+9 
           2595      1.26484e+9 
           2605      1.26153e+9 
           2615       1.2492e+9 
           2625      1.23566e+9 
           2635      1.22006e+9 
           2645      1.21166e+9 
           2655      1.19934e+9 
           2665      1.18659e+9 
           2675      1.17489e+9 
           2685      1.16955e+9 
           2695      1.15104e+9 
           2705      1.14707e+9 
           2715      1.13608e+9 
           2725      1.11756e+9 
           2735      1.11459e+9 
           2745      1.10184e+9 
           2755      1.09192e+9 
           2765      1.07497e+9 
           2775       1.0733e+9 
           2785      1.06298e+9 
           2795      1.04102e+9 
           2805      1.03773e+9 
           2815      1.03365e+9 
           2825      1.01615e+9 
           2835      1.01035e+9 
           2845      1.00498e+9 
           2855      9.95735e+8 
           2865      9.86639e+8 
           2875      9.77508e+8 
           2885      9.68616e+8 
           2895      9.59688e+8 
           2910      9.46484e+8 
           2930      9.29087e+8 
           2950      9.07484e+8 
           2970      8.96157e+8 
           2990      8.79953e+8 
           3010      8.64306e+8 
           3030      8.49158e+8 
           3050       8.3413e+8 
           3070       8.1946e+8 
           3090      8.04665e+8 
           3110      7.91038e+8 
           3130      7.78154e+8 
           3150      7.64393e+8 
           3170      7.50992e+8 
           3190      7.33016e+8 
           3210      7.25629e+8 
           3230      7.13168e+8 
           3250      7.00993e+8 
           3270      6.89837e+8 
           3290      6.77404e+8 
           3310      6.66938e+8 
           3330       6.5586e+8 
           3350      6.43856e+8 
           3370      6.34312e+8 
           3390      6.23899e+8 
           3410      6.13687e+8 
           3430      6.01011e+8 
           3450      5.89347e+8 
           3470      5.81697e+8 
           3490      5.73533e+8 
           3510      5.66894e+8 
           3530      5.57979e+8 
           3550      5.49139e+8 
           3570      5.42234e+8 
           3590      5.31533e+8 
           3610      5.23405e+8 
           3630      5.14823e+8 
           3640      5.13306e+8 
           3650      5.08404e+8 
           3670      5.00557e+8 
           3690      4.82889e+8 
           3710      5.01262e+8 
           3730      5.16372e+8 
           3750      5.65288e+8 
           3770      5.61666e+8 
           3790      5.64828e+8 
           3810      5.81466e+8 
           3830      5.29772e+8 
           3850      5.78851e+8 
           3870      5.66771e+8 
           3890      5.11415e+8 
           3910        5.558e+8 
           3930      5.43572e+8 
           3950      5.38733e+8 
           3970      4.76645e+8 
           3990      5.21833e+8 
           4010      5.11674e+8 
           4030      4.95938e+8 
           4050      4.99159e+8 
           4070      4.91264e+8 
           4090      4.78341e+8 
           4110       4.3585e+8 
           4130      4.65873e+8 
           4150      4.59359e+8 
           4170      4.54552e+8 
           4190      4.48807e+8 
           4210      4.42193e+8 
           4230      4.35643e+8 
           4250      4.29153e+8 
           4270      4.22539e+8 
           4290      4.16644e+8 
           4310      4.10494e+8 
           4330      3.96081e+8 
           4350      3.67442e+8 
           4370      3.92868e+8 
           4390      3.82944e+8 
           4410      3.81609e+8 
           4430      3.74965e+8 
           4450      3.70898e+8 
           4470      3.58235e+8 
           4490       3.6032e+8 
           4510      3.55354e+8 
           4530      3.50332e+8 
           4550      3.45348e+8 
           4570      3.40474e+8 
           4590      3.35779e+8 
           4610      3.31135e+8 
           4630       3.2654e+8 
           4650      3.21768e+8 
           4670       3.1755e+8 
           4690      3.13186e+8 
           4710      3.05981e+8 
           4730      3.04662e+8 
           4750      3.00432e+8 
           4770       2.9651e+8 
           4790      2.92496e+8 
           4810      2.88538e+8 
           4830      2.84635e+8 
           4850      2.76335e+8 
           4870      2.53245e+8 
           4890      2.73314e+8 
           4910      2.69779e+8 
           4930      2.63037e+8 
           4950        2.627e+8 
           4970      2.59263e+8 
           4990      2.55857e+8 
           5010      2.50336e+8 
           5030      2.49228e+8 
           5050      2.44747e+8 
           5070      2.42805e+8 
           5090      2.39665e+8 
           5110       2.3658e+8 
           5130      2.33551e+8 
           5150      2.30547e+8 
           5170      2.27626e+8 
           5190      2.24728e+8 
           5210      2.21854e+8 
           5230      2.19072e+8 
           5250      2.16313e+8 
           5270      2.13589e+8 
           5290      2.10927e+8 
           5310      2.08285e+8 
           5330      2.05691e+8 
           5350      2.03129e+8 
           5370      2.00626e+8 
           5390      1.98141e+8 
           5410      1.95714e+8 
           5430      1.93291e+8 
           5450      1.90936e+8 
           5470      1.88611e+8 
           5490      1.86314e+8 
           5510      1.84058e+8 
           5530       1.8183e+8 
           5550      1.79641e+8 
           5570      1.77479e+8 
           5590      1.75344e+8 
           5610      1.73246e+8 
           5630      1.71185e+8 
           5650      1.69137e+8 
           5670      1.67126e+8 
           5690       1.6515e+8 
           5710      1.63221e+8 
           5730      1.61304e+8 
           5750      1.59397e+8 
           5770      1.57547e+8 
           5790      1.55708e+8 
           5810      1.53901e+8 
           5830      1.52115e+8 
           5850      1.50362e+8 
           5870      1.45567e+8 
           5890      1.46904e+8 
           5910      1.45232e+8 
           5930      1.43579e+8 
           5950      1.41934e+8 
           5970      1.40329e+8 
           5990      1.38732e+8 
           6010      1.37164e+8 
           6030      1.35623e+8 
           6050        1.341e+8 
           6070      1.32594e+8 
           6090      1.31115e+8 
           6110      1.29653e+8 
           6130      1.28207e+8 
           6150      1.26787e+8 
           6170      1.25382e+8 
           6190      1.24003e+8 
           6210      1.22639e+8 
           6230       1.2129e+8 
           6250      1.19965e+8 
           6270      1.18655e+8 
           6290      1.17368e+8 
           6310      1.16095e+8 
           6330      1.14837e+8 
           6350      1.13582e+8 
           6370      1.12368e+8 
           6390      1.11168e+8 
           6410       1.0998e+8 
           6430      1.08805e+8 
           6450      1.07642e+8 
           6470      1.06501e+8 
           6490      1.05371e+8 
           6510      1.04254e+8 
           6530      1.03157e+8 
           6550      1.01009e+8 
           6570       9.2173e+7 
           6590        9.976e+7 
           6610      9.88986e+7 
           6630      9.78743e+7 
           6650      9.69201e+7 
           6670      9.53152e+7 
           6690      9.43421e+7 
           6710      9.39479e+7 
           6730      9.29744e+7 
           6750      9.20274e+7 
           6770      9.10817e+7 
           6790      9.01537e+7 
           6810       8.9235e+7 
           6830      8.83336e+7 
           6850      8.74332e+7 
           6870      8.65497e+7 
           6890       8.5675e+7 
           6910      8.48168e+7 
           6930      8.39593e+7 
           6950      8.31258e+7 
           6970      8.23004e+7 
           6990      8.14678e+7 
           7010      8.06662e+7 
           7030      7.98725e+7 
           7050      7.90789e+7 
           7070      7.72076e+7 
           7090      7.75296e+7 
           7110      7.67736e+7 
           7130      7.60174e+7 
           7150      7.52759e+7 
           7170      7.45267e+7 
           7190      7.38212e+7 
           7210      7.31079e+7 
           7230       7.2358e+7 
           7250      7.17013e+7 
           7270      7.10094e+7 
           7290      6.98285e+7 
           7310      6.96429e+7 
           7330      6.89885e+7 
           7350      6.83312e+7 
           7370      6.76813e+7 
           7390      6.70388e+7 
           7410      6.64044e+7 
           7430      6.57771e+7 
           7450      6.51665e+7 
           7470      6.45534e+7 
           7490      6.39485e+7 
           7510      6.33285e+7 
           7530      6.27587e+7 
           7550      6.21742e+7 
           7570      6.15962e+7 
           7590      6.10249e+7 
           7610      6.04606e+7 
           7630       5.9902e+7 
           7650      5.93478e+7 
           7670      5.88069e+7 
           7690      5.82625e+7 
           7710      5.77274e+7 
           7730      5.72084e+7 
           7750      5.66795e+7 
           7770      5.61654e+7 
           7790      5.56638e+7 
           7810      5.51197e+7 
           7830      5.46633e+7 
           7850      5.42243e+7 
           7870      5.37374e+7 
           7890      5.32239e+7 
           7910      5.27166e+7 
           7930      5.21845e+7 
           7950      5.17106e+7 
           7970      5.12338e+7 
           7990      5.08425e+7 
           8010      5.03493e+7 
           8030      4.99446e+7 
           8050      4.95241e+7 
           8070      4.91117e+7 
           8090      4.85889e+7 
           8110      4.81949e+7 
           8130      4.78571e+7 
           8150      4.73412e+7 
           8170      4.70341e+7 
           8190      4.66087e+7 
           8210      4.60834e+7 
           8230      4.58169e+7 
           8250      4.54129e+7 
           8270      4.48173e+7 
           8290      4.45744e+7 
           8310      4.42036e+7 
           8330      4.37999e+7 
           8350      4.32542e+7 
           8370      4.28273e+7 
           8390      4.25276e+7 
           8410      4.21146e+7 
           8430       4.1845e+7 
           8450      4.13649e+7 
           8470      4.06463e+7 
           8490      4.13341e+7 
           8510      3.98161e+7 
           8530       4.0922e+7 
           8550      3.87096e+7 
           8570      4.08604e+7 
