# Kurucz ODFNEW /NOVER (2003)
# teff = 31000 K (value for the effective temperature for the model. Temperatures are given in K)
# logg = 4.5 log(cm/s2) (value for Log(G) for the model.)
# meta = 0  (value for the Metallicity for the model.)
# lh = 1.25  (l/Hp where l is the  mixing length of the convective element and Hp is the pressure scale height)
# vtur = 2 km/s (Microturbulence velocity)
# alpha = 0  (Alpha)
#
# column 1: WAVELENGTH (ANGSTROM), Wavelength in Angstrom
# column 2: FLUX (ERG/CM2/S/A), Flux in erg/cm2/s/A
          147.2      5.96968e-8 
            151      1.78278e-7 
          155.2       5.6299e-7 
          158.8      1.44192e-6 
            162      3.21894e-6 
            166      8.42624e-6 
          170.3      2.25385e-5 
          173.4      4.46173e-5 
          176.8      9.17423e-5 
          180.2     0.000183747 
          181.7     0.000247742 
          186.1     0.000579389 
            191      0.00142808 
          193.9      0.00238479 
          198.4       0.0051349 
          201.8      0.00896502 
            205        0.014898 
          210.5       0.0344683 
          216.2       0.0785658 
          219.8        0.129569 
            223        0.199308 
          226.8        0.330748 
            230         87.3314 
            234         191.578 
            240         334.772 
          246.5         616.354 
          252.4         1057.64 
          256.8         1469.76 
            260         2386.05 
            264         3525.62 
          268.5         5259.62 
          273.5         7611.92 
          278.5         10470.5 
            284         20798.2 
            290         31066.5 
            296         43935.1 
            301         59727.2 
            308          114714 
            318          238386 
            328          373459 
            338          650284 
            348      1.03549e+6 
            357       2.5507e+6 
            366      4.72951e+6 
            375      6.07027e+6 
            385      8.97314e+6 
            395      1.51597e+7 
            405      1.94193e+7 
            414       2.6031e+7 
            422      3.04795e+7 
            430      3.76485e+7 
            441      4.85128e+7 
            451      5.79038e+7 
            460      6.62766e+7 
            470      8.20755e+7 
            480      9.91923e+7 
            490      1.17225e+8 
            500      1.40755e+8 
            506      3.58313e+8 
            512      2.42196e+9 
            520      2.30998e+9 
            530      2.19761e+9 
            540      2.05018e+9 
            550      2.58916e+9 
            560      3.04567e+9 
            570      3.20005e+9 
            580      2.92906e+9 
            590      3.25085e+9 
            600      2.94006e+9 
            610      3.42023e+9 
            620      3.85795e+9 
            630      3.80298e+9 
            640         3.64e+9 
            650       3.7072e+9 
            658      3.55834e+9 
            665      3.96319e+9 
            675      4.15686e+9 
            685      3.65116e+9 
            695      4.67924e+9 
            705      4.15223e+9 
            716      5.01636e+9 
            726      4.92651e+9 
            735      4.96037e+9 
            745      5.13517e+9 
            755      5.16103e+9 
            765      5.32587e+9 
            775      5.48995e+9 
            785      5.72414e+9 
            795      5.72994e+9 
            805      5.63538e+9 
            815      5.62203e+9 
            825      5.93357e+9 
            835      5.06648e+9 
            845      5.78054e+9 
            855      5.76464e+9 
            865      5.96695e+9 
            875      6.09065e+9 
            885      6.28904e+9 
            895      6.38915e+9 
            905      6.25103e+9 
            915       6.8396e+9 
            925     2.52405e+10 
            935     4.49804e+10 
            945     6.97963e+10 
            955      7.8289e+10 
            965      9.2509e+10 
            975     3.02485e+10 
            985     7.69282e+10 
            995     7.00204e+10 
           1005     7.50941e+10 
           1015      7.7348e+10 
           1025      5.1427e+10 
           1035     7.12224e+10 
           1045     8.66561e+10 
           1055     8.13995e+10 
           1065     6.87378e+10 
           1075     7.31307e+10 
           1085     6.64415e+10 
           1095     7.16525e+10 
           1105     6.78809e+10 
           1115      6.6696e+10 
           1125     5.40645e+10 
           1135     6.39451e+10 
           1145     5.98503e+10 
           1155     5.85134e+10 
           1165     5.67554e+10 
           1175     3.65726e+10 
           1185     5.17169e+10 
           1195     4.99896e+10 
           1205     4.55492e+10 
           1215     3.23744e+10 
           1225      4.5746e+10 
           1235     4.94789e+10 
           1245     4.74939e+10 
           1255     4.71897e+10 
           1265     4.81416e+10 
           1275     4.90835e+10 
           1285     4.87628e+10 
           1295     4.32749e+10 
           1305     4.40455e+10 
           1315     4.71493e+10 
           1325     4.48374e+10 
           1335     4.34368e+10 
           1345     4.30973e+10 
           1355     4.24451e+10 
           1365     4.03798e+10 
           1375     3.92327e+10 
           1385     3.78885e+10 
           1395     2.91874e+10 
           1405     3.04719e+10 
           1415     3.49593e+10 
           1425     3.19695e+10 
           1435     3.36751e+10 
           1442     3.37892e+10 
           1447     3.33888e+10 
           1455     3.19371e+10 
           1465     3.05951e+10 
           1475      3.0779e+10 
           1485     3.05402e+10 
           1495     2.95902e+10 
           1505     2.79525e+10 
           1512     2.65128e+10 
           1517     2.68801e+10 
           1525     2.64255e+10 
           1535     2.27247e+10 
           1545     2.06765e+10 
           1555     2.02759e+10 
           1565      2.2211e+10 
           1575     2.33437e+10 
           1585     2.33815e+10 
           1595     2.31603e+10 
           1605     2.22555e+10 
           1615     2.12325e+10 
           1625     2.15712e+10 
           1635     2.19719e+10 
           1645     2.17571e+10 
           1655     2.18443e+10 
           1665     2.15882e+10 
           1672     2.02111e+10 
           1677       2.294e+10 
           1685     2.17979e+10 
           1695     2.08793e+10 
           1705     2.04692e+10 
           1715     1.95651e+10 
           1725     1.88249e+10 
           1735     1.94233e+10 
           1745     1.91469e+10 
           1755     1.89403e+10 
           1765     1.86404e+10 
           1775     1.78403e+10 
           1785     1.80571e+10 
           1795     1.78565e+10 
           1805     1.78488e+10 
           1815     1.68991e+10 
           1825     1.69033e+10 
           1835      1.6677e+10 
           1845     1.54099e+10 
           1855     1.56887e+10 
           1865     1.57928e+10 
           1875     1.56602e+10 
           1885     1.44819e+10 
           1895     1.38112e+10 
           1905     1.44369e+10 
           1915     1.38889e+10 
           1925     1.30456e+10 
           1935     1.38387e+10 
           1945     1.41001e+10 
           1955     1.27172e+10 
           1967     1.34019e+10 
           1976     1.38966e+10 
           1984     1.30593e+10 
           1995     1.27822e+10 
           2005     1.29849e+10 
           2015     1.29538e+10 
           2025      1.3042e+10 
           2035     1.22392e+10 
           2045     1.21819e+10 
           2055      1.0689e+10 
           2065     1.04576e+10 
           2074     1.08294e+10 
           2078     1.03847e+10 
           2085     1.07319e+10 
           2095     1.08005e+10 
           2105     1.12925e+10 
           2115     1.13097e+10 
           2125     1.12361e+10 
           2135     1.10459e+10 
           2145     1.07123e+10 
           2155     1.08338e+10 
           2165     1.05442e+10 
           2175     1.05399e+10 
           2185     1.02747e+10 
           2195     1.03526e+10 
           2205     1.02085e+10 
           2215      9.94225e+9 
           2225      9.85537e+9 
           2235      9.66556e+9 
           2245      9.59534e+9 
           2255      9.32003e+9 
           2265      9.33851e+9 
           2275       9.2202e+9 
           2285      9.04083e+9 
           2295       8.2162e+9 
           2305      8.67261e+9 
           2315      8.58941e+9 
           2325       8.5108e+9 
           2335      8.35307e+9 
           2345       8.3224e+9 
           2355      8.18191e+9 
           2365       8.0711e+9 
           2375      7.89775e+9 
           2385      7.69523e+9 
           2395      7.65212e+9 
           2405      7.59578e+9 
           2415      7.48391e+9 
           2425      7.41847e+9 
           2435      7.25791e+9 
           2445      7.19677e+9 
           2455      7.11889e+9 
           2465      7.02466e+9 
           2475       6.9102e+9 
           2485      6.76197e+9 
           2495      5.52528e+9 
           2505      6.49953e+9 
           2513      6.23988e+9 
           2518      6.37852e+9 
           2525      6.45784e+9 
           2535      6.39702e+9 
           2545      6.22238e+9 
           2555      6.17608e+9 
           2565      6.11026e+9 
           2575      6.04358e+9 
           2585      5.97605e+9 
           2595      5.89596e+9 
           2605      5.84522e+9 
           2615      5.74661e+9 
           2625      5.69362e+9 
           2635      5.62444e+9 
           2645      5.53138e+9 
           2655      5.47108e+9 
           2665      5.32401e+9 
           2675      5.25733e+9 
           2685      5.25962e+9 
           2695      5.10038e+9 
           2705      5.04014e+9 
           2715      4.99842e+9 
           2725      4.95323e+9 
           2735      4.87074e+9 
           2745      4.84507e+9 
           2755      4.79805e+9 
           2765      4.70846e+9 
           2775      4.71333e+9 
           2785      4.63486e+9 
           2795      4.48028e+9 
           2805      4.49345e+9 
           2815      4.48611e+9 
           2825      4.40446e+9 
           2835      4.29554e+9 
           2845      4.32153e+9 
           2855       4.2493e+9 
           2865       4.2033e+9 
           2875      4.15501e+9 
           2885      4.10566e+9 
           2895      4.05416e+9 
           2910      3.96189e+9 
           2930      3.90004e+9 
           2950      3.77651e+9 
           2970      3.71164e+9 
           2990      3.61201e+9 
           3010      3.50093e+9 
           3030      3.43898e+9 
           3050      3.38022e+9 
           3070      3.32165e+9 
           3090      3.19996e+9 
           3110      3.17175e+9 
           3130      3.08751e+9 
           3150      3.02773e+9 
           3170      2.95459e+9 
           3190      2.88627e+9 
           3210      2.83111e+9 
           3230      2.76778e+9 
           3250      2.72219e+9 
           3270      2.65334e+9 
           3290      2.60102e+9 
           3310      2.54857e+9 
           3330      2.48714e+9 
           3350      2.43588e+9 
           3370      2.38582e+9 
           3390      2.34864e+9 
           3410      2.30014e+9 
           3430      2.25127e+9 
           3450      2.19663e+9 
           3470      2.15583e+9 
           3490      2.11149e+9 
           3510      2.07294e+9 
           3530      2.03966e+9 
           3550      1.99735e+9 
           3570      1.96525e+9 
           3590       1.9107e+9 
           3610       1.8797e+9 
           3630      1.84175e+9 
           3640      1.83423e+9 
           3650      1.78322e+9 
           3670      1.75861e+9 
           3690       1.7254e+9 
           3710      1.66262e+9 
           3730      1.61204e+9 
           3750      1.60901e+9 
           3770      1.56988e+9 
           3790      1.62152e+9 
           3810      1.66514e+9 
           3830       1.4862e+9 
           3850      1.67451e+9 
           3870      1.65063e+9 
           3890      1.39791e+9 
           3910      1.64091e+9 
           3930      1.59876e+9 
           3950      1.56376e+9 
           3970      1.29221e+9 
           3990      1.51616e+9 
           4010      1.50278e+9 
           4030      1.43029e+9 
           4050      1.45742e+9 
           4070      1.39492e+9 
           4090      1.30359e+9 
           4110      1.17996e+9 
           4130      1.32917e+9 
           4150      1.31742e+9 
           4170      1.30986e+9 
           4190      1.28767e+9 
           4210      1.27004e+9 
           4230      1.24808e+9 
           4250      1.21413e+9 
           4270      1.18431e+9 
           4290      1.16641e+9 
           4310      1.13322e+9 
           4330      1.05002e+9 
           4350      9.71543e+8 
           4370      1.07869e+9 
           4390      1.05969e+9 
           4410      1.05547e+9 
           4430      1.04715e+9 
           4450      1.02798e+9 
           4470      9.81093e+8 
           4490      9.95899e+8 
           4510      9.81529e+8 
           4530        9.682e+8 
           4550      9.49844e+8 
           4570      9.37021e+8 
           4590      9.19735e+8 
           4610      9.00782e+8 
           4630      8.83755e+8 
           4650      8.48449e+8 
           4670      8.57953e+8 
           4690      8.44417e+8 
           4710      8.20908e+8 
           4730      8.24673e+8 
           4750       8.1048e+8 
           4770      8.04575e+8 
           4790       7.9127e+8 
           4810      7.75959e+8 
           4830      7.59001e+8 
           4850      7.12106e+8 
           4870      6.44622e+8 
           4890      7.25144e+8 
           4910      7.17561e+8 
           4930      6.94205e+8 
           4950      6.95064e+8 
           4970      6.89985e+8 
           4990      6.79094e+8 
           5010      6.55236e+8 
           5030      6.57451e+8 
           5050      6.45223e+8 
           5070       6.4023e+8 
           5090      6.29959e+8 
           5110      6.20262e+8 
           5130      6.09409e+8 
           5150      6.01134e+8 
           5170      5.93433e+8 
           5190      5.85847e+8 
           5210      5.77597e+8 
           5230      5.69235e+8 
           5250      5.60683e+8 
           5270       5.5223e+8 
           5290      5.45478e+8 
           5310      5.37662e+8 
           5330      5.30332e+8 
           5350      5.22676e+8 
           5370      5.15642e+8 
           5390      5.08062e+8 
           5410      4.99987e+8 
           5430      4.94663e+8 
           5450       4.8764e+8 
           5470       4.8092e+8 
           5490      4.74335e+8 
           5510      4.68267e+8 
           5530      4.61461e+8 
           5550      4.55781e+8 
           5570      4.49515e+8 
           5590      4.43314e+8 
           5610      4.37669e+8 
           5630      4.31962e+8 
           5650      4.25735e+8 
           5670      4.18928e+8 
           5690      4.10764e+8 
           5710       4.0677e+8 
           5730      4.01928e+8 
           5750      3.95707e+8 
           5770      3.91973e+8 
           5790      3.86674e+8 
           5810      3.81661e+8 
           5830      3.76054e+8 
           5850      3.71968e+8 
           5870      3.57838e+8 
           5890      3.60787e+8 
           5910      3.57691e+8 
           5930      3.53097e+8 
           5950      3.48929e+8 
           5970      3.45971e+8 
           5990      3.40756e+8 
           6010      3.37136e+8 
           6030      3.32531e+8 
           6050      3.28679e+8 
           6070      3.24901e+8 
           6090      3.20953e+8 
           6110      3.16927e+8 
           6130      3.13168e+8 
           6150      3.08525e+8 
           6170      3.05024e+8 
           6190       3.0167e+8 
           6210      2.98186e+8 
           6230      2.94644e+8 
           6250      2.90756e+8 
           6270      2.87437e+8 
           6290      2.84137e+8 
           6310      2.80569e+8 
           6330      2.77407e+8 
           6350      2.73869e+8 
           6370      2.70898e+8 
           6390      2.67609e+8 
           6410      2.64475e+8 
           6430      2.61438e+8 
           6450      2.58325e+8 
           6470      2.54669e+8 
           6490      2.51913e+8 
           6510      2.49052e+8 
           6530      2.45231e+8 
           6550      2.36052e+8 
           6570      2.11384e+8 
           6590       2.3513e+8 
           6610       2.3483e+8 
           6630       2.3261e+8 
           6650      2.29901e+8 
           6670      2.25205e+8 
           6690      2.22724e+8 
           6710      2.22235e+8 
           6730      2.19352e+8 
           6750      2.17368e+8 
           6770      2.15042e+8 
           6790      2.11693e+8 
           6810      2.10119e+8 
           6830      2.07759e+8 
           6850      2.05608e+8 
           6870      2.03312e+8 
           6890      2.00816e+8 
           6910       1.9844e+8 
           6930      1.96763e+8 
           6950      1.94618e+8 
           6970       1.9251e+8 
           6990      1.90408e+8 
           7010      1.88311e+8 
           7030      1.86166e+8 
           7050      1.84247e+8 
           7070      1.79679e+8 
           7090      1.80375e+8 
           7110      1.78013e+8 
           7130      1.76193e+8 
           7150      1.74686e+8 
           7170      1.72775e+8 
           7190      1.71013e+8 
           7210      1.69218e+8 
           7230      1.65854e+8 
           7250      1.65413e+8 
           7270      1.63948e+8 
           7290      1.61058e+8 
           7310      1.60516e+8 
           7330      1.58842e+8 
           7350      1.57226e+8 
           7370      1.55625e+8 
           7390      1.54025e+8 
           7410      1.52447e+8 
           7430      1.50883e+8 
           7450      1.49341e+8 
           7470      1.47395e+8 
           7490      1.46179e+8 
           7510      1.44793e+8 
           7530      1.43288e+8 
           7550      1.41935e+8 
           7570      1.40502e+8 
           7590      1.39017e+8 
           7610       1.3752e+8 
           7630      1.36295e+8 
           7650       1.3494e+8 
           7670      1.33628e+8 
           7690      1.32253e+8 
           7710       1.3094e+8 
           7730      1.29589e+8 
           7750      1.28425e+8 
           7770       1.2711e+8 
           7790       1.2593e+8 
           7810       1.2465e+8 
           7830      1.23485e+8 
           7850      1.22356e+8 
           7870      1.21005e+8 
           7890      1.19751e+8 
           7910      1.18766e+8 
           7930      1.17581e+8 
           7950      1.16525e+8 
           7970      1.15354e+8 
           7990      1.14281e+8 
           8010      1.13154e+8 
           8030      1.12047e+8 
           8050      1.11032e+8 
           8070      1.09973e+8 
           8090      1.08814e+8 
           8110      1.07379e+8 
           8130      1.06903e+8 
           8150      1.05811e+8 
           8170      1.04939e+8 
           8190      1.03556e+8 
           8210      1.02421e+8 
           8230      1.01401e+8 
           8250       1.0081e+8 
           8270      9.91992e+7 
           8290      9.88911e+7 
           8310      9.80774e+7 
           8330      9.71184e+7 
           8350       9.5854e+7 
           8370      9.52136e+7 
           8390      9.45301e+7 
           8410      9.36229e+7 
           8430      9.27816e+7 
           8450      9.14196e+7 
           8470      9.10934e+7 
           8490      9.01003e+7 
           8510      8.91935e+7 
           8530      8.84547e+7 
           8550      8.73457e+7 
           8570      8.73796e+7 
           8590      8.49667e+7 
