# Kurucz ODFNEW /NOVER (2003)
# teff = 19000 K (value for the effective temperature for the model. Temperatures are given in K)
# logg = 3 log(cm/s2) (value for Log(G) for the model.)
# meta = -1.5  (value for the Metallicity for the model.)
# lh = 1.25  (l/Hp where l is the  mixing length of the convective element and Hp is the pressure scale height)
# vtur = 2 km/s (Microturbulence velocity)
# alpha = 0  (Alpha)
#
# column 1: WAVELENGTH (ANGSTROM), Wavelength in Angstrom
# column 2: FLUX (ERG/CM2/S/A), Flux in erg/cm2/s/A
          147.2     1.85323e-21 
            151     1.36529e-20 
          155.2     1.10469e-19 
          158.8     6.08371e-19 
            162     2.60455e-18 
            166     1.48362e-17 
          170.3     8.79665e-17 
          173.4     3.00644e-16 
          176.8     1.10115e-15 
          180.2     3.83945e-15 
          181.7     6.56241e-15 
          186.1      3.0079e-14 
            191     1.50791e-13 
          193.9     3.76487e-13 
          198.4     1.47552e-12 
          201.8     3.97505e-12 
            205     9.79631e-12 
          210.5     4.32271e-11 
          216.2     1.85502e-10 
          219.8     4.47167e-10 
            223     9.53698e-10 
          226.8      2.27788e-9 
            230      9.05432e-9 
            234      2.30843e-8 
            240      7.59999e-8 
          246.5      2.58015e-7 
          252.4      7.43929e-7 
          256.8      1.56087e-6 
            260      2.68827e-6 
            264       5.1269e-6 
          268.5        1.034e-5 
          273.5      2.19186e-5 
          278.5      4.52422e-5 
            284      9.73398e-5 
            290     0.000216846 
            296     0.000466569 
            301     0.000863142 
            308       0.0019533 
            318      0.00600352 
            328       0.0170128 
            338       0.0452198 
            348         0.11322 
            357        0.246858 
            366        0.517161 
            375         1.04161 
            385         2.17788 
            395         4.37274 
            405         8.46295 
            414         14.8897 
            422          24.057 
            430         38.1008 
            441         69.7589 
            451         117.476 
            460         183.807 
            470         295.739 
            480         465.451 
            490         717.951 
            500         1086.11 
            506         8140.18 
            512         24897.9 
            520         32984.7 
            530           50658 
            540         57488.7 
            550         90058.9 
            560          114575 
            570          148187 
            580          151229 
            590          212196 
            600          286283 
            610          357797 
            620          432278 
            630          526463 
            640          616618 
            650          736187 
            658          866306 
            665          965623 
            675      1.11111e+6 
            685      1.29656e+6 
            695      1.54841e+6 
            705      1.77873e+6 
            716      2.07884e+6 
            726      2.36362e+6 
            735      2.66955e+6 
            745      3.06658e+6 
            755      3.47931e+6 
            765      3.91796e+6 
            775      4.42529e+6 
            785      4.96533e+6 
            795      5.51553e+6 
            805       6.1315e+6 
            815      6.75331e+6 
            825      7.51715e+6 
            835      8.15299e+6 
            845      9.02325e+6 
            855      9.85441e+6 
            865      1.08388e+7 
            875      1.18905e+7 
            885      1.30057e+7 
            895      1.41069e+7 
            905      1.50103e+7 
            915      3.00448e+7 
            925      3.94414e+8 
            935      1.49408e+9 
            945      3.80773e+9 
            955       4.9275e+9 
            965       6.0339e+9 
            975       2.0118e+9 
            985      6.45378e+9 
            995       6.1744e+9 
           1005      6.61051e+9 
           1015       6.2816e+9 
           1025      2.54561e+9 
           1035      5.14017e+9 
           1045      7.12044e+9 
           1055      6.84596e+9 
           1065      6.18292e+9 
           1075      6.77485e+9 
           1085      6.25341e+9 
           1095      6.80864e+9 
           1105      6.37835e+9 
           1115      6.42506e+9 
           1125      5.98034e+9 
           1135      6.46645e+9 
           1145      6.11922e+9 
           1155      6.32521e+9 
           1165      6.38918e+9 
           1175      5.41917e+9 
           1185      6.28157e+9 
           1195      5.65823e+9 
           1205      4.33154e+9 
           1215       1.7391e+9 
           1225      4.95143e+9 
           1235      5.73458e+9 
           1245      5.83994e+9 
           1255      5.67884e+9 
           1265      5.56681e+9 
           1275      5.69744e+9 
           1285      5.60614e+9 
           1295      4.89786e+9 
           1305      4.96311e+9 
           1315      5.42015e+9 
           1325      5.22706e+9 
           1335      4.96725e+9 
           1345      5.13794e+9 
           1355      5.14774e+9 
           1365      4.96402e+9 
           1375      4.89407e+9 
           1385      4.88964e+9 
           1395      4.57413e+9 
           1405      4.66116e+9 
           1415      4.67322e+9 
           1425      4.61992e+9 
           1435      4.61923e+9 
           1442       4.6274e+9 
           1447        4.571e+9 
           1455      4.50255e+9 
           1465      4.39635e+9 
           1475      4.34803e+9 
           1485      4.27463e+9 
           1495      4.21747e+9 
           1505      4.08926e+9 
           1512      3.92822e+9 
           1517      3.98226e+9 
           1525      3.96018e+9 
           1535      3.75334e+9 
           1545      3.81129e+9 
           1555      3.66583e+9 
           1565       3.7268e+9 
           1575      3.75389e+9 
           1585      3.70667e+9 
           1595      3.69721e+9 
           1605      3.58357e+9 
           1615      3.53991e+9 
           1625      3.51303e+9 
           1635      3.52853e+9 
           1645      3.47379e+9 
           1655       3.4102e+9 
           1665      3.43853e+9 
           1672      3.33757e+9 
           1677      3.39955e+9 
           1685      3.36296e+9 
           1695      3.27764e+9 
           1705      3.19239e+9 
           1715      3.10416e+9 
           1725      3.07688e+9 
           1735      3.08582e+9 
           1745      3.02705e+9 
           1755      3.04476e+9 
           1765      2.90163e+9 
           1775      2.90502e+9 
           1785      2.89491e+9 
           1795      2.90075e+9 
           1805      2.88107e+9 
           1815      2.77484e+9 
           1825      2.78422e+9 
           1835      2.73964e+9 
           1845      2.60178e+9 
           1855      2.54326e+9 
           1865       2.5622e+9 
           1875       2.6076e+9 
           1885      2.44832e+9 
           1895      2.34607e+9 
           1905      2.44494e+9 
           1915      2.35475e+9 
           1925      2.30391e+9 
           1935      2.34727e+9 
           1945      2.36453e+9 
           1955      2.23197e+9 
           1967      2.30307e+9 
           1976      2.34128e+9 
           1984      2.24138e+9 
           1995      2.18218e+9 
           2005      2.20938e+9 
           2015      2.20959e+9 
           2025      2.22108e+9 
           2035      2.13417e+9 
           2045      2.11929e+9 
           2055      2.06214e+9 
           2065      2.07049e+9 
           2074      2.11527e+9 
           2078       2.0321e+9 
           2085      2.04474e+9 
           2095      1.98175e+9 
           2105      2.00114e+9 
           2115      1.98546e+9 
           2125      1.99693e+9 
           2135      1.96356e+9 
           2145      1.91041e+9 
           2155      1.92501e+9 
           2165      1.90188e+9 
           2175      1.87766e+9 
           2185      1.85728e+9 
           2195      1.84915e+9 
           2205      1.82366e+9 
           2215      1.80155e+9 
           2225      1.77094e+9 
           2235      1.75882e+9 
           2245       1.7482e+9 
           2255      1.71754e+9 
           2265      1.71151e+9 
           2275      1.69097e+9 
           2285      1.68074e+9 
           2295      1.63973e+9 
           2305      1.63993e+9 
           2315      1.61314e+9 
           2325      1.59964e+9 
           2335      1.56697e+9 
           2345       1.5426e+9 
           2355      1.54828e+9 
           2365      1.51959e+9 
           2375      1.50976e+9 
           2385      1.48394e+9 
           2395      1.47663e+9 
           2405      1.45936e+9 
           2415         1.44e+9 
           2425      1.44135e+9 
           2435      1.41759e+9 
           2445      1.40646e+9 
           2455      1.39896e+9 
           2465      1.37765e+9 
           2475      1.36599e+9 
           2485      1.35191e+9 
           2495      1.31821e+9 
           2505      1.32506e+9 
           2513      1.29528e+9 
           2518      1.30595e+9 
           2525      1.29192e+9 
           2535       1.2729e+9 
           2545      1.25844e+9 
           2555      1.26043e+9 
           2565      1.24118e+9 
           2575      1.23724e+9 
           2585      1.22391e+9 
           2595      1.21086e+9 
           2605      1.20585e+9 
           2615      1.19444e+9 
           2625      1.18263e+9 
           2635      1.16705e+9 
           2645      1.16729e+9 
           2655       1.1553e+9 
           2665      1.13954e+9 
           2675      1.13109e+9 
           2685      1.12623e+9 
           2695      1.10581e+9 
           2705      1.10315e+9 
           2715        1.091e+9 
           2725       1.0721e+9 
           2735      1.07128e+9 
           2745      1.04679e+9 
           2755      1.04044e+9 
           2765      1.03042e+9 
           2775      1.03191e+9 
           2785      1.02048e+9 
           2795      9.92215e+8 
           2805      9.94825e+8 
           2815      9.93617e+8 
           2825      9.76068e+8 
           2835       9.6296e+8 
           2845      9.63883e+8 
           2855      9.55617e+8 
           2865      9.47994e+8 
           2875      9.38585e+8 
           2885      9.30279e+8 
           2895      9.21616e+8 
           2910      9.08891e+8 
           2930      8.90952e+8 
           2950      8.70298e+8 
           2970      8.60026e+8 
           2990      8.43502e+8 
           3010      8.28837e+8 
           3030      8.14977e+8 
           3050      8.00436e+8 
           3070      7.86244e+8 
           3090      7.71759e+8 
           3110      7.58709e+8 
           3130      7.46314e+8 
           3150      7.33222e+8 
           3170      7.20101e+8 
           3190      7.02807e+8 
           3210      6.95722e+8 
           3230      6.83774e+8 
           3250      6.72174e+8 
           3270      6.61511e+8 
           3290       6.4956e+8 
           3310      6.39602e+8 
           3330      6.28953e+8 
           3350       6.1747e+8 
           3370      6.08305e+8 
           3390       5.9833e+8 
           3410      5.88578e+8 
           3430      5.76643e+8 
           3450      5.65545e+8 
           3470      5.57981e+8 
           3490      5.49563e+8 
           3510      5.43409e+8 
           3530      5.35123e+8 
           3550      5.26749e+8 
           3570      5.20154e+8 
           3590      5.09844e+8 
           3610      5.02129e+8 
           3630       4.9398e+8 
           3640      4.92521e+8 
           3650      4.84991e+8 
           3670        4.786e+8 
           3690      4.61335e+8 
           3710      4.67213e+8 
           3730      4.75241e+8 
           3750      5.37668e+8 
           3770      5.41733e+8 
           3790      5.59137e+8 
           3810      5.82037e+8 
           3830      5.15493e+8 
           3850      5.91279e+8 
           3870      5.84529e+8 
           3890      4.94435e+8 
           3910      5.74997e+8 
           3930      5.61695e+8 
           3950      5.56963e+8 
           3970      4.59961e+8 
           3990      5.37712e+8 
           4010      5.29831e+8 
           4030       5.0749e+8 
           4050      5.17005e+8 
           4070      5.07525e+8 
           4090       4.8343e+8 
           4110      4.27152e+8 
           4130      4.78949e+8 
           4150      4.73556e+8 
           4170      4.68764e+8 
           4190      4.63034e+8 
           4210      4.56073e+8 
           4230       4.4897e+8 
           4250      4.42001e+8 
           4270      4.33532e+8 
           4290      4.28618e+8 
           4310      4.21405e+8 
           4330      3.95137e+8 
           4350      3.61389e+8 
           4370      4.02258e+8 
           4390      3.90548e+8 
           4410      3.91411e+8 
           4430      3.84122e+8 
           4450      3.80182e+8 
           4470      3.63873e+8 
           4490      3.68468e+8 
           4510      3.63818e+8 
           4530       3.5841e+8 
           4550      3.53155e+8 
           4570      3.48032e+8 
           4590      3.43146e+8 
           4610      3.38208e+8 
           4630      3.33324e+8 
           4650      3.28232e+8 
           4670      3.23976e+8 
           4690      3.19523e+8 
           4710       3.1133e+8 
           4730      3.09966e+8 
           4750      3.05324e+8 
           4770      3.02041e+8 
           4790      2.97799e+8 
           4810      2.93553e+8 
           4830      2.88979e+8 
           4850      2.74397e+8 
           4870      2.46463e+8 
           4890       2.7689e+8 
           4910      2.74014e+8 
           4930      2.65874e+8 
           4950      2.66728e+8 
           4970      2.63182e+8 
           4990      2.59609e+8 
           5010      2.53248e+8 
           5030      2.52698e+8 
           5050      2.47613e+8 
           5070      2.46059e+8 
           5090      2.42805e+8 
           5110      2.39596e+8 
           5130      2.36357e+8 
           5150      2.33275e+8 
           5170      2.30332e+8 
           5190      2.27343e+8 
           5210      2.24241e+8 
           5230      2.21496e+8 
           5250       2.1865e+8 
           5270      2.15827e+8 
           5290      2.13094e+8 
           5310       2.1037e+8 
           5330       2.0768e+8 
           5350      2.04998e+8 
           5370      2.02481e+8 
           5390      1.99931e+8 
           5410      1.97426e+8 
           5430      1.94888e+8 
           5450      1.92484e+8 
           5470      1.90109e+8 
           5490      1.87764e+8 
           5510      1.85436e+8 
           5530      1.83161e+8 
           5550      1.80913e+8 
           5570      1.78694e+8 
           5590      1.76525e+8 
           5610      1.74347e+8 
           5630      1.72267e+8 
           5650       1.7007e+8 
           5670      1.68028e+8 
           5690      1.66011e+8 
           5710      1.64111e+8 
           5730      1.62141e+8 
           5750      1.60206e+8 
           5770      1.58328e+8 
           5790      1.56449e+8 
           5810      1.54604e+8 
           5830      1.52769e+8 
           5850      1.50989e+8 
           5870      1.45731e+8 
           5890      1.47349e+8 
           5910       1.4576e+8 
           5930      1.44061e+8 
           5950       1.4237e+8 
           5970      1.40763e+8 
           5990      1.39121e+8 
           6010       1.3755e+8 
           6030      1.35965e+8 
           6050      1.34419e+8 
           6070      1.32901e+8 
           6090       1.3139e+8 
           6110      1.29905e+8 
           6130      1.28437e+8 
           6150      1.26966e+8 
           6170       1.2557e+8 
           6190       1.2417e+8 
           6210      1.22785e+8 
           6230      1.21426e+8 
           6250      1.20071e+8 
           6270      1.18751e+8 
           6290      1.17444e+8 
           6310      1.16143e+8 
           6330      1.14874e+8 
           6350      1.13535e+8 
           6370       1.1234e+8 
           6390      1.11159e+8 
           6410      1.09952e+8 
           6430      1.08768e+8 
           6450      1.07597e+8 
           6470      1.06429e+8 
           6490      1.05291e+8 
           6510      1.04165e+8 
           6530      1.02892e+8 
           6550      9.97089e+7 
           6570      8.92842e+7 
           6590      9.91354e+7 
           6610       9.8752e+7 
           6630      9.77286e+7 
           6650      9.67668e+7 
           6670      9.50611e+7 
           6690      9.40896e+7 
           6710      9.37721e+7 
           6730      9.27914e+7 
           6750      9.18372e+7 
           6770      9.08844e+7 
           6790      8.99249e+7 
           6810      8.90238e+7 
           6830      8.81156e+7 
           6850      8.72084e+7 
           6870      8.63262e+7 
           6890      8.54448e+7 
           6910      8.45801e+7 
           6930      8.37161e+7 
           6950      8.28762e+7 
           6970      8.20445e+7 
           6990      8.12056e+7 
           7010      8.04056e+7 
           7030      7.95981e+7 
           7050       7.8806e+7 
           7070      7.69062e+7 
           7090      7.72523e+7 
           7110       7.6483e+7 
           7130      7.57284e+7 
           7150      7.49811e+7 
           7170      7.42336e+7 
           7190      7.35224e+7 
           7210      7.28035e+7 
           7230      7.18953e+7 
           7250      7.13917e+7 
           7270      7.07001e+7 
           7290      6.95152e+7 
           7310      6.93292e+7 
           7330       6.8673e+7 
           7350      6.80132e+7 
           7370      6.73616e+7 
           7390      6.67181e+7 
           7410      6.60819e+7 
           7430      6.54516e+7 
           7450      6.48414e+7 
           7470      6.42259e+7 
           7490      6.36202e+7 
           7510      6.29972e+7 
           7530      6.24285e+7 
           7550      6.18437e+7 
           7570      6.12649e+7 
           7590      6.06926e+7 
           7610      6.01275e+7 
           7630      5.95687e+7 
           7650      5.90163e+7 
           7670       5.8472e+7 
           7690      5.79312e+7 
           7710       5.7394e+7 
           7730      5.68723e+7 
           7750      5.63446e+7 
           7770      5.57991e+7 
           7790      5.53273e+7 
           7810      5.47824e+7 
           7830      5.43266e+7 
           7850      5.38856e+7 
           7870       5.3398e+7 
           7890      5.28807e+7 
           7910      5.24487e+7 
           7930      5.19023e+7 
           7950      5.13882e+7 
           7970       5.0901e+7 
           7990      5.04766e+7 
           8010      5.00176e+7 
           8030      4.96016e+7 
           8050      4.91915e+7 
           8070      4.87791e+7 
           8090      4.82602e+7 
           8110      4.78718e+7 
           8130      4.75243e+7 
           8150      4.70134e+7 
           8170      4.67005e+7 
           8190      4.62621e+7 
           8210      4.56933e+7 
           8230      4.54309e+7 
           8250      4.50476e+7 
           8270      4.44515e+7 
           8290       4.4217e+7 
           8310      4.38517e+7 
           8330      4.34676e+7 
           8350      4.29079e+7 
           8370      4.25606e+7 
           8390      4.22332e+7 
           8410      4.18163e+7 
           8430      4.14512e+7 
           8450      4.09634e+7 
           8470      4.03201e+7 
           8490      4.07665e+7 
           8510      3.94213e+7 
           8530      4.04006e+7 
           8550      3.80968e+7 
           8570      4.04501e+7 
           8590      3.82171e+7 
