# Kurucz ODFNEW /NOVER (2003)
# teff = 25000 K (value for the effective temperature for the model. Temperatures are given in K)
# logg = 3.5 log(cm/s2) (value for Log(G) for the model.)
# meta = -2  (value for the Metallicity for the model.)
# lh = 1.25  (l/Hp where l is the  mixing length of the convective element and Hp is the pressure scale height)
# vtur = 2 km/s (Microturbulence velocity)
# alpha = 0  (Alpha)
#
# column 1: WAVELENGTH (ANGSTROM), Wavelength in Angstrom
# column 2: FLUX (ERG/CM2/S/A), Flux in erg/cm2/s/A
          147.2      1.1549e-13 
            151      5.4283e-13 
          155.2     2.74363e-12 
          158.8     1.02567e-11 
            162      3.1486e-11 
            166     1.20292e-10 
          170.3      4.7232e-10 
          173.4      1.21289e-9 
          176.8      3.27879e-9 
          180.2      8.52698e-9 
          181.7      1.28464e-8 
          186.1      4.11286e-8 
            191      1.40826e-7 
          193.9      2.82869e-7 
          198.4      8.00622e-7 
          201.8      1.70273e-6 
            205      3.38326e-6 
          210.5      1.04559e-5 
          216.2      3.16778e-5 
          219.8      6.18025e-5 
            223     0.000109824 
          226.8     0.000212628 
            230      0.00530718 
            234       0.0125322 
            240       0.0294719 
          246.5       0.0713131 
          252.4        0.153937 
          256.8         0.24352 
            260        0.384799 
            264        0.607288 
          268.5         1.00092 
          273.5         1.70626 
          278.5         2.85482 
            284         4.92491 
            290         8.67866 
            296          14.897 
            301         22.7162 
            308         38.3715 
            318         90.6954 
            328         188.274 
            338         376.386 
            348         717.846 
            357         1245.74 
            366         2104.61 
            375         3415.68 
            385         5748.35 
            395         9347.67 
            405         14814.5 
            414         22017.4 
            422           30653 
            430         42096.3 
            441         64255.6 
            451         92433.5 
            460          125793 
            470          175199 
            480          239544 
            490          323303 
            500          430406 
            506       3.0808e+6 
            512      8.85043e+6 
            520      1.02214e+7 
            530      1.27963e+7 
            540      1.34698e+7 
            550      1.76907e+7 
            560      2.00834e+7 
            570       2.3405e+7 
            580      2.33048e+7 
            590      2.90918e+7 
            600      3.35268e+7 
            610      3.81336e+7 
            620      4.22223e+7 
            630      4.73802e+7 
            640      5.11353e+7 
            650      5.70186e+7 
            658      6.26563e+7 
            665      6.68159e+7 
            675      7.13977e+7 
            685      7.71524e+7 
            695      8.75168e+7 
            705      9.33287e+7 
            716      1.03071e+8 
            726      1.10544e+8 
            735       1.1885e+8 
            745      1.29087e+8 
            755      1.38611e+8 
            765      1.48143e+8 
            775      1.59222e+8 
            785      1.70512e+8 
            795      1.80418e+8 
            805      1.91851e+8 
            815      2.02055e+8 
            825      2.15408e+8 
            835      2.20896e+8 
            845      2.37854e+8 
            855      2.49767e+8 
            865      2.63938e+8 
            875      2.79143e+8 
            885      2.93495e+8 
            895      3.07131e+8 
            905      3.18002e+8 
            915      5.62917e+8 
            925      6.16372e+9 
            935     1.35734e+10 
            945     2.47715e+10 
            955     2.78045e+10 
            965     3.25527e+10 
            975      1.6652e+10 
            985     3.16088e+10 
            995     2.99949e+10 
           1005     3.10917e+10 
           1015     2.97917e+10 
           1025     1.74802e+10 
           1035     2.76699e+10 
           1045     3.08794e+10 
           1055     2.99579e+10 
           1065     2.75991e+10 
           1075     2.84399e+10 
           1085     2.65785e+10 
           1095     2.79412e+10 
           1105     2.69194e+10 
           1115     2.65475e+10 
           1125     2.49215e+10 
           1135     2.57497e+10 
           1145     2.45763e+10 
           1155       2.486e+10 
           1165     2.45144e+10 
           1175     2.11097e+10 
           1185     2.33529e+10 
           1195     2.23918e+10 
           1205     2.04974e+10 
           1215     1.20119e+10 
           1225     2.08852e+10 
           1235     2.14435e+10 
           1245     2.09222e+10 
           1255     2.07463e+10 
           1265     2.02986e+10 
           1275     2.01634e+10 
           1285     1.97878e+10 
           1295     1.83808e+10 
           1305     1.85347e+10 
           1315     1.87151e+10 
           1325     1.81249e+10 
           1335     1.74963e+10 
           1345     1.75796e+10 
           1355     1.74245e+10 
           1365      1.6975e+10 
           1375      1.6673e+10 
           1385     1.64184e+10 
           1395     1.54343e+10 
           1405     1.53829e+10 
           1415     1.54575e+10 
           1425      1.5153e+10 
           1435     1.50062e+10 
           1442     1.49024e+10 
           1447       1.474e+10 
           1455     1.45092e+10 
           1465     1.42164e+10 
           1475     1.39771e+10 
           1485     1.37435e+10 
           1495     1.34831e+10 
           1505     1.31194e+10 
           1512     1.29136e+10 
           1517     1.28591e+10 
           1525     1.26631e+10 
           1535     1.20961e+10 
           1545     1.19389e+10 
           1555     1.16224e+10 
           1565     1.17017e+10 
           1575      1.1635e+10 
           1585     1.14703e+10 
           1595     1.13025e+10 
           1605     1.09072e+10 
           1615     1.07142e+10 
           1625     1.06449e+10 
           1635     1.05381e+10 
           1645     1.01754e+10 
           1655     1.02416e+10 
           1665      1.0098e+10 
           1672      9.93657e+9 
           1677     1.00075e+10 
           1685      9.84169e+9 
           1695      9.63202e+9 
           1705      9.43137e+9 
           1715      9.19887e+9 
           1725      9.08772e+9 
           1735      9.00879e+9 
           1745      8.85016e+9 
           1755       8.7573e+9 
           1765      8.50646e+9 
           1775      8.40586e+9 
           1785      8.34091e+9 
           1795      8.23619e+9 
           1805      8.15015e+9 
           1815      7.95332e+9 
           1825      7.85724e+9 
           1835      7.74129e+9 
           1845      7.43803e+9 
           1855      7.26992e+9 
           1865       7.2591e+9 
           1875      7.24885e+9 
           1885      6.92638e+9 
           1895      6.70849e+9 
           1905      6.82416e+9 
           1915      6.59745e+9 
           1925      6.46615e+9 
           1935      6.50161e+9 
           1945      6.48731e+9 
           1955      6.18445e+9 
           1967      6.26024e+9 
           1976      6.27687e+9 
           1984      6.08442e+9 
           1995      5.90061e+9 
           2005      5.95023e+9 
           2015      5.92555e+9 
           2025      5.88178e+9 
           2035      5.72086e+9 
           2045      5.64001e+9 
           2055      5.40719e+9 
           2065      5.33048e+9 
           2074      5.40912e+9 
           2078      5.28327e+9 
           2085      5.30713e+9 
           2095      5.20594e+9 
           2105      5.21645e+9 
           2115      5.17398e+9 
           2125      5.13316e+9 
           2135      5.05328e+9 
           2145      4.95813e+9 
           2155      4.91871e+9 
           2165      4.85602e+9 
           2175      4.78726e+9 
           2185      4.72539e+9 
           2195      4.67328e+9 
           2205      4.60953e+9 
           2215      4.54604e+9 
           2225      4.48411e+9 
           2235      4.42062e+9 
           2245      4.37191e+9 
           2255      4.30558e+9 
           2265      4.25832e+9 
           2275      4.20336e+9 
           2285      4.15092e+9 
           2295      4.04229e+9 
           2305       4.0392e+9 
           2315      3.98625e+9 
           2325      3.93614e+9 
           2335      3.88073e+9 
           2345      3.83798e+9 
           2355      3.79098e+9 
           2365      3.74283e+9 
           2375      3.69388e+9 
           2385      3.64422e+9 
           2395      3.60085e+9 
           2405       3.5569e+9 
           2415      3.51039e+9 
           2425      3.47048e+9 
           2435      3.42494e+9 
           2445      3.38419e+9 
           2455       3.3443e+9 
           2465      3.30277e+9 
           2475      3.26199e+9 
           2485      3.22182e+9 
           2495      3.11029e+9 
           2505      3.14308e+9 
           2513      3.09178e+9 
           2518      3.09289e+9 
           2525      3.06855e+9 
           2535      3.03184e+9 
           2545      2.98463e+9 
           2555      2.95744e+9 
           2565      2.92418e+9 
           2575        2.891e+9 
           2585      2.85678e+9 
           2595      2.82328e+9 
           2605      2.80781e+9 
           2615      2.77469e+9 
           2625      2.74096e+9 
           2635      2.70343e+9 
           2645      2.67291e+9 
           2655      2.63945e+9 
           2665      2.60541e+9 
           2675      2.57407e+9 
           2685      2.55885e+9 
           2695      2.51105e+9 
           2705      2.49942e+9 
           2715      2.47144e+9 
           2725      2.42659e+9 
           2735      2.41382e+9 
           2745      2.38696e+9 
           2755      2.36108e+9 
           2765      2.31722e+9 
           2775      2.30951e+9 
           2785      2.28329e+9 
           2795      2.24479e+9 
           2805      2.22929e+9 
           2815      2.20863e+9 
           2825      2.16503e+9 
           2835      2.14721e+9 
           2845      2.13661e+9 
           2855      2.11284e+9 
           2865      2.09018e+9 
           2875       2.0675e+9 
           2885      2.04532e+9 
           2895      2.02303e+9 
           2910      1.99013e+9 
           2930      1.94778e+9 
           2950      1.89471e+9 
           2970      1.86646e+9 
           2990      1.82712e+9 
           3010      1.78845e+9 
           3030       1.7524e+9 
           3050      1.71637e+9 
           3070      1.68129e+9 
           3090      1.64516e+9 
           3110      1.61351e+9 
           3130      1.58238e+9 
           3150      1.55058e+9 
           3170      1.51897e+9 
           3190      1.47758e+9 
           3210      1.45897e+9 
           3230      1.43034e+9 
           3250       1.4022e+9 
           3270      1.37647e+9 
           3290      1.34792e+9 
           3310      1.32397e+9 
           3330      1.29857e+9 
           3350      1.27153e+9 
           3370      1.24972e+9 
           3390      1.22623e+9 
           3410      1.20327e+9 
           3430      1.17493e+9 
           3450      1.14894e+9 
           3470       1.1312e+9 
           3490       1.1106e+9 
           3510       1.0955e+9 
           3530      1.07672e+9 
           3550      1.05762e+9 
           3570       1.0432e+9 
           3590      1.01899e+9 
           3610      1.00212e+9 
           3630      9.82872e+8 
           3640       9.8018e+8 
           3650      9.60904e+8 
           3670       9.4769e+8 
           3690      9.21647e+8 
           3710      8.97613e+8 
           3730       8.7591e+8 
           3750      9.40879e+8 
           3770      9.41684e+8 
           3790      9.70877e+8 
           3810      1.00358e+9 
           3830      8.92944e+8 
           3850      1.01265e+9 
           3870      1.00312e+9 
           3890      8.51519e+8 
           3910      9.81861e+8 
           3930      9.61697e+8 
           3950      9.48747e+8 
           3970      7.89509e+8 
           3990      9.13681e+8 
           4010      8.99951e+8 
           4030      8.59981e+8 
           4050      8.75992e+8 
           4070       8.5858e+8 
           4090      8.15341e+8 
           4110      7.26179e+8 
           4130       8.0879e+8 
           4150      7.98017e+8 
           4170      7.89297e+8 
           4190       7.7796e+8 
           4210      7.65272e+8 
           4230      7.52726e+8 
           4250      7.40131e+8 
           4270      7.26768e+8 
           4290      7.16097e+8 
           4310      7.03018e+8 
           4330      6.58743e+8 
           4350      6.05515e+8 
           4370      6.68971e+8 
           4390      6.48307e+8 
           4410      6.49665e+8 
           4430      6.37535e+8 
           4450      6.29839e+8 
           4470      6.01213e+8 
           4490      6.10127e+8 
           4510      6.00875e+8 
           4530      5.91542e+8 
           4550       5.8215e+8 
           4570      5.73187e+8 
           4590      5.64483e+8 
           4610      5.55927e+8 
           4630      5.47479e+8 
           4650      5.38075e+8 
           4670       5.3092e+8 
           4690      5.22462e+8 
           4710      5.09493e+8 
           4730      5.07466e+8 
           4750      4.99746e+8 
           4770      4.92749e+8 
           4790      4.85474e+8 
           4810       4.7827e+8 
           4830      4.70167e+8 
           4850      4.46069e+8 
           4870      4.03369e+8 
           4890      4.49152e+8 
           4910      4.44329e+8 
           4930       4.3033e+8 
           4950      4.31765e+8 
           4970      4.25689e+8 
           4990       4.1962e+8 
           5010      4.09253e+8 
           5030      4.07821e+8 
           5050      3.99944e+8 
           5070      3.96428e+8 
           5090      3.90891e+8 
           5110      3.85442e+8 
           5130      3.80052e+8 
           5150      3.74776e+8 
           5170      3.69641e+8 
           5190      3.64574e+8 
           5210       3.5956e+8 
           5230      3.54667e+8 
           5250      3.49837e+8 
           5270      3.45084e+8 
           5290      3.40434e+8 
           5310      3.35843e+8 
           5330      3.31338e+8 
           5350      3.26891e+8 
           5370      3.22554e+8 
           5390      3.18258e+8 
           5410      3.14017e+8 
           5430      3.09907e+8 
           5450      3.05823e+8 
           5470      3.01815e+8 
           5490       2.9787e+8 
           5510      2.93987e+8 
           5530      2.90177e+8 
           5550      2.86426e+8 
           5570      2.82721e+8 
           5590      2.79086e+8 
           5610      2.75508e+8 
           5630      2.71997e+8 
           5650      2.68529e+8 
           5670      2.65079e+8 
           5690      2.61671e+8 
           5710      2.58466e+8 
           5730      2.55208e+8 
           5750      2.51989e+8 
           5770      2.48875e+8 
           5790      2.45777e+8 
           5810      2.42726e+8 
           5830      2.39711e+8 
           5850      2.36754e+8 
           5870       2.2796e+8 
           5890      2.30835e+8 
           5910      2.28153e+8 
           5930      2.25353e+8 
           5950      2.22616e+8 
           5970      2.19933e+8 
           5990       2.1727e+8 
           6010      2.14658e+8 
           6030      2.12076e+8 
           6050      2.09544e+8 
           6070      2.07051e+8 
           6090      2.04586e+8 
           6110      2.02159e+8 
           6130      1.99769e+8 
           6150      1.97406e+8 
           6170       1.9509e+8 
           6190      1.92808e+8 
           6210      1.90552e+8 
           6230      1.88331e+8 
           6250      1.86144e+8 
           6270      1.83991e+8 
           6290      1.81861e+8 
           6310      1.79773e+8 
           6330      1.77708e+8 
           6350      1.75665e+8 
           6370      1.73663e+8 
           6390      1.71683e+8 
           6410      1.69742e+8 
           6430      1.67822e+8 
           6450      1.65923e+8 
           6470      1.64044e+8 
           6490      1.62203e+8 
           6510      1.60399e+8 
           6530      1.58357e+8 
           6550      1.53537e+8 
           6570      1.38308e+8 
           6590      1.52572e+8 
           6610      1.51676e+8 
           6630      1.50025e+8 
           6650      1.48468e+8 
           6670       1.4564e+8 
           6690      1.44072e+8 
           6710      1.43666e+8 
           6730      1.42098e+8 
           6750      1.40571e+8 
           6770      1.39051e+8 
           6790      1.37539e+8 
           6810      1.36074e+8 
           6830      1.34616e+8 
           6850      1.33181e+8 
           6870       1.3176e+8 
           6890      1.30362e+8 
           6910      1.28977e+8 
           6930      1.27614e+8 
           6950      1.26272e+8 
           6970      1.24943e+8 
           6990      1.23628e+8 
           7010      1.22341e+8 
           7030      1.21067e+8 
           7050      1.19812e+8 
           7070      1.16754e+8 
           7090       1.1734e+8 
           7110      1.16129e+8 
           7130      1.14938e+8 
           7150      1.13758e+8 
           7170      1.12567e+8 
           7190      1.11439e+8 
           7210      1.10307e+8 
           7230      1.09063e+8 
           7250      1.08075e+8 
           7270      1.06982e+8 
           7290      1.05064e+8 
           7310      1.04821e+8 
           7330      1.03787e+8 
           7350      1.02749e+8 
           7370      1.01727e+8 
           7390      1.00708e+8 
           7410      9.97122e+7 
           7430      9.87189e+7 
           7450       9.7762e+7 
           7470      9.67936e+7 
           7490      9.58409e+7 
           7510      9.48702e+7 
           7530      9.39749e+7 
           7550      9.30547e+7 
           7570      9.21495e+7 
           7590      9.12525e+7 
           7610      9.03701e+7 
           7630      8.94958e+7 
           7650      8.86358e+7 
           7670      8.77835e+7 
           7690      8.69389e+7 
           7710      8.61018e+7 
           7730      8.52849e+7 
           7750      8.44627e+7 
           7770      8.36602e+7 
           7790      8.28774e+7 
           7810      8.20273e+7 
           7830      8.13138e+7 
           7850      8.06371e+7 
           7870      7.98689e+7 
           7890      7.90772e+7 
           7910      7.83888e+7 
           7930      7.75806e+7 
           7950      7.67556e+7 
           7970      7.59913e+7 
           7990      7.53163e+7 
           8010      7.45942e+7 
           8030      7.39426e+7 
           8050      7.33083e+7 
           8070      7.26677e+7 
           8090      7.18656e+7 
           8110      7.12825e+7 
           8130      7.07327e+7 
           8150      6.99492e+7 
           8170      6.94774e+7 
           8190      6.87453e+7 
           8210      6.78798e+7 
           8230      6.74836e+7 
           8250      6.68911e+7 
           8270        6.594e+7 
           8290      6.56113e+7 
           8310      6.50449e+7 
           8330      6.44506e+7 
           8350      6.35695e+7 
           8370      6.31639e+7 
           8390      6.26865e+7 
           8410       6.2101e+7 
           8430      6.14674e+7 
           8450      6.05912e+7 
           8470      6.01531e+7 
           8490      5.99118e+7 
           8510      5.88294e+7 
           8530      5.90716e+7 
           8550      5.69868e+7 
           8570      5.88857e+7 
           8590      5.61305e+7 
