# Kurucz ODFNEW /NOVER (2003)
# teff = 9000 K (value for the effective temperature for the model. Temperatures are given in K)
# logg = 3 log(cm/s2) (value for Log(G) for the model.)
# meta = -2  (value for the Metallicity for the model.)
# lh = 1.25  (l/Hp where l is the  mixing length of the convective element and Hp is the pressure scale height)
# vtur = 2 km/s (Microturbulence velocity)
# alpha = 0.4  (Alpha)
#
# column 1: WAVELENGTH (ANGSTROM), Wavelength in Angstrom
# column 2: FLUX (ERG/CM2/S/A), Flux in erg/cm2/s/A
          273.5     3.99795e-23 
          278.5     2.00011e-22 
            284     9.49717e-22 
            290     4.75772e-21 
            296     2.22294e-20 
            301     7.66091e-20 
            308     4.03956e-19 
            318     3.81073e-18 
            328     3.12319e-17 
            338     2.25123e-16 
            348     1.44422e-15 
            357     7.01647e-15 
            366     3.14813e-14 
            375     1.31012e-13 
            385     5.89297e-13 
            395     2.44907e-12 
            405     9.46159e-12 
            414     3.01391e-11 
            422     8.08359e-11 
            430     2.08699e-10 
            441     7.25425e-10 
            451      2.13034e-9 
            460      5.38744e-9 
            470      1.44609e-8 
            480       3.7171e-8 
            490      9.17848e-8 
            500      2.18126e-7 
            506      4.30029e-7 
            512      7.52384e-7 
            520      1.41315e-6 
            530      3.03677e-6 
            540      6.26952e-6 
            550      1.26992e-5 
            560      2.49367e-5 
            570      4.77538e-5 
            580      8.87879e-5 
            590     0.000163246 
            600     0.000292112 
            610     0.000512184 
            620     0.000880855 
            630      0.00148717 
            640      0.00246714 
            650      0.00402561 
            658      0.00588782 
            665      0.00814591 
            675       0.0127904 
            685       0.0197989 
            695       0.0302358 
            705       0.0455774 
            716        0.070564 
            726        0.103696 
            735        0.145218 
            745        0.208936 
            755        0.297478 
            765        0.419335 
            775        0.585437 
            785        0.809795 
            795         1.11006 
            805         1.50889 
            815         2.03405 
            825         2.72031 
            835         3.60992 
            845         4.75612 
            855         6.22123 
            865         8.08265 
            875         10.4321 
            885         13.3799 
            895         17.0548 
            905         21.6077 
            915         69.2375 
            925         378.321 
            935         651.221 
            945         1222.08 
            955         2028.17 
            965         2656.45 
            975         1744.22 
            985         6394.76 
            995         37211.2 
           1005         17825.2 
           1015         5459.92 
           1025         3183.05 
           1035         7541.45 
           1045         38575.9 
           1055          508827 
           1065      1.44481e+6 
           1075      2.59891e+6 
           1085      3.40272e+6 
           1095       3.3663e+6 
           1105       8.3718e+6 
           1115      1.92831e+7 
           1125      1.91418e+7 
           1135      1.87338e+7 
           1145      1.41715e+7 
           1155       8.5189e+6 
           1165      4.11197e+6 
           1175          924725 
           1185      2.14023e+6 
           1195         32037.3 
           1205         22637.1 
           1215         8477.42 
           1225           24916 
           1235         47764.7 
           1245         66585.2 
           1255          512727 
           1265      2.46229e+6 
           1275      7.31084e+6 
           1285       1.5322e+7 
           1295      2.05365e+7 
           1305       2.0607e+7 
           1315      3.04808e+7 
           1325      3.63613e+7 
           1335      4.00399e+7 
           1345      4.55297e+7 
           1355      4.51577e+7 
           1365      4.56974e+7 
           1375      4.68823e+7 
           1385      4.63668e+7 
           1395      4.60917e+7 
           1405       5.2604e+7 
           1415      5.71861e+7 
           1425      5.92842e+7 
           1435      5.65764e+7 
           1442      6.14329e+7 
           1447      6.21462e+7 
           1455      6.35254e+7 
           1465      6.17238e+7 
           1475      6.16672e+7 
           1485      6.19721e+7 
           1495      6.35393e+7 
           1505      6.44408e+7 
           1512      6.38192e+7 
           1517      6.42177e+7 
           1525      6.24636e+7 
           1535      6.14893e+7 
           1545      6.34546e+7 
           1555      5.98632e+7 
           1565      5.49353e+7 
           1575      5.84163e+7 
           1585      6.02803e+7 
           1595      6.21509e+7 
           1605       5.9618e+7 
           1615      6.02311e+7 
           1625       5.7285e+7 
           1635      5.91456e+7 
           1645      6.06158e+7 
           1655      5.54113e+7 
           1665      6.05436e+7 
           1672      5.55017e+7 
           1677      5.79147e+7 
           1685      6.02547e+7 
           1695      5.75881e+7 
           1705      5.69729e+7 
           1715      5.86121e+7 
           1725      5.76889e+7 
           1735      5.91108e+7 
           1745      5.78649e+7 
           1755      5.91411e+7 
           1765      5.59031e+7 
           1775      5.83432e+7 
           1785      5.74466e+7 
           1795      5.89538e+7 
           1805      5.72617e+7 
           1815      5.68132e+7 
           1825      5.56799e+7 
           1835      5.58399e+7 
           1845      5.37776e+7 
           1855       5.4985e+7 
           1865      5.50089e+7 
           1875      5.53988e+7 
           1885      5.54117e+7 
           1895      5.47528e+7 
           1905      5.32162e+7 
           1915      5.37467e+7 
           1925      5.42633e+7 
           1935       5.3236e+7 
           1945      5.45044e+7 
           1955      5.41138e+7 
           1967      5.40174e+7 
           1976      5.29418e+7 
           1984      5.26085e+7 
           1995      5.25742e+7 
           2005      5.16725e+7 
           2015      5.03054e+7 
           2025      5.03473e+7 
           2035      5.11555e+7 
           2045      5.09546e+7 
           2055      4.93296e+7 
           2065      4.95306e+7 
           2074      5.03234e+7 
           2078      5.06516e+7 
           2085      5.04481e+7 
           2095      4.97994e+7 
           2105      4.96598e+7 
           2115      4.92478e+7 
           2125      4.90523e+7 
           2135      4.72508e+7 
           2145      4.88223e+7 
           2155      4.82331e+7 
           2165      4.70491e+7 
           2175      4.70197e+7 
           2185      4.70045e+7 
           2195      4.81997e+7 
           2205      4.68887e+7 
           2215       4.5058e+7 
           2225      4.50877e+7 
           2235      4.70155e+7 
           2245      4.56468e+7 
           2255      4.45272e+7 
           2265      4.40622e+7 
           2275       4.5617e+7 
           2285      4.58095e+7 
           2295      4.46423e+7 
           2305      4.47507e+7 
           2315      4.43255e+7 
           2325      4.44901e+7 
           2335      4.37146e+7 
           2345      4.15086e+7 
           2355      4.34636e+7 
           2365      4.17013e+7 
           2375      4.28342e+7 
           2385      4.02326e+7 
           2395      4.22394e+7 
           2405      4.16185e+7 
           2415      4.18223e+7 
           2425      4.25877e+7 
           2435      4.15276e+7 
           2445      4.22618e+7 
           2455      4.20114e+7 
           2465      4.12353e+7 
           2475      4.06605e+7 
           2485      4.15717e+7 
           2495      4.08264e+7 
           2505      4.20056e+7 
           2513      4.08897e+7 
           2518      4.07649e+7 
           2525      3.95075e+7 
           2535      3.92838e+7 
           2545      3.95486e+7 
           2555      4.07326e+7 
           2565      4.04322e+7 
           2575      4.12301e+7 
           2585      4.14135e+7 
           2595      4.11044e+7 
           2605       4.0443e+7 
           2615      4.02032e+7 
           2625      4.03108e+7 
           2635      4.05529e+7 
           2645      4.22074e+7 
           2655      4.19339e+7 
           2665      4.08984e+7 
           2675      4.13292e+7 
           2685      4.15743e+7 
           2695      4.09639e+7 
           2705      4.09638e+7 
           2715      4.02349e+7 
           2725      4.02374e+7 
           2735      4.08679e+7 
           2745      3.87748e+7 
           2755       3.8878e+7 
           2765      3.96143e+7 
           2775      4.05064e+7 
           2785      4.02505e+7 
           2795       3.6296e+7 
           2805      3.81722e+7 
           2815      4.06351e+7 
           2825      4.04032e+7 
           2835      3.98084e+7 
           2845      3.94694e+7 
           2855      3.88685e+7 
           2865      3.92384e+7 
           2875      3.91582e+7 
           2885      3.94308e+7 
           2895      3.96187e+7 
           2910      4.00201e+7 
           2930      3.92782e+7 
           2950      3.91409e+7 
           2970      3.91716e+7 
           2990       3.9018e+7 
           3010      3.91794e+7 
           3030      3.90825e+7 
           3050      3.88385e+7 
           3070      3.83864e+7 
           3090      3.85066e+7 
           3110      3.82989e+7 
           3130      3.80594e+7 
           3150      3.79231e+7 
           3170      3.78195e+7 
           3190      3.73024e+7 
           3210      3.74276e+7 
           3230      3.70017e+7 
           3250      3.70898e+7 
           3270      3.71483e+7 
           3290      3.71053e+7 
           3310      3.70021e+7 
           3330      3.66269e+7 
           3350      3.62849e+7 
           3370      3.62668e+7 
           3390      3.61024e+7 
           3410      3.62212e+7 
           3430      3.60626e+7 
           3450      3.59242e+7 
           3470      3.57397e+7 
           3490       3.5622e+7 
           3510      3.55138e+7 
           3530      3.53997e+7 
           3550      3.52621e+7 
           3570      3.50691e+7 
           3590       3.4922e+7 
           3610      3.47848e+7 
           3630      3.46312e+7 
           3640      3.45379e+7 
           3650      3.47561e+7 
           3670      3.44007e+7 
           3690      3.33786e+7 
           3710       3.8231e+7 
           3730      4.36763e+7 
           3750       6.2294e+7 
           3770      6.74078e+7 
           3790      8.35335e+7 
           3810      9.70365e+7 
           3830      7.65149e+7 
           3850      1.05815e+8 
           3870      1.17102e+8 
           3890      6.56061e+7 
           3910      1.14849e+8 
           3930       1.1741e+8 
           3950      1.13095e+8 
           3970      6.24389e+7 
           3990       1.0789e+8 
           4010      1.14164e+8 
           4030       1.1311e+8 
           4050      1.11704e+8 
           4070      1.08639e+8 
           4090      8.81507e+7 
           4110      6.68706e+7 
           4130      1.03103e+8 
           4150      1.04461e+8 
           4170      1.03435e+8 
           4190      1.02403e+8 
           4210      1.01098e+8 
           4230      9.96371e+7 
           4250      9.83824e+7 
           4270      9.69051e+7 
           4290      9.52647e+7 
           4310      9.21984e+7 
           4330      7.18119e+7 
           4350      6.06391e+7 
           4370      8.83623e+7 
           4390       8.9072e+7 
           4410      8.84829e+7 
           4430      8.76858e+7 
           4450      8.65893e+7 
           4470      8.54108e+7 
           4490      8.39191e+7 
           4510      8.33524e+7 
           4530      8.23187e+7 
           4550      8.11399e+7 
           4570      8.03158e+7 
           4590      7.93385e+7 
           4610      7.84902e+7 
           4630      7.74569e+7 
           4650      7.65934e+7 
           4670      7.56658e+7 
           4690      7.47341e+7 
           4710      7.36966e+7 
           4730      7.29737e+7 
           4750      7.21083e+7 
           4770      7.11754e+7 
           4790      7.01603e+7 
           4810      6.90195e+7 
           4830      6.69247e+7 
           4850      5.40738e+7 
           4870      4.34185e+7 
           4890      6.36634e+7 
           4910       6.4946e+7 
           4930      6.44961e+7 
           4950       6.3996e+7 
           4970       6.3366e+7 
           4990      6.26306e+7 
           5010      6.18269e+7 
           5030      6.12097e+7 
           5050      6.04643e+7 
           5070      5.98417e+7 
           5090      5.91687e+7 
           5110      5.85031e+7 
           5130      5.78445e+7 
           5150      5.72001e+7 
           5170       5.6344e+7 
           5190      5.58141e+7 
           5210      5.53142e+7 
           5230      5.46647e+7 
           5250      5.41096e+7 
           5270      5.34718e+7 
           5290      5.29323e+7 
           5310      5.23299e+7 
           5330      5.17668e+7 
           5350      5.12331e+7 
           5370      5.06745e+7 
           5390      5.01319e+7 
           5410      4.95894e+7 
           5430      4.90612e+7 
           5450      4.85458e+7 
           5470      4.80303e+7 
           5490      4.75222e+7 
           5510      4.70215e+7 
           5530      4.65194e+7 
           5550      4.60404e+7 
           5570      4.55574e+7 
           5590      4.50813e+7 
           5610      4.46132e+7 
           5630       4.4153e+7 
           5650      4.36946e+7 
           5670      4.32463e+7 
           5690       4.2802e+7 
           5710       4.2364e+7 
           5730      4.19311e+7 
           5750      4.15043e+7 
           5770      4.10824e+7 
           5790      4.06665e+7 
           5810      4.02564e+7 
           5830       3.9851e+7 
           5850      3.94513e+7 
           5870      3.90288e+7 
           5890      3.86491e+7 
           5910      3.82812e+7 
           5930      3.79012e+7 
           5950      3.75234e+7 
           5970      3.71551e+7 
           5990      3.67867e+7 
           6010      3.64285e+7 
           6030      3.60723e+7 
           6050       3.5721e+7 
           6070      3.53735e+7 
           6090      3.50308e+7 
           6110      3.46919e+7 
           6130      3.43566e+7 
           6150        3.401e+7 
           6170      3.36988e+7 
           6190      3.33782e+7 
           6210        3.306e+7 
           6230      3.27442e+7 
           6250      3.24279e+7 
           6270      3.21274e+7 
           6290      3.18235e+7 
           6310      3.15237e+7 
           6330      3.12279e+7 
           6350      3.09035e+7 
           6370      3.06309e+7 
           6390      3.03601e+7 
           6410      3.00756e+7 
           6430      2.97976e+7 
           6450      2.95063e+7 
           6470      2.92054e+7 
           6490      2.88745e+7 
           6510      2.84973e+7 
           6530      2.78256e+7 
           6550      2.46151e+7 
           6570      1.96879e+7 
           6590      2.64728e+7 
           6610      2.71199e+7 
           6630      2.70551e+7 
           6650      2.68722e+7 
           6670      2.66943e+7 
           6690      2.64558e+7 
           6710      2.62214e+7 
           6730      2.59859e+7 
           6750      2.57561e+7 
           6770      2.55277e+7 
           6790      2.53015e+7 
           6810      2.50784e+7 
           6830      2.48567e+7 
           6850      2.46387e+7 
           6870       2.4422e+7 
           6890      2.42082e+7 
           6910      2.39972e+7 
           6930      2.37875e+7 
           6950      2.35814e+7 
           6970      2.33773e+7 
           6990      2.31751e+7 
           7010      2.29732e+7 
           7030      2.27772e+7 
           7050      2.25814e+7 
           7070      2.23875e+7 
           7090      2.21969e+7 
           7110      2.20044e+7 
           7130      2.18204e+7 
           7150      2.16344e+7 
           7170      2.14523e+7 
           7190      2.12704e+7 
           7210       2.1091e+7 
           7230      2.09139e+7 
           7250      2.07385e+7 
           7270      2.05647e+7 
           7290      2.03924e+7 
           7310      2.02232e+7 
           7330      2.00548e+7 
           7350      1.98886e+7 
           7370      1.97239e+7 
           7390      1.95614e+7 
           7410      1.93997e+7 
           7430      1.92388e+7 
           7450       1.9082e+7 
           7470      1.89246e+7 
           7490      1.87706e+7 
           7510      1.86187e+7 
           7530      1.84674e+7 
           7550      1.83175e+7 
           7570      1.81696e+7 
           7590      1.80229e+7 
           7610      1.78776e+7 
           7630      1.77335e+7 
           7650      1.75913e+7 
           7670      1.74504e+7 
           7690      1.73107e+7 
           7710      1.71722e+7 
           7730      1.70362e+7 
           7750      1.69013e+7 
           7770      1.66672e+7 
           7790      1.66351e+7 
           7810      1.65037e+7 
           7830      1.63734e+7 
           7850      1.62448e+7 
           7870      1.61131e+7 
           7890      1.59813e+7 
           7910      1.58668e+7 
           7930      1.57432e+7 
           7950      1.56188e+7 
           7970      1.54995e+7 
           7990      1.53701e+7 
           8010      1.52606e+7 
           8030      1.51432e+7 
           8050      1.50267e+7 
           8070      1.49113e+7 
           8090      1.47968e+7 
           8110      1.46838e+7 
           8130      1.45717e+7 
           8150      1.44606e+7 
           8170      1.43509e+7 
           8190      1.42388e+7 
           8210      1.41852e+7 
           8230      1.40852e+7 
           8250      1.39865e+7 
           8270      1.38997e+7 
           8290      1.38031e+7 
           8310      1.37024e+7 
           8330      1.35883e+7 
           8350      1.34768e+7 
           8370      1.33211e+7 
           8390      1.31849e+7 
           8410      1.30184e+7 
           8430      1.29879e+7 
           8450      1.29091e+7 
           8470      1.23572e+7 
           8490      1.30653e+7 
           8510      1.19833e+7 
           8530      1.31817e+7 
           8550      1.13716e+7 
           8570      1.33965e+7 
           8590      1.22064e+7 
           8610      1.18087e+7 
           8630      1.36545e+7 
           8650      1.30653e+7 
           8670      1.04886e+7 
           8690       1.3484e+7 
           8710      1.39456e+7 
           8730      1.33835e+7 
           8750      1.01683e+7 
           8770      1.26519e+7 
           8790      1.37324e+7 
           8810       1.3773e+7 
           8830       1.3486e+7 
           8850      1.20014e+7 
           8870      9.89217e+6 
           8890      1.28012e+7 
           8910      1.32549e+7 
           8930      1.32542e+7 
           8950      1.31767e+7 
           8970      1.29929e+7 
           8990       1.2463e+7 
           9010      9.76674e+6 
           9030      1.08153e+7 
           9050      1.23885e+7 
           9070      1.25542e+7 
           9090       1.2509e+7 
           9110      1.24646e+7 
           9130       1.2382e+7 
           9150      1.22798e+7 
           9170      1.21497e+7 
           9190      1.19229e+7 
           9210      1.11521e+7 
