# Kurucz ODFNEW /NOVER (2003)
# teff = 8250 K (value for the effective temperature for the model. Temperatures are given in K)
# logg = 4.5 log(cm/s2) (value for Log(G) for the model.)
# meta = 0  (value for the Metallicity for the model.)
# lh = 1.25  (l/Hp where l is the  mixing length of the convective element and Hp is the pressure scale height)
# vtur = 2 km/s (Microturbulence velocity)
# alpha = 0.4  (Alpha)
#
# column 1: WAVELENGTH (ANGSTROM), Wavelength in Angstrom
# column 2: FLUX (ERG/CM2/S/A), Flux in erg/cm2/s/A
            328     1.33279e-22 
            338     1.44751e-21 
            348     1.33587e-20 
            357     8.83496e-20 
            366     5.30716e-19 
            375      2.4142e-19 
            385     1.32275e-18 
            395     6.60789e-18 
            405     3.03382e-17 
            414     1.11872e-16 
            422     3.39277e-16 
            430     9.84427e-16 
            441     3.98132e-15 
            451     1.33009e-14 
            460     3.75359e-14 
            470     1.13072e-13 
            480      3.2403e-13 
            490     8.86797e-13 
            500     2.32111e-12 
            506     5.35866e-12 
            512     1.04045e-11 
            520     2.09598e-11 
            530      4.9058e-11 
            540     1.08941e-10 
            550     2.37968e-10 
            560     5.00656e-10 
            570      1.02309e-9 
            580      2.00941e-9 
            590      3.93991e-9 
            600      7.44648e-9 
            610      1.37712e-8 
            620      2.48736e-8 
            630      4.40049e-8 
            640      7.63079e-8 
            650      1.29961e-7 
            658      1.96307e-7 
            665       2.7828e-7 
            675      4.53828e-7 
            685      7.28618e-7 
            695      1.15064e-6 
            705      1.77683e-6 
            716      2.86279e-6 
            726      4.32683e-6 
            735      6.20619e-6 
            745      9.14631e-6 
            755      1.33383e-5 
            765      1.92419e-5 
            775      2.74507e-5 
            785       3.8822e-5 
            795       5.3556e-5 
            805         7.45e-5 
            815     0.000102851 
            825     0.000139909 
            835     0.000188558 
            845     0.000252115 
            855     0.000334355 
            865     0.000440027 
            875     0.000571325 
            885     0.000745354 
            895     0.000960136 
            905      0.00122252 
            915        0.490472 
            925         1.69228 
            935         2.22972 
            945         2.92967 
            955         3.98046 
            965         5.08927 
            975         6.06532 
            985         7.76892 
            995         9.29052 
           1005         12.0968 
           1015         14.8852 
           1025         16.9327 
           1035         21.9804 
           1045         26.7875 
           1055         32.4525 
           1065         38.4759 
           1075         46.9043 
           1085         56.5146 
           1095         66.1886 
           1105         184.473 
           1115         553.992 
           1125         771.185 
           1135         1054.69 
           1145         1293.93 
           1155         1392.26 
           1165         1835.37 
           1175         2130.45 
           1185         2197.75 
           1195         1177.79 
           1205         1307.71 
           1215         317.236 
           1225         1470.14 
           1235         3190.24 
           1245         5957.58 
           1255         10697.3 
           1265         9822.78 
           1275         14367.2 
           1285         18709.1 
           1295         21734.5 
           1305         17912.6 
           1315         25807.7 
           1325         29616.9 
           1335         32442.8 
           1345         37428.8 
           1355           38526 
           1365         41928.6 
           1375         45381.9 
           1385           48753 
           1395         54551.5 
           1405           59608 
           1415         62610.6 
           1425         68280.2 
           1435         69190.6 
           1442         78347.5 
           1447         81909.2 
           1455         89223.5 
           1465         91481.6 
           1475           98325 
           1485          106452 
           1495          117292 
           1505          127105 
           1512          130054 
           1517          138560 
           1525          154063 
           1535          224641 
           1545          359586 
           1555          385996 
           1565          376203 
           1575          550479 
           1585          713068 
           1595          822162 
           1605          909465 
           1615      1.01991e+6 
           1625          993974 
           1635      1.41829e+6 
           1645      2.84744e+6 
           1655       1.6659e+6 
           1665      3.17463e+6 
           1672      1.92786e+6 
           1677      4.81587e+6 
           1685       7.2791e+6 
           1695      4.58785e+6 
           1705      7.89168e+6 
           1715      1.41432e+7 
           1725      1.50635e+7 
           1735      2.05509e+7 
           1745      1.95687e+7 
           1755      2.52664e+7 
           1765      1.52519e+7 
           1775      2.30082e+7 
           1785       2.3891e+7 
           1795       3.0027e+7 
           1805      2.28337e+7 
           1815      2.39585e+7 
           1825      2.15578e+7 
           1835      2.12037e+7 
           1845      1.73478e+7 
           1855      2.17223e+7 
           1865      2.58029e+7 
           1875      2.48158e+7 
           1885      2.58244e+7 
           1895      2.70056e+7 
           1905      2.41701e+7 
           1915      2.78559e+7 
           1925       2.7186e+7 
           1935      2.00447e+7 
           1945      2.94321e+7 
           1955      2.98316e+7 
           1967      3.27491e+7 
           1976      3.11566e+7 
           1984       2.9254e+7 
           1995      2.93402e+7 
           2005      2.71984e+7 
           2015       2.6544e+7 
           2025      2.44065e+7 
           2035      2.92625e+7 
           2045       3.1593e+7 
           2055      2.94477e+7 
           2065      2.92559e+7 
           2074      3.38581e+7 
           2078       3.5943e+7 
           2085      3.42835e+7 
           2095       3.2048e+7 
           2105      2.93823e+7 
           2115      3.01655e+7 
           2125      3.06915e+7 
           2135        2.473e+7 
           2145      3.03019e+7 
           2155      3.00181e+7 
           2165      2.74066e+7 
           2175      2.71743e+7 
           2185      2.94465e+7 
           2195      3.17364e+7 
           2205      2.99313e+7 
           2215      2.59805e+7 
           2225      2.61919e+7 
           2235      3.12411e+7 
           2245      2.78584e+7 
           2255       2.5599e+7 
           2265      2.53352e+7 
           2275      2.76599e+7 
           2285      2.95245e+7 
           2295      2.61471e+7 
           2305      2.75459e+7 
           2315       2.6784e+7 
           2325      2.60349e+7 
           2335      2.27217e+7 
           2345      1.86891e+7 
           2355      2.57739e+7 
           2365       1.9743e+7 
           2375       2.3006e+7 
           2385      1.71402e+7 
           2395      1.99746e+7 
           2405      1.94538e+7 
           2415      1.99384e+7 
           2425      2.43855e+7 
           2435      2.31118e+7 
           2445      2.54836e+7 
           2455      2.51396e+7 
           2465       2.5326e+7 
           2475      2.29612e+7 
           2485      2.34942e+7 
           2495      2.21425e+7 
           2505      2.74588e+7 
           2513      2.16224e+7 
           2518      2.10167e+7 
           2525      1.90485e+7 
           2535      1.72928e+7 
           2545      1.58863e+7 
           2555      1.91734e+7 
           2565      1.98803e+7 
           2575      2.44056e+7 
           2585      2.51107e+7 
           2595      2.45159e+7 
           2605      2.27208e+7 
           2615      2.14896e+7 
           2625      2.62796e+7 
           2635      2.68227e+7 
           2645      3.22017e+7 
           2655      3.33706e+7 
           2665      2.74778e+7 
           2675      3.02974e+7 
           2685        3.044e+7 
           2695      2.74255e+7 
           2705      2.92125e+7 
           2715      2.63191e+7 
           2725      2.69031e+7 
           2735      2.94918e+7 
           2745      2.20577e+7 
           2755      2.35334e+7 
           2765      2.49117e+7 
           2775      2.75978e+7 
           2785      2.22772e+7 
           2795      9.25376e+6 
           2805      1.22197e+7 
           2815      2.74524e+7 
           2825      3.11613e+7 
           2835      3.01713e+7 
           2845      2.83612e+7 
           2855      2.46308e+7 
           2865      3.01596e+7 
           2875      2.95217e+7 
           2885      2.96134e+7 
           2895      2.83915e+7 
           2910      3.30702e+7 
           2930      3.10023e+7 
           2950      3.09955e+7 
           2970      3.24855e+7 
           2990      3.24081e+7 
           3010      3.29144e+7 
           3030      3.26832e+7 
           3050      3.24921e+7 
           3070      3.26173e+7 
           3090       3.3132e+7 
           3110       3.2026e+7 
           3130      3.20517e+7 
           3150      3.28279e+7 
           3170      3.25811e+7 
           3190      3.02532e+7 
           3210      3.14788e+7 
           3230      2.97855e+7 
           3250      3.12597e+7 
           3270      3.20401e+7 
           3290       3.2258e+7 
           3310      3.27579e+7 
           3330       3.1823e+7 
           3350      3.12488e+7 
           3370      3.08916e+7 
           3390      3.11524e+7 
           3410      3.13926e+7 
           3430      3.16721e+7 
           3450      3.13202e+7 
           3470      3.09167e+7 
           3490      3.08724e+7 
           3510      3.14438e+7 
           3530      3.11399e+7 
           3550      3.19858e+7 
           3570      3.04253e+7 
           3590       3.0172e+7 
           3610      3.03301e+7 
           3630      3.04256e+7 
           3640      2.99004e+7 
           3650      3.13599e+7 
           3670      3.11449e+7 
           3690       2.9992e+7 
           3710      2.98694e+7 
           3730      2.89542e+7 
           3750      3.42854e+7 
           3770      3.64168e+7 
           3790        4.408e+7 
           3810      5.10253e+7 
           3830      4.02697e+7 
           3850       5.6233e+7 
           3870      6.32196e+7 
           3890      3.73665e+7 
           3910      6.28593e+7 
           3930      5.13716e+7 
           3950      6.18244e+7 
           3970      3.39372e+7 
           3990      6.23682e+7 
           4010      7.25762e+7 
           4030      7.30545e+7 
           4050      7.20087e+7 
           4070      6.77844e+7 
           4090      5.27639e+7 
           4110      4.06701e+7 
           4130      6.43693e+7 
           4150      6.97526e+7 
           4170      6.97568e+7 
           4190      6.93306e+7 
           4210      6.94684e+7 
           4230      6.72445e+7 
           4250      6.76559e+7 
           4270      6.50256e+7 
           4290      6.43286e+7 
           4310      5.79754e+7 
           4330      4.47641e+7 
           4350      3.82732e+7 
           4370      5.88701e+7 
           4390      6.13375e+7 
           4410      6.11911e+7 
           4430      6.02079e+7 
           4450      6.11918e+7 
           4470       6.1262e+7 
           4490      6.02129e+7 
           4510      6.17489e+7 
           4530      5.92901e+7 
           4550      5.86026e+7 
           4570        6.001e+7 
           4590      5.80577e+7 
           4610      5.89891e+7 
           4630      5.73822e+7 
           4650      5.75657e+7 
           4670      5.74019e+7 
           4690      5.51133e+7 
           4710      5.27646e+7 
           4730       5.5256e+7 
           4750      5.49136e+7 
           4770      5.39755e+7 
           4790      5.30512e+7 
           4810      5.13995e+7 
           4830      4.83958e+7 
           4850      3.70123e+7 
           4870      2.98024e+7 
           4890      4.51311e+7 
           4910      4.84849e+7 
           4930      4.84674e+7 
           4950      4.92666e+7 
           4970      4.95297e+7 
           4990       4.7905e+7 
           5010      4.62775e+7 
           5030      4.73129e+7 
           5050      4.64528e+7 
           5070      4.71042e+7 
           5090      4.65341e+7 
           5110      4.63898e+7 
           5130      4.54491e+7 
           5150      4.45243e+7 
           5170      4.33306e+7 
           5190      4.27777e+7 
           5210      4.32063e+7 
           5230       4.2714e+7 
           5250      4.32448e+7 
           5270      4.02097e+7 
           5290      4.22338e+7 
           5310      4.16958e+7 
           5330       3.9633e+7 
           5350      4.10167e+7 
           5370      4.05994e+7 
           5390      4.01522e+7 
           5410      3.90243e+7 
           5430      3.93903e+7 
           5450      3.94214e+7 
           5470      3.89699e+7 
           5490      3.84615e+7 
           5510      3.83243e+7 
           5530      3.78739e+7 
           5550      3.78913e+7 
           5570      3.72359e+7 
           5590      3.66493e+7 
           5610      3.65979e+7 
           5630      3.66153e+7 
           5650        3.615e+7 
           5670      3.54853e+7 
           5690      3.54538e+7 
           5710      3.50592e+7 
           5730      3.52417e+7 
           5750      3.45423e+7 
           5770      3.44357e+7 
           5790      3.40701e+7 
           5810      3.38638e+7 
           5830      3.36285e+7 
           5850      3.31876e+7 
           5870      3.29258e+7 
           5890      3.22226e+7 
           5910      3.23845e+7 
           5930      3.21032e+7 
           5950      3.17633e+7 
           5970      3.15603e+7 
           5990      3.11683e+7 
           6010      3.07808e+7 
           6030      3.05313e+7 
           6050      3.03463e+7 
           6070      3.02734e+7 
           6090      2.99063e+7 
           6110      2.95473e+7 
           6130      2.89729e+7 
           6150      2.83574e+7 
           6170      2.82709e+7 
           6190      2.86764e+7 
           6210      2.84178e+7 
           6230      2.80075e+7 
           6250      2.73184e+7 
           6270        2.775e+7 
           6290       2.7531e+7 
           6310      2.70766e+7 
           6330      2.68842e+7 
           6350      2.63321e+7 
           6370      2.62329e+7 
           6390      2.62608e+7 
           6410      2.57809e+7 
           6430       2.5731e+7 
           6450      2.50546e+7 
           6470      2.50629e+7 
           6490      2.46126e+7 
           6510      2.42633e+7 
           6530       2.3182e+7 
           6550      1.97591e+7 
           6570      1.58669e+7 
           6590      2.17078e+7 
           6610      2.31148e+7 
           6630      2.34153e+7 
           6650      2.34109e+7 
           6670      2.32606e+7 
           6690      2.31773e+7 
           6710      2.29916e+7 
           6730      2.27978e+7 
           6750      2.24165e+7 
           6770      2.25144e+7 
           6790      2.23174e+7 
           6810      2.21369e+7 
           6830      2.19364e+7 
           6850      2.17475e+7 
           6870       2.1633e+7 
           6890      2.14576e+7 
           6910      2.12831e+7 
           6930      2.10953e+7 
           6950       2.0946e+7 
           6970      2.07577e+7 
           6990      2.06299e+7 
           7010      2.01765e+7 
           7030      2.02326e+7 
           7050      2.01195e+7 
           7070      1.99614e+7 
           7090      1.98212e+7 
           7110      1.93313e+7 
           7130      1.94105e+7 
           7150      1.92269e+7 
           7170      1.90655e+7 
           7190      1.89064e+7 
           7210      1.88234e+7 
           7230      1.86682e+7 
           7250      1.84428e+7 
           7270      1.84434e+7 
           7290      1.81665e+7 
           7310       1.8142e+7 
           7330      1.79723e+7 
           7350      1.79053e+7 
           7370      1.77729e+7 
           7390      1.75596e+7 
           7410      1.73092e+7 
           7430      1.71608e+7 
           7450      1.70953e+7 
           7470      1.69363e+7 
           7490      1.68561e+7 
           7510      1.68018e+7 
           7530      1.66954e+7 
           7550      1.66137e+7 
           7570      1.64425e+7 
           7590       1.6354e+7 
           7610      1.62064e+7 
           7630      1.61164e+7 
           7650      1.59408e+7 
           7670      1.57406e+7 
           7690      1.56187e+7 
           7710      1.55916e+7 
           7730      1.55041e+7 
           7750       1.5342e+7 
           7770       1.4885e+7 
           7790      1.52004e+7 
           7810      1.50417e+7 
           7830      1.48986e+7 
           7850      1.47421e+7 
           7870       1.4629e+7 
           7890       1.4475e+7 
           7910      1.44182e+7 
           7930      1.41814e+7 
           7950      1.41101e+7 
           7970      1.42043e+7 
           7990      1.39149e+7 
           8010      1.39764e+7 
           8030      1.38362e+7 
           8050      1.37553e+7 
           8070      1.36681e+7 
           8090       1.3569e+7 
           8110      1.34907e+7 
           8130      1.34267e+7 
           8150      1.33246e+7 
           8170      1.32284e+7 
           8190      1.29442e+7 
           8210      1.28393e+7 
           8230      1.27581e+7 
           8250      1.27135e+7 
           8270      1.28074e+7 
           8290      1.27018e+7 
           8310      1.25518e+7 
           8330      1.24096e+7 
           8350      1.24151e+7 
           8370      1.23854e+7 
           8390      1.22563e+7 
           8410      1.21997e+7 
           8430      1.20655e+7 
           8450      1.17779e+7 
           8470      1.18379e+7 
           8490      1.17712e+7 
           8510      1.12707e+7 
           8530      1.16248e+7 
           8550      1.03259e+7 
           8570      1.16545e+7 
           8590      1.11041e+7 
           8610      1.09087e+7 
           8630      1.15249e+7 
           8650      1.11127e+7 
           8670      9.40158e+6 
           8690      1.09902e+7 
           8710      1.14612e+7 
           8730       1.0995e+7 
           8750      9.13401e+6 
           8770      1.05839e+7 
           8790      1.12979e+7 
           8810      1.13233e+7 
           8830      1.09672e+7 
           8850      9.89172e+6 
           8870      8.57203e+6 
           8890      1.04693e+7 
           8910      1.09591e+7 
           8930      1.10192e+7 
           8950      1.11115e+7 
           8970      1.08349e+7 
           8990      1.02484e+7 
           9010      8.27894e+6 
           9030      9.00186e+6 
           9050      1.02643e+7 
           9070      1.03917e+7 
           9090      1.03406e+7 
           9110      1.05649e+7 
           9130      1.06158e+7 
           9150      1.05487e+7 
           9170      1.03491e+7 
           9190      9.99053e+6 
           9210       9.1402e+6 
           9230      7.24424e+6 
           9250      8.74915e+6 
           9270      9.42734e+6 
           9290      9.94815e+6 
           9310      1.00224e+7 
           9330      9.98638e+6 
           9350      9.98119e+6 
           9370      9.94335e+6 
