# Kurucz ODFNEW /NOVER (2003)
# teff = 9000 K (value for the effective temperature for the model. Temperatures are given in K)
# logg = 3.5 log(cm/s2) (value for Log(G) for the model.)
# meta = -2  (value for the Metallicity for the model.)
# lh = 1.25  (l/Hp where l is the  mixing length of the convective element and Hp is the pressure scale height)
# vtur = 2 km/s (Microturbulence velocity)
# alpha = 0  (Alpha)
#
# column 1: WAVELENGTH (ANGSTROM), Wavelength in Angstrom
# column 2: FLUX (ERG/CM2/S/A), Flux in erg/cm2/s/A
          268.5     1.16307e-23 
          273.5     9.92813e-23 
          278.5     4.42907e-22 
            284     2.04404e-21 
            290      1.0074e-20 
            296     4.63516e-20 
            301       1.578e-19 
            308     8.18913e-19 
            318     7.56372e-18 
            328     6.07584e-17 
            338     4.29708e-16 
            348     2.70679e-15 
            357     1.29481e-14 
            366     5.72451e-14 
            375     2.35001e-13 
            385      1.0417e-12 
            395     4.26867e-12 
            405     1.62734e-11 
            414     5.12443e-11 
            422     1.36075e-10 
            430      3.4792e-10 
            441      1.19395e-9 
            451      3.46852e-9 
            460       8.6881e-9 
            470       2.3083e-8 
            480      5.87626e-8 
            490      1.43747e-7 
            500      3.38544e-7 
            506      6.32287e-7 
            512      1.08523e-6 
            520      2.02715e-6 
            530      4.32401e-6 
            540       8.8795e-6 
            550      1.78514e-5 
            560      3.48415e-5 
            570      6.63248e-5 
            580     0.000122728 
            590     0.000224198 
            600      0.00039904 
            610     0.000696084 
            620      0.00119115 
            630      0.00200144 
            640      0.00330521 
            650      0.00536873 
            658      0.00782427 
            665        0.010791 
            675       0.0168709 
            685       0.0260068 
            695       0.0395545 
            705       0.0594013 
            716       0.0915927 
            726        0.134116 
            735        0.187212 
            745        0.268436 
            755        0.380929 
            765        0.535207 
            775        0.744772 
            785         1.02689 
            795         1.40326 
            805         1.90183 
            815         2.55647 
            825         3.40948 
            835         4.51281 
            845         5.92985 
            855         7.73686 
            865         10.0261 
            875         12.9081 
            885         16.5136 
            895         20.9974 
            905         26.5404 
            915         70.7539 
            925         353.867 
            935         614.247 
            945         1155.59 
            955         1857.28 
            965         2479.34 
            975         1699.83 
            985          4911.1 
            995         7454.87 
           1005         7544.47 
           1015         5399.22 
           1025         3114.67 
           1035          7280.5 
           1045         14193.3 
           1055         68378.4 
           1065          316423 
           1075          755496 
           1085      1.19276e+6 
           1095       1.2647e+6 
           1105      4.02793e+6 
           1115       1.2361e+7 
           1125      1.23337e+7 
           1135      1.23816e+7 
           1145      8.63904e+6 
           1155      4.52773e+6 
           1165      1.62772e+6 
           1175          264017 
           1185          304823 
           1195         35097.5 
           1205         24696.9 
           1215         9706.96 
           1225         27271.4 
           1235         51383.3 
           1245         65280.1 
           1255          185671 
           1265        1.007e+6 
           1275       3.7392e+6 
           1285      1.03597e+7 
           1295      1.54893e+7 
           1305       1.9128e+7 
           1315       2.5653e+7 
           1325      3.17756e+7 
           1335      3.57975e+7 
           1345      4.15209e+7 
           1355      4.15238e+7 
           1365      4.30851e+7 
           1375      4.25643e+7 
           1385      3.99565e+7 
           1395      3.86307e+7 
           1405      4.82089e+7 
           1415      5.72764e+7 
           1425      6.00967e+7 
           1435      5.75241e+7 
           1442      6.30889e+7 
           1447      6.28893e+7 
           1455       6.4828e+7 
           1465      6.24435e+7 
           1475      6.33693e+7 
           1485      6.36326e+7 
           1495       6.4795e+7 
           1505      6.59161e+7 
           1512      6.52166e+7 
           1517      6.53538e+7 
           1525      6.45549e+7 
           1535      6.35342e+7 
           1545      6.40007e+7 
           1555      6.07949e+7 
           1565      5.51276e+7 
           1575       5.8023e+7 
           1585      5.92171e+7 
           1595      6.05901e+7 
           1605      5.78865e+7 
           1615      5.99335e+7 
           1625      5.82694e+7 
           1635      6.11327e+7 
           1645      6.33724e+7 
           1655      5.77619e+7 
           1665      6.40823e+7 
           1672      5.90297e+7 
           1677      6.12489e+7 
           1685      6.38903e+7 
           1695      6.12531e+7 
           1705      6.07829e+7 
           1715       6.2415e+7 
           1725      6.13174e+7 
           1735      6.28678e+7 
           1745      6.14503e+7 
           1755      6.28118e+7 
           1765      5.94911e+7 
           1775      6.18682e+7 
           1785      6.08435e+7 
           1795       6.2313e+7 
           1805      6.09365e+7 
           1815      6.03401e+7 
           1825        5.908e+7 
           1835      5.92456e+7 
           1845      5.73036e+7 
           1855      5.82892e+7 
           1865      5.83633e+7 
           1875      5.86575e+7 
           1885      5.85129e+7 
           1895      5.80921e+7 
           1905       5.6972e+7 
           1915      5.70206e+7 
           1925      5.74027e+7 
           1935       5.6176e+7 
           1945      5.75716e+7 
           1955      5.71675e+7 
           1967      5.70952e+7 
           1976      5.60167e+7 
           1984      5.57745e+7 
           1995      5.55483e+7 
           2005      5.45017e+7 
           2015      5.32523e+7 
           2025      5.31944e+7 
           2035      5.40529e+7 
           2045      5.38714e+7 
           2055      5.24037e+7 
           2065       5.2363e+7 
           2074      5.33914e+7 
           2078      5.34949e+7 
           2085      5.32611e+7 
           2095      5.25856e+7 
           2105      5.24485e+7 
           2115      5.21061e+7 
           2125      5.18446e+7 
           2135      5.00725e+7 
           2145      5.15603e+7 
           2155      5.10399e+7 
           2165      4.97071e+7 
           2175      4.96477e+7 
           2185      4.96803e+7 
           2195      5.08699e+7 
           2205      4.95673e+7 
           2215      4.77663e+7 
           2225      4.77321e+7 
           2235      4.96627e+7 
           2245      4.82607e+7 
           2255      4.70728e+7 
           2265      4.65978e+7 
           2275      4.80743e+7 
           2285      4.82901e+7 
           2295      4.70949e+7 
           2305      4.72409e+7 
           2315      4.67634e+7 
           2325      4.68847e+7 
           2335      4.62062e+7 
           2345      4.38879e+7 
           2355      4.58927e+7 
           2365      4.40169e+7 
           2375      4.51691e+7 
           2385      4.25016e+7 
           2395       4.4567e+7 
           2405      4.39496e+7 
           2415      4.41264e+7 
           2425      4.49093e+7 
           2435      4.38474e+7 
           2445      4.45198e+7 
           2455       4.4301e+7 
           2465      4.34066e+7 
           2475      4.28358e+7 
           2485       4.3652e+7 
           2495       4.2884e+7 
           2505      4.41879e+7 
           2513      4.30355e+7 
           2518      4.30002e+7 
           2525      4.17038e+7 
           2535      4.14951e+7 
           2545      4.15814e+7 
           2555      4.28972e+7 
           2565      4.25376e+7 
           2575      4.33607e+7 
           2585      4.35096e+7 
           2595      4.31632e+7 
           2605      4.24866e+7 
           2615       4.2225e+7 
           2625      4.23178e+7 
           2635      4.25626e+7 
           2645      4.42591e+7 
           2655      4.39707e+7 
           2665      4.29093e+7 
           2675      4.33256e+7 
           2685      4.35752e+7 
           2695      4.29516e+7 
           2705      4.29322e+7 
           2715      4.21514e+7 
           2725      4.21394e+7 
           2735      4.27439e+7 
           2745      4.06181e+7 
           2755      4.07303e+7 
           2765       4.1506e+7 
           2775      4.24256e+7 
           2785      4.21875e+7 
           2795       3.9405e+7 
           2805      4.09144e+7 
           2815       4.2524e+7 
           2825      4.22688e+7 
           2835      4.16556e+7 
           2845      4.13312e+7 
           2855      4.07242e+7 
           2865      4.10664e+7 
           2875      4.09895e+7 
           2885      4.12784e+7 
           2895      4.14194e+7 
           2910      4.17707e+7 
           2930      4.10309e+7 
           2950      4.08253e+7 
           2970       4.0827e+7 
           2990      4.06522e+7 
           3010      4.08019e+7 
           3030      4.06787e+7 
           3050      4.04531e+7 
           3070      4.01276e+7 
           3090      4.01346e+7 
           3110      3.99044e+7 
           3130      3.96076e+7 
           3150      3.94973e+7 
           3170      3.93941e+7 
           3190      3.88313e+7 
           3210      3.89339e+7 
           3230      3.86013e+7 
           3250      3.86413e+7 
           3270      3.86316e+7 
           3290      3.85149e+7 
           3310      3.83844e+7 
           3330      3.80878e+7 
           3350       3.7735e+7 
           3370      3.76335e+7 
           3390       3.7489e+7 
           3410      3.75009e+7 
           3430      3.73178e+7 
           3450      3.71839e+7 
           3470      3.69943e+7 
           3490      3.68468e+7 
           3510      3.67278e+7 
           3530      3.65849e+7 
           3550      3.64249e+7 
           3570       3.6213e+7 
           3590      3.60591e+7 
           3610      3.58977e+7 
           3630      3.57405e+7 
           3640      3.56496e+7 
           3650       3.5808e+7 
           3670      3.55727e+7 
           3690      3.42308e+7 
           3710      3.71472e+7 
           3730      4.02618e+7 
           3750      5.38392e+7 
           3770      5.81784e+7 
           3790      7.22165e+7 
           3810      8.58458e+7 
           3830      6.76392e+7 
           3850      9.57423e+7 
           3870      1.08992e+8 
           3890      5.73356e+7 
           3910      1.07937e+8 
           3930      1.14761e+8 
           3950       1.0665e+8 
           3970      5.50386e+7 
           3990      1.00862e+8 
           4010      1.12147e+8 
           4030      1.11906e+8 
           4050      1.10317e+8 
           4070      1.05867e+8 
           4090      8.03113e+7 
           4110      6.02737e+7 
           4130      9.96615e+7 
           4150      1.03126e+8 
           4170      1.02638e+8 
           4190      1.01572e+8 
           4210      1.00312e+8 
           4230      9.88876e+7 
           4250      9.75899e+7 
           4270      9.60869e+7 
           4290      9.41982e+7 
           4310      8.98114e+7 
           4330      6.56552e+7 
           4350      5.52875e+7 
           4370      8.54545e+7 
           4390      8.80634e+7 
           4410      8.78282e+7 
           4430      8.70523e+7 
           4450      8.61536e+7 
           4470      8.50582e+7 
           4490      8.38013e+7 
           4510      8.30375e+7 
           4530      8.20067e+7 
           4550      8.08779e+7 
           4570      8.00416e+7 
           4590      7.90291e+7 
           4610      7.81605e+7 
           4630      7.71511e+7 
           4650      7.62815e+7 
           4670      7.53635e+7 
           4690      7.44275e+7 
           4710      7.33722e+7 
           4730      7.26722e+7 
           4750      7.16725e+7 
           4770      7.07201e+7 
           4790      6.96644e+7 
           4810       6.8251e+7 
           4830        6.515e+7 
           4850      5.02156e+7 
           4870      4.03242e+7 
           4890      6.14089e+7 
           4910      6.41194e+7 
           4930      6.40373e+7 
           4950      6.36316e+7 
           4970      6.30229e+7 
           4990      6.24279e+7 
           5010      6.16663e+7 
           5030      6.10399e+7 
           5050      6.03343e+7 
           5070      5.96834e+7 
           5090      5.90161e+7 
           5110      5.83588e+7 
           5130      5.77071e+7 
           5150       5.7068e+7 
           5170      5.62707e+7 
           5190      5.57386e+7 
           5210       5.5199e+7 
           5230      5.45642e+7 
           5250      5.40071e+7 
           5270      5.33836e+7 
           5290      5.28394e+7 
           5310       5.2247e+7 
           5330      5.16926e+7 
           5350      5.11541e+7 
           5370      5.05987e+7 
           5390      5.00631e+7 
           5410      4.95238e+7 
           5430      4.90037e+7 
           5450        4.849e+7 
           5470      4.79799e+7 
           5490      4.74797e+7 
           5510      4.69806e+7 
           5530      4.64849e+7 
           5550      4.60086e+7 
           5570      4.55282e+7 
           5590       4.5056e+7 
           5610      4.45928e+7 
           5630      4.41363e+7 
           5650      4.36828e+7 
           5670      4.32369e+7 
           5690      4.27962e+7 
           5710      4.23617e+7 
           5730      4.19323e+7 
           5750      4.15089e+7 
           5770      4.10904e+7 
           5790      4.06778e+7 
           5810      4.02698e+7 
           5830      3.98677e+7 
           5850      3.94711e+7 
           5870      3.90583e+7 
           5890      3.86686e+7 
           5910      3.83092e+7 
           5930      3.79323e+7 
           5950      3.75585e+7 
           5970       3.7191e+7 
           5990      3.68266e+7 
           6010      3.64692e+7 
           6030      3.61158e+7 
           6050      3.57663e+7 
           6070      3.54216e+7 
           6090      3.50806e+7 
           6110      3.47443e+7 
           6130      3.44107e+7 
           6150      3.40747e+7 
           6170      3.37572e+7 
           6190      3.34391e+7 
           6210      3.31225e+7 
           6230      3.28092e+7 
           6250      3.24954e+7 
           6270      3.21955e+7 
           6290       3.1893e+7 
           6310      3.15937e+7 
           6330      3.13003e+7 
           6350       3.0997e+7 
           6370      3.07154e+7 
           6390      3.04376e+7 
           6410      3.01535e+7 
           6430       2.9876e+7 
           6450      2.95452e+7 
           6470      2.92315e+7 
           6490       2.8887e+7 
           6510      2.84369e+7 
           6530      2.75376e+7 
           6550      2.38406e+7 
           6570      1.91302e+7 
           6590      2.59749e+7 
           6610      2.70087e+7 
           6630      2.70594e+7 
           6650       2.6919e+7 
           6670      2.67223e+7 
           6690      2.65468e+7 
           6710      2.63159e+7 
           6730      2.60816e+7 
           6750      2.58528e+7 
           6770      2.56247e+7 
           6790      2.53996e+7 
           6810      2.51767e+7 
           6830       2.4956e+7 
           6850      2.47382e+7 
           6870      2.45225e+7 
           6890      2.43098e+7 
           6910       2.4099e+7 
           6930      2.38903e+7 
           6950      2.36844e+7 
           6970      2.34804e+7 
           6990      2.32784e+7 
           7010       2.3079e+7 
           7030      2.28816e+7 
           7050      2.26868e+7 
           7070       2.2493e+7 
           7090      2.23026e+7 
           7110      2.21087e+7 
           7130      2.19263e+7 
           7150      2.17419e+7 
           7170      2.15593e+7 
           7190      2.13783e+7 
           7210       2.1199e+7 
           7230       2.1022e+7 
           7250      2.08467e+7 
           7270      2.06737e+7 
           7290      2.05016e+7 
           7310      2.03318e+7 
           7330      2.01635e+7 
           7350      1.99974e+7 
           7370      1.98328e+7 
           7390      1.96704e+7 
           7410      1.95088e+7 
           7430      1.93493e+7 
           7450      1.91913e+7 
           7470       1.9034e+7 
           7490      1.88794e+7 
           7510      1.87276e+7 
           7530      1.85764e+7 
           7550      1.84265e+7 
           7570      1.82787e+7 
           7590      1.81315e+7 
           7610      1.79862e+7 
           7630      1.78429e+7 
           7650      1.77001e+7 
           7670      1.75593e+7 
           7690      1.74196e+7 
           7710      1.72812e+7 
           7730      1.71452e+7 
           7750      1.70098e+7 
           7770       1.6825e+7 
           7790      1.67431e+7 
           7810      1.66117e+7 
           7830      1.64809e+7 
           7850      1.63524e+7 
           7870      1.62226e+7 
           7890       1.6095e+7 
           7910      1.59734e+7 
           7930      1.58498e+7 
           7950      1.57266e+7 
           7970      1.56063e+7 
           7990      1.54822e+7 
           8010      1.53668e+7 
           8030      1.52489e+7 
           8050       1.5132e+7 
           8070      1.50166e+7 
           8090      1.49021e+7 
           8110      1.47886e+7 
           8130       1.4676e+7 
           8150       1.4565e+7 
           8170      1.44548e+7 
           8190      1.43433e+7 
           8210      1.42768e+7 
           8230      1.41775e+7 
           8250      1.40795e+7 
           8270      1.39884e+7 
           8290       1.3893e+7 
           8310      1.37956e+7 
           8330      1.36888e+7 
           8350       1.3586e+7 
           8370      1.34598e+7 
           8390      1.33337e+7 
           8410      1.31909e+7 
           8430      1.31072e+7 
           8450       1.3021e+7 
           8470      1.25988e+7 
           8490      1.29885e+7 
           8510      1.21898e+7 
           8530       1.2999e+7 
           8550      1.15298e+7 
           8570      1.31375e+7 
           8590      1.20435e+7 
           8610      1.16827e+7 
           8630      1.33014e+7 
           8650      1.26786e+7 
           8670      1.03553e+7 
           8690      1.30435e+7 
           8710       1.3526e+7 
           8730      1.29099e+7 
           8750      9.94295e+6 
           8770      1.21959e+7 
           8790      1.34013e+7 
           8810      1.35279e+7 
           8830      1.31613e+7 
           8850      1.15565e+7 
           8870      9.62881e+6 
           8890      1.23941e+7 
           8910      1.30456e+7 
           8930      1.31238e+7 
           8950      1.30426e+7 
           8970       1.2801e+7 
           8990      1.21022e+7 
           9010      9.47438e+6 
           9030      1.04299e+7 
           9050      1.20982e+7 
           9070      1.24072e+7 
           9090      1.24119e+7 
           9110      1.23933e+7 
           9130      1.23169e+7 
           9150      1.22055e+7 
           9170      1.20435e+7 
           9190      1.17288e+7 
