# Kurucz ODFNEW /NOVER (2003)
# teff = 27000 K (value for the effective temperature for the model. Temperatures are given in K)
# logg = 4.5 log(cm/s2) (value for Log(G) for the model.)
# meta = 0.5  (value for the Metallicity for the model.)
# lh = 1.25  (l/Hp where l is the  mixing length of the convective element and Hp is the pressure scale height)
# vtur = 2 km/s (Microturbulence velocity)
# alpha = 0  (Alpha)
#
# column 1: WAVELENGTH (ANGSTROM), Wavelength in Angstrom
# column 2: FLUX (ERG/CM2/S/A), Flux in erg/cm2/s/A
          147.2      7.8942e-12 
            151     2.84187e-11 
          155.2     1.09274e-10 
          158.8     3.28783e-10 
            162      8.4299e-10 
            166      2.60755e-9 
          170.3      8.27056e-9 
          173.4       1.8516e-8 
          176.8      4.32841e-8 
          180.2       9.8208e-8 
          181.7      1.39589e-7 
          186.1      3.81209e-7 
            191      1.11095e-6 
          193.9       2.0406e-6 
          198.4       5.0725e-6 
          201.8      9.84118e-6 
            205      1.80185e-5 
          210.5      4.90196e-5 
          216.2     0.000131405 
          219.8      0.00023898 
            223     0.000400532 
          226.8     0.000732538 
            230       0.0314366 
            234       0.0680832 
            240        0.145956 
          246.5        0.324833 
          252.4        0.652919 
          256.8         1.03439 
            260         1.65226 
            264         2.51785 
          268.5         4.05046 
          273.5         6.64897 
          278.5         10.6492 
            284         19.6319 
            290         32.9829 
            296         54.5212 
            301         80.8837 
            308         148.847 
            318         330.728 
            328         637.559 
            338         1272.04 
            348         2352.26 
            357         12193.2 
            366         26279.6 
            375         37186.7 
            385         60014.9 
            395          125800 
            405          178993 
            414          262903 
            422          365107 
            430          514116 
            441          735188 
            451          936614 
            460      1.17934e+6 
            470      1.62545e+6 
            480      2.14952e+6 
            490      2.81017e+6 
            500      3.50916e+6 
            506      1.16428e+7 
            512      1.08068e+8 
            520      1.13339e+8 
            530      1.19623e+8 
            540      1.21724e+8 
            550      1.80905e+8 
            560      2.14061e+8 
            570      2.40961e+8 
            580      2.26418e+8 
            590      2.83018e+8 
            600      2.89475e+8 
            610      3.36515e+8 
            620      3.64508e+8 
            630      3.59872e+8 
            640      3.03094e+8 
            650      2.20937e+8 
            658      3.20673e+8 
            665      4.15052e+8 
            675      4.59996e+8 
            685      4.44167e+8 
            695      6.32483e+8 
            705       6.0827e+8 
            716      7.11725e+8 
            726      7.13403e+8 
            735      7.32224e+8 
            745      8.28632e+8 
            755       8.6373e+8 
            765      9.13137e+8 
            775      9.63047e+8 
            785      1.02108e+9 
            795      1.03465e+9 
            805      1.04678e+9 
            815      1.05619e+9 
            825      1.15195e+9 
            835       9.2839e+8 
            845      1.13131e+9 
            855      1.12273e+9 
            865      1.19143e+9 
            875      1.25262e+9 
            885       1.3442e+9 
            895       1.3892e+9 
            905      1.33981e+9 
            915      1.63129e+9 
            925      7.86107e+9 
            935     1.67851e+10 
            945     3.05872e+10 
            955     3.82225e+10 
            965     4.40234e+10 
            975      7.21022e+9 
            985     3.26083e+10 
            995     3.30231e+10 
           1005     3.98428e+10 
           1015     4.19139e+10 
           1025     2.32594e+10 
           1035     3.37385e+10 
           1045      5.1116e+10 
           1055     4.63675e+10 
           1065     3.51079e+10 
           1075     4.10397e+10 
           1085     3.67889e+10 
           1095     4.12854e+10 
           1105     3.72526e+10 
           1115     3.56571e+10 
           1125     2.58478e+10 
           1135     3.64937e+10 
           1145     3.31895e+10 
           1155     3.33769e+10 
           1165     3.23539e+10 
           1175     1.63991e+10 
           1185     2.97794e+10 
           1195     2.81962e+10 
           1205     2.00135e+10 
           1215     1.61767e+10 
           1225     2.58304e+10 
           1235     3.00722e+10 
           1245     2.85289e+10 
           1255     2.80928e+10 
           1265     2.93101e+10 
           1275     3.04512e+10 
           1285     3.05905e+10 
           1295     2.13263e+10 
           1305     2.32073e+10 
           1315     2.98469e+10 
           1325     2.74582e+10 
           1335     2.65897e+10 
           1345     2.67955e+10 
           1355     2.63584e+10 
           1365      2.3701e+10 
           1375     2.26282e+10 
           1385     2.14699e+10 
           1395     1.38666e+10 
           1405     1.55341e+10 
           1415     1.86394e+10 
           1425     1.81166e+10 
           1435     1.92021e+10 
           1442     1.96503e+10 
           1447     1.93636e+10 
           1455     1.84661e+10 
           1465     1.65977e+10 
           1475     1.73748e+10 
           1485     1.71587e+10 
           1495      1.6688e+10 
           1505     1.46638e+10 
           1512     1.30946e+10 
           1517     1.35414e+10 
           1525     1.40235e+10 
           1535     1.13553e+10 
           1545     1.05191e+10 
           1555     1.04377e+10 
           1565     1.16695e+10 
           1575     1.25843e+10 
           1585     1.28294e+10 
           1595     1.25436e+10 
           1605     1.29793e+10 
           1615     1.25109e+10 
           1625     1.23509e+10 
           1635     1.32807e+10 
           1645     1.33902e+10 
           1655     1.31988e+10 
           1665     1.34537e+10 
           1672     1.25208e+10 
           1677     1.44164e+10 
           1685     1.37172e+10 
           1695     1.28172e+10 
           1705     1.25608e+10 
           1715     1.17319e+10 
           1725     1.13924e+10 
           1735      1.2024e+10 
           1745     1.17922e+10 
           1755     1.18147e+10 
           1765     1.17388e+10 
           1775     1.07679e+10 
           1785     1.11168e+10 
           1795     1.14644e+10 
           1805     1.15828e+10 
           1815     1.01576e+10 
           1825     1.05936e+10 
           1835     1.02609e+10 
           1845      9.23722e+9 
           1855       9.5294e+9 
           1865      9.62894e+9 
           1875     1.00445e+10 
           1885      8.83122e+9 
           1895      8.22158e+9 
           1905      9.02214e+9 
           1915      8.35154e+9 
           1925      7.79754e+9 
           1935      8.49271e+9 
           1945      8.71053e+9 
           1955      7.65184e+9 
           1967      8.49165e+9 
           1976      8.88763e+9 
           1984       8.1761e+9 
           1995      8.05808e+9 
           2005      8.46914e+9 
           2015      8.33018e+9 
           2025      8.55872e+9 
           2035      7.70902e+9 
           2045      7.91496e+9 
           2055      7.39868e+9 
           2065       7.3393e+9 
           2074      7.74018e+9 
           2078      6.91056e+9 
           2085       7.4101e+9 
           2095      7.03422e+9 
           2105      7.42308e+9 
           2115      7.48241e+9 
           2125      7.50301e+9 
           2135      7.35768e+9 
           2145      6.94223e+9 
           2155      7.28469e+9 
           2165      7.22969e+9 
           2175       7.1632e+9 
           2185      6.85996e+9 
           2195      7.00832e+9 
           2205      7.00572e+9 
           2215      6.85446e+9 
           2225      6.66156e+9 
           2235      6.53986e+9 
           2245      6.60394e+9 
           2255      6.34836e+9 
           2265      6.45699e+9 
           2275      6.34037e+9 
           2285       6.3166e+9 
           2295      5.51308e+9 
           2305      6.05856e+9 
           2315      5.87221e+9 
           2325      5.82647e+9 
           2335      5.64974e+9 
           2345       5.7134e+9 
           2355      5.66015e+9 
           2365      5.60842e+9 
           2375      5.45042e+9 
           2385      5.41189e+9 
           2395      5.34348e+9 
           2405      5.24735e+9 
           2415      5.20961e+9 
           2425      5.19204e+9 
           2435      5.01662e+9 
           2445      5.04133e+9 
           2455      5.04517e+9 
           2465      4.94926e+9 
           2475      4.86174e+9 
           2485      4.72423e+9 
           2495      3.78011e+9 
           2505        4.534e+9 
           2513      4.35342e+9 
           2518      4.53603e+9 
           2525      4.51623e+9 
           2535      4.47669e+9 
           2545        4.285e+9 
           2555      4.34807e+9 
           2565      4.27736e+9 
           2575      4.29494e+9 
           2585      4.23336e+9 
           2595      4.19346e+9 
           2605      4.14701e+9 
           2615      4.07679e+9 
           2625      4.05612e+9 
           2635      4.02132e+9 
           2645      3.95193e+9 
           2655      3.94354e+9 
           2665      3.72691e+9 
           2675      3.76133e+9 
           2685       3.7619e+9 
           2695      3.59518e+9 
           2705      3.47566e+9 
           2715      3.50591e+9 
           2725      3.53893e+9 
           2735      3.50177e+9 
           2745      3.41795e+9 
           2755      3.40415e+9 
           2765      3.36223e+9 
           2775      3.40849e+9 
           2785      3.34214e+9 
           2795      3.19939e+9 
           2805      3.23235e+9 
           2815      3.25583e+9 
           2825      3.20785e+9 
           2835      3.06306e+9 
           2845      3.11534e+9 
           2855      3.04923e+9 
           2865      3.05566e+9 
           2875      3.02031e+9 
           2885      2.97736e+9 
           2895      2.92667e+9 
           2910      2.85929e+9 
           2930      2.84418e+9 
           2950      2.74869e+9 
           2970      2.70756e+9 
           2990      2.63864e+9 
           3010      2.52348e+9 
           3030      2.52384e+9 
           3050      2.48866e+9 
           3070      2.45814e+9 
           3090      2.33891e+9 
           3110      2.34558e+9 
           3130      2.27651e+9 
           3150      2.24546e+9 
           3170      2.17646e+9 
           3190      2.14041e+9 
           3210      2.11086e+9 
           3230      2.05237e+9 
           3250      2.02726e+9 
           3270      1.97439e+9 
           3290      1.93625e+9 
           3310       1.8989e+9 
           3330      1.85268e+9 
           3350      1.82277e+9 
           3370      1.78159e+9 
           3390        1.759e+9 
           3410      1.72417e+9 
           3430      1.68865e+9 
           3450      1.64954e+9 
           3470      1.61856e+9 
           3490      1.58432e+9 
           3510      1.55543e+9 
           3530      1.53677e+9 
           3550      1.50587e+9 
           3570      1.48343e+9 
           3590      1.43351e+9 
           3610      1.41177e+9 
           3630       1.3914e+9 
           3640       1.3905e+9 
           3650       1.3672e+9 
           3670      1.35234e+9 
           3690       1.3277e+9 
           3710      1.27256e+9 
           3730      1.22651e+9 
           3750      1.23535e+9 
           3770      1.20733e+9 
           3790       1.2583e+9 
           3810      1.30154e+9 
           3830      1.14345e+9 
           3850      1.31055e+9 
           3870      1.29357e+9 
           3890      1.07526e+9 
           3910      1.30425e+9 
           3930      1.26247e+9 
           3950      1.23772e+9 
           3970      9.97487e+8 
           3990      1.19978e+9 
           4010      1.19829e+9 
           4030      1.12804e+9 
           4050      1.15269e+9 
           4070      1.08521e+9 
           4090      1.01215e+9 
           4110      9.11844e+8 
           4130       1.0451e+9 
           4150      1.03966e+9 
           4170      1.03959e+9 
           4190       1.0289e+9 
           4210      1.02123e+9 
           4230      9.95781e+8 
           4250      9.60756e+8 
           4270      9.33657e+8 
           4290      9.19547e+8 
           4310      8.82417e+8 
           4330      8.12116e+8 
           4350        7.533e+8 
           4370      8.39434e+8 
           4390       8.4492e+8 
           4410      8.39017e+8 
           4430      8.35182e+8 
           4450      8.19778e+8 
           4470      7.82197e+8 
           4490      7.96323e+8 
           4510      7.91109e+8 
           4530      7.79274e+8 
           4550        7.698e+8 
           4570      7.56042e+8 
           4590      7.42315e+8 
           4610      7.20058e+8 
           4630      7.08403e+8 
           4650      6.82634e+8 
           4670      6.90204e+8 
           4690       6.8582e+8 
           4710      6.55724e+8 
           4730      6.61759e+8 
           4750      6.51105e+8 
           4770      6.53555e+8 
           4790      6.40441e+8 
           4810      6.24346e+8 
           4830      6.11823e+8 
           4850      5.69791e+8 
           4870       5.1016e+8 
           4890      5.86282e+8 
           4910        5.815e+8 
           4930      5.60687e+8 
           4950      5.62392e+8 
           4970      5.61215e+8 
           4990      5.50931e+8 
           5010      5.23187e+8 
           5030       5.3251e+8 
           5050      5.20234e+8 
           5070      5.20271e+8 
           5090      5.10403e+8 
           5110      5.01006e+8 
           5130      4.87344e+8 
           5150      4.83481e+8 
           5170      4.81382e+8 
           5190      4.75861e+8 
           5210       4.6751e+8 
           5230      4.61779e+8 
           5250       4.5567e+8 
           5270      4.47226e+8 
           5290      4.43353e+8 
           5310      4.36479e+8 
           5330      4.30875e+8 
           5350      4.23948e+8 
           5370       4.1962e+8 
           5390      4.13335e+8 
           5410      4.08444e+8 
           5430      4.02234e+8 
           5450       3.9642e+8 
           5470      3.91009e+8 
           5490      3.85853e+8 
           5510      3.82126e+8 
           5530       3.7524e+8 
           5550      3.72247e+8 
           5570      3.66798e+8 
           5590       3.6249e+8 
           5610      3.57277e+8 
           5630      3.53209e+8 
           5650      3.45957e+8 
           5670      3.39384e+8 
           5690      3.33559e+8 
           5710      3.32509e+8 
           5730      3.29228e+8 
           5750      3.23489e+8 
           5770      3.21952e+8 
           5790       3.1718e+8 
           5810      3.13293e+8 
           5830      3.08088e+8 
           5850      3.04994e+8 
           5870      2.92467e+8 
           5890      2.93612e+8 
           5910      2.91973e+8 
           5930        2.878e+8 
           5950      2.83932e+8 
           5970      2.83586e+8 
           5990      2.77506e+8 
           6010      2.75902e+8 
           6030      2.71381e+8 
           6050      2.68489e+8 
           6070      2.66109e+8 
           6090      2.62972e+8 
           6110       2.5969e+8 
           6130      2.56955e+8 
           6150      2.51591e+8 
           6170       2.4932e+8 
           6190      2.47298e+8 
           6210      2.44819e+8 
           6230      2.42153e+8 
           6250      2.38098e+8 
           6270      2.35719e+8 
           6290      2.33394e+8 
           6310      2.30261e+8 
           6330      2.28112e+8 
           6350      2.24351e+8 
           6370      2.22703e+8 
           6390      2.19955e+8 
           6410      2.17475e+8 
           6430      2.15277e+8 
           6450      2.12613e+8 
           6470      2.08871e+8 
           6490      2.06843e+8 
           6510      2.04729e+8 
           6530      2.01322e+8 
           6550      1.92902e+8 
           6570      1.69954e+8 
           6590       1.9232e+8 
           6610      1.92934e+8 
           6630       1.9154e+8 
           6650        1.893e+8 
           6670      1.85465e+8 
           6690      1.83533e+8 
           6710      1.83377e+8 
           6730      1.80601e+8 
           6750      1.79466e+8 
           6770      1.77519e+8 
           6790       1.7328e+8 
           6810      1.73101e+8 
           6830      1.71192e+8 
           6850      1.69744e+8 
           6870      1.67863e+8 
           6890      1.65708e+8 
           6910      1.63543e+8 
           6930       1.6249e+8 
           6950      1.60823e+8 
           6970      1.59118e+8 
           6990       1.5733e+8 
           7010      1.55606e+8 
           7030      1.53868e+8 
           7050      1.52261e+8 
           7070      1.47949e+8 
           7090      1.48659e+8 
           7110      1.45774e+8 
           7130      1.44409e+8 
           7150      1.43964e+8 
           7170      1.42876e+8 
           7190      1.41565e+8 
           7210      1.40085e+8 
           7230      1.36003e+8 
           7250      1.36773e+8 
           7270      1.35736e+8 
           7290      1.33206e+8 
           7310      1.32915e+8 
           7330      1.31455e+8 
           7350      1.30238e+8 
           7370      1.28957e+8 
           7390      1.27639e+8 
           7410      1.26347e+8 
           7430      1.24978e+8 
           7450      1.23752e+8 
           7470      1.21564e+8 
           7490      1.21117e+8 
           7510      1.19965e+8 
           7530      1.18611e+8 
           7550        1.177e+8 
           7570      1.16539e+8 
           7590      1.15338e+8 
           7610      1.13932e+8 
           7630      1.13018e+8 
           7650      1.11939e+8 
           7670      1.10876e+8 
           7690      1.09771e+8 
           7710      1.08638e+8 
           7730      1.07516e+8 
           7750      1.06623e+8 
           7770      1.04958e+8 
           7790      1.04574e+8 
           7810      1.03502e+8 
           7830      1.02562e+8 
           7850      1.01515e+8 
           7870      1.00312e+8 
           7890      9.90417e+7 
           7910      9.84391e+7 
           7930      9.74699e+7 
           7950       9.6551e+7 
           7970      9.57052e+7 
           7990      9.46838e+7 
           8010      9.38416e+7 
           8030        9.296e+7 
           8050      9.21498e+7 
           8070      9.13408e+7 
           8090      9.04004e+7 
           8110      8.88897e+7 
           8130      8.88462e+7 
           8150      8.79853e+7 
           8170      8.72898e+7 
           8190      8.58081e+7 
           8210      8.51223e+7 
           8230      8.39915e+7 
           8250      8.39778e+7 
           8270      8.21455e+7 
           8290      8.23252e+7 
           8310      8.17111e+7 
           8330      8.10152e+7 
           8350      7.98819e+7 
           8370       7.9307e+7 
           8390      7.88438e+7 
           8410      7.80218e+7 
           8430      7.73923e+7 
           8450      7.59236e+7 
           8470      7.59856e+7 
           8490       7.5074e+7 
           8510      7.43522e+7 
           8530      7.37917e+7 
           8550      7.26944e+7 
           8570      7.29659e+7 
