# Kurucz ODFNEW /NOVER (2003)
# teff = 9500 K (value for the effective temperature for the model. Temperatures are given in K)
# logg = 2 log(cm/s2) (value for Log(G) for the model.)
# meta = -1.5  (value for the Metallicity for the model.)
# lh = 1.25  (l/Hp where l is the  mixing length of the convective element and Hp is the pressure scale height)
# vtur = 2 km/s (Microturbulence velocity)
# alpha = 0.4  (Alpha)
#
# column 1: WAVELENGTH (ANGSTROM), Wavelength in Angstrom
# column 2: FLUX (ERG/CM2/S/A), Flux in erg/cm2/s/A
          268.5     1.29231e-23 
          273.5     1.13041e-22 
          278.5     4.95427e-22 
            284     2.29281e-21 
            290     1.13099e-20 
            296     5.21391e-20 
            301     1.77809e-19 
            308     9.24707e-19 
            318     8.56735e-18 
            328     6.90925e-17 
            338     4.90681e-16 
            348     3.10236e-15 
            357     1.48996e-14 
            366     6.61096e-14 
            375      2.7229e-13 
            385       1.211e-12 
            395     4.97976e-12 
            405      1.9055e-11 
            414      6.0188e-11 
            422     1.60244e-10 
            430     4.10674e-10 
            441       1.4136e-9 
            451       4.1177e-9 
            460      1.03396e-8 
            470      2.75376e-8 
            480      7.02509e-8 
            490      1.72188e-7 
            500      4.06416e-7 
            506      8.58307e-7 
            512      1.52362e-6 
            520      2.82394e-6 
            530      5.97778e-6 
            540      1.21471e-5 
            550      2.43187e-5 
            560      4.71464e-5 
            570      8.91976e-5 
            580     0.000163727 
            590     0.000298018 
            600     0.000527725 
            610     0.000916077 
            620      0.00156023 
            630      0.00261024 
            640       0.0042922 
            650      0.00694653 
            658       0.0100942 
            665       0.0138876 
            675       0.0216359 
            685       0.0332447 
            695       0.0504113 
            705       0.0754709 
            716        0.116012 
            726        0.169418 
            735        0.235958 
            745        0.337521 
            755        0.477824 
            765        0.669741 
            775        0.930055 
            785         1.27962 
            795         1.74505 
            805         2.36046 
            815         3.16686 
            825         4.21572 
            835         5.56591 
            845         7.30587 
            855         9.51583 
            865         12.3125 
            875          15.825 
            885         20.2159 
            895         25.6667 
            905         32.3789 
            915         354.192 
            925         2107.18 
            935         3521.08 
            945         7555.05 
            955          270672 
            965          394030 
            975         17622.5 
            985      4.17801e+6 
            995      7.66378e+6 
           1005      6.06967e+6 
           1015          776734 
           1025         15639.3 
           1035          709868 
           1045      8.86984e+6 
           1055      1.69298e+7 
           1065      1.77602e+7 
           1075      2.15353e+7 
           1085      2.25934e+7 
           1095      2.24116e+7 
           1105      3.00075e+7 
           1115      4.21358e+7 
           1125      4.54561e+7 
           1135      4.65419e+7 
           1145      4.22038e+7 
           1155      3.77626e+7 
           1165      3.43497e+7 
           1175      2.42717e+7 
           1185      2.46718e+7 
           1195          113352 
           1205         79827.9 
           1215         24546.2 
           1225         86430.9 
           1235          178062 
           1245      9.20444e+6 
           1255      2.35384e+7 
           1265      2.42438e+7 
           1275      4.56421e+7 
           1285      5.99308e+7 
           1295      5.89527e+7 
           1305      4.22869e+7 
           1315      6.99288e+7 
           1325      7.68855e+7 
           1335      7.52687e+7 
           1345      8.71859e+7 
           1355      8.42069e+7 
           1365      7.74881e+7 
           1375      8.37816e+7 
           1385      8.78631e+7 
           1395      8.97654e+7 
           1405      9.15513e+7 
           1415      8.70407e+7 
           1425      8.87639e+7 
           1435      8.46058e+7 
           1442      9.12852e+7 
           1447      9.53101e+7 
           1455      9.61156e+7 
           1465      9.26103e+7 
           1475      8.99077e+7 
           1485      9.18784e+7 
           1495      9.44847e+7 
           1505      9.55552e+7 
           1512       9.4244e+7 
           1517      9.67849e+7 
           1525      9.15409e+7 
           1535       8.8515e+7 
           1545      9.59537e+7 
           1555       9.0101e+7 
           1565       8.4714e+7 
           1575      8.74202e+7 
           1585      9.24929e+7 
           1595      9.59732e+7 
           1605      9.14862e+7 
           1615      9.16032e+7 
           1625      8.60109e+7 
           1635      8.80075e+7 
           1645      8.91613e+7 
           1655      8.13076e+7 
           1665       8.9292e+7 
           1672      7.77908e+7 
           1677       8.5065e+7 
           1685      8.97139e+7 
           1695      8.56701e+7 
           1705      8.37195e+7 
           1715      8.42331e+7 
           1725      8.33201e+7 
           1735      8.60819e+7 
           1745      8.46007e+7 
           1755      8.80365e+7 
           1765      8.17764e+7 
           1775      8.70084e+7 
           1785      8.55858e+7 
           1795      8.90429e+7 
           1805      8.60585e+7 
           1815      8.54925e+7 
           1825       8.3323e+7 
           1835      8.25874e+7 
           1845      7.99017e+7 
           1855      8.06026e+7 
           1865      8.03634e+7 
           1875      8.29847e+7 
           1885       8.3012e+7 
           1895      8.10776e+7 
           1905       7.9532e+7 
           1915      7.99219e+7 
           1925      8.06126e+7 
           1935      8.00613e+7 
           1945       8.2141e+7 
           1955      8.11451e+7 
           1967      8.18406e+7 
           1976      8.07427e+7 
           1984      8.00096e+7 
           1995      7.84785e+7 
           2005      7.80725e+7 
           2015      7.49344e+7 
           2025      7.60767e+7 
           2035      7.65653e+7 
           2045      7.69624e+7 
           2055      7.39172e+7 
           2065      7.41245e+7 
           2074      7.53078e+7 
           2078      7.62971e+7 
           2085      7.66644e+7 
           2095      7.47815e+7 
           2105      7.47274e+7 
           2115      7.40754e+7 
           2125      7.39948e+7 
           2135      6.88617e+7 
           2145      7.28162e+7 
           2155      7.24616e+7 
           2165      7.03004e+7 
           2175      6.97056e+7 
           2185      6.93003e+7 
           2195      7.21725e+7 
           2205      6.99053e+7 
           2215      6.65643e+7 
           2225      6.55099e+7 
           2235      6.97729e+7 
           2245      6.59677e+7 
           2255      6.48357e+7 
           2265      6.46081e+7 
           2275      6.75993e+7 
           2285      6.81482e+7 
           2295      6.55786e+7 
           2305      6.51066e+7 
           2315      6.42107e+7 
           2325      6.46687e+7 
           2335      6.28971e+7 
           2345      5.91741e+7 
           2355      6.28883e+7 
           2365      5.95664e+7 
           2375      6.15884e+7 
           2385      5.66602e+7 
           2395      6.01891e+7 
           2405      5.84886e+7 
           2415      5.91879e+7 
           2425      6.06893e+7 
           2435      5.86764e+7 
           2445      6.08323e+7 
           2455      5.95351e+7 
           2465      5.89991e+7 
           2475      5.74458e+7 
           2485      6.00372e+7 
           2495      5.85668e+7 
           2505      6.08888e+7 
           2513      5.86131e+7 
           2518      5.89955e+7 
           2525      5.61233e+7 
           2535      5.56504e+7 
           2545      5.58054e+7 
           2555       5.7773e+7 
           2565      5.72776e+7 
           2575      5.92426e+7 
           2585      5.92813e+7 
           2595      5.89987e+7 
           2605      5.73752e+7 
           2615      5.70475e+7 
           2625       5.7636e+7 
           2635      5.80241e+7 
           2645      6.10056e+7 
           2655      6.03919e+7 
           2665      5.82899e+7 
           2675      5.92764e+7 
           2685      5.95255e+7 
           2695      5.80627e+7 
           2705      5.82675e+7 
           2715      5.69447e+7 
           2725      5.69841e+7 
           2735      5.87187e+7 
           2745      5.44218e+7 
           2755      5.44494e+7 
           2765      5.57464e+7 
           2775      5.74588e+7 
           2785      5.71198e+7 
           2795      4.94974e+7 
           2805      5.27985e+7 
           2815      5.76013e+7 
           2825      5.71564e+7 
           2835      5.59993e+7 
           2845      5.49919e+7 
           2855      5.42607e+7 
           2865      5.51401e+7 
           2875      5.45658e+7 
           2885      5.54012e+7 
           2895      5.50956e+7 
           2910      5.65532e+7 
           2930      5.50905e+7 
           2950      5.48958e+7 
           2970      5.49063e+7 
           2990      5.47094e+7 
           3010       5.5016e+7 
           3030      5.48133e+7 
           3050      5.42183e+7 
           3070      5.34702e+7 
           3090       5.3664e+7 
           3110      5.30656e+7 
           3130      5.26242e+7 
           3150      5.25276e+7 
           3170      5.21855e+7 
           3190      5.12371e+7 
           3210      5.14634e+7 
           3230      5.07703e+7 
           3250      5.08001e+7 
           3270      5.08183e+7 
           3290      5.07209e+7 
           3310      5.05602e+7 
           3330      4.98868e+7 
           3350      4.92795e+7 
           3370       4.9237e+7 
           3390      4.88577e+7 
           3410      4.90379e+7 
           3430      4.87335e+7 
           3450      4.85246e+7 
           3470      4.81327e+7 
           3490      4.78981e+7 
           3510      4.77452e+7 
           3530      4.75715e+7 
           3550       4.7315e+7 
           3570      4.69903e+7 
           3590      4.67108e+7 
           3610      4.64606e+7 
           3630      4.61645e+7 
           3640      4.60136e+7 
           3650      4.68646e+7 
           3670      4.59888e+7 
           3690      4.71821e+7 
           3710      6.01903e+7 
           3730        8.002e+7 
           3750      1.10384e+8 
           3770      1.10377e+8 
           3790      1.20278e+8 
           3810      1.30541e+8 
           3830       1.1031e+8 
           3850      1.33638e+8 
           3870      1.35973e+8 
           3890      1.03881e+8 
           3910      1.32729e+8 
           3930      1.30435e+8 
           3950      1.30144e+8 
           3970      9.79943e+7 
           3990      1.26473e+8 
           4010      1.25948e+8 
           4030      1.23922e+8 
           4050      1.22999e+8 
           4070       1.2113e+8 
           4090       1.1409e+8 
           4110      9.41506e+7 
           4130      1.15818e+8 
           4150      1.15433e+8 
           4170      1.13832e+8 
           4190      1.12634e+8 
           4210      1.11326e+8 
           4230      1.09836e+8 
           4250      1.08479e+8 
           4270      1.07168e+8 
           4290      1.05762e+8 
           4310       1.0388e+8 
           4330      9.53091e+7 
           4350      8.32856e+7 
           4370      1.00502e+8 
           4390      9.90962e+7 
           4410      9.82885e+7 
           4430      9.72034e+7 
           4450      9.60253e+7 
           4470      9.45684e+7 
           4490      9.28663e+7 
           4510      9.24057e+7 
           4530      9.13033e+7 
           4550      8.98455e+7 
           4570       8.9252e+7 
           4590      8.80646e+7 
           4610      8.73961e+7 
           4630      8.60839e+7 
           4650      8.53484e+7 
           4670      8.43236e+7 
           4690      8.33627e+7 
           4710      8.22046e+7 
           4730      8.14351e+7 
           4750      8.04903e+7 
           4770      7.95833e+7 
           4790      7.86639e+7 
           4810       7.7731e+7 
           4830      7.65622e+7 
           4850      7.09864e+7 
           4870      5.98112e+7 
           4890      7.38378e+7 
           4910      7.33844e+7 
           4930      7.23748e+7 
           4950      7.17773e+7 
           4970      7.09842e+7 
           4990      7.01682e+7 
           5010      6.91078e+7 
           5030      6.85787e+7 
           5050      6.75343e+7 
           5070      6.70905e+7 
           5090       6.6352e+7 
           5110      6.56042e+7 
           5130      6.48918e+7 
           5150       6.4163e+7 
           5170      6.32137e+7 
           5190      6.26407e+7 
           5210      6.20732e+7 
           5230      6.13047e+7 
           5250      6.07496e+7 
           5270      5.99733e+7 
           5290       5.9448e+7 
           5310      5.87084e+7 
           5330       5.8148e+7 
           5350      5.75667e+7 
           5370       5.6944e+7 
           5390      5.63393e+7 
           5410      5.57279e+7 
           5430      5.51303e+7 
           5450      5.45704e+7 
           5470      5.39845e+7 
           5490      5.34257e+7 
           5510      5.28586e+7 
           5530      5.23045e+7 
           5550      5.17729e+7 
           5570      5.12329e+7 
           5590      5.07018e+7 
           5610       5.0177e+7 
           5630      4.96595e+7 
           5650       4.9135e+7 
           5670      4.86355e+7 
           5690      4.81441e+7 
           5710      4.76526e+7 
           5730      4.71668e+7 
           5750      4.66865e+7 
           5770      4.62129e+7 
           5790      4.57414e+7 
           5810      4.52797e+7 
           5830      4.48233e+7 
           5850      4.43753e+7 
           5870      4.38143e+7 
           5890      4.34782e+7 
           5910       4.3055e+7 
           5930       4.2629e+7 
           5950      4.21854e+7 
           5970      4.17838e+7 
           5990      4.13488e+7 
           6010      4.09666e+7 
           6030      4.05648e+7 
           6050      4.01653e+7 
           6070      3.97742e+7 
           6090      3.93854e+7 
           6110      3.90019e+7 
           6130      3.86255e+7 
           6150      3.82023e+7 
           6170      3.78799e+7 
           6190      3.75175e+7 
           6210       3.7157e+7 
           6230      3.67985e+7 
           6250      3.64187e+7 
           6270      3.61005e+7 
           6290       3.5757e+7 
           6310      3.54115e+7 
           6330      3.50809e+7 
           6350      3.46192e+7 
           6370      3.43418e+7 
           6390      3.40967e+7 
           6410      3.37743e+7 
           6430      3.34606e+7 
           6450      3.31267e+7 
           6470      3.28421e+7 
           6490      3.25282e+7 
           6510      3.21846e+7 
           6530       3.1751e+7 
           6550      2.99935e+7 
           6570      2.47945e+7 
           6590      3.06888e+7 
           6610      3.06844e+7 
           6630       3.0491e+7 
           6650      3.02193e+7 
           6670      2.99325e+7 
           6690       2.9662e+7 
           6710      2.94035e+7 
           6730      2.91341e+7 
           6750      2.88749e+7 
           6770      2.86158e+7 
           6790      2.83584e+7 
           6810      2.81052e+7 
           6830      2.78528e+7 
           6850      2.76045e+7 
           6870      2.73602e+7 
           6890      2.71174e+7 
           6910      2.68771e+7 
           6930       2.6639e+7 
           6950      2.64056e+7 
           6970      2.61736e+7 
           6990      2.59446e+7 
           7010      2.57117e+7 
           7030      2.54932e+7 
           7050      2.52676e+7 
           7070      2.50405e+7 
           7090      2.48342e+7 
           7110      2.46172e+7 
           7130      2.44066e+7 
           7150      2.41944e+7 
           7170      2.39885e+7 
           7190      2.37824e+7 
           7210      2.35789e+7 
           7230      2.33758e+7 
           7250      2.31768e+7 
           7270       2.2981e+7 
           7290      2.27835e+7 
           7310      2.25913e+7 
           7330      2.24023e+7 
           7350      2.22136e+7 
           7370      2.20273e+7 
           7390      2.18427e+7 
           7410      2.16591e+7 
           7430      2.14744e+7 
           7450      2.12975e+7 
           7470      2.11181e+7 
           7490      2.09457e+7 
           7510      2.07715e+7 
           7530      2.06015e+7 
           7550      2.04324e+7 
           7570      2.02641e+7 
           7590      2.00973e+7 
           7610      1.99332e+7 
           7630        1.977e+7 
           7650      1.96075e+7 
           7670       1.9449e+7 
           7690      1.92913e+7 
           7710       1.9133e+7 
           7730      1.89799e+7 
           7750      1.88269e+7 
           7770      1.85017e+7 
           7790      1.85248e+7 
           7810      1.83763e+7 
           7830      1.82291e+7 
           7850      1.80807e+7 
           7870      1.79202e+7 
           7890      1.77586e+7 
           7910      1.76551e+7 
           7930      1.75152e+7 
           7950        1.737e+7 
           7970      1.72402e+7 
           7990      1.70755e+7 
           8010      1.69698e+7 
           8030      1.68369e+7 
           8050      1.67051e+7 
           8070      1.65744e+7 
           8090      1.64453e+7 
           8110      1.63168e+7 
           8130      1.61904e+7 
           8150      1.60651e+7 
           8170      1.59409e+7 
           8190      1.58148e+7 
           8210      1.57842e+7 
           8230      1.56659e+7 
           8250      1.55673e+7 
           8270      1.54635e+7 
           8290      1.53391e+7 
           8310      1.51971e+7 
           8330      1.50238e+7 
           8350      1.49028e+7 
           8370      1.46042e+7 
           8390      1.45496e+7 
           8410      1.44016e+7 
           8430      1.46557e+7 
           8450      1.45352e+7 
           8470      1.38932e+7 
           8490      1.51423e+7 
           8510      1.37151e+7 
           8530      1.53154e+7 
           8550      1.33541e+7 
           8570      1.55016e+7 
           8590      1.45141e+7 
           8610      1.40849e+7 
           8630      1.57613e+7 
           8650      1.54961e+7 
           8670      1.28442e+7 
           8690      1.55703e+7 
           8710      1.56047e+7 
           8730      1.53479e+7 
           8750      1.25267e+7 
           8770      1.48746e+7 
           8790      1.51449e+7 
           8810        1.505e+7 
           8830      1.49017e+7 
           8850      1.42534e+7 
           8870       1.2125e+7 
           8890      1.44877e+7 
           8910      1.44901e+7 
           8930      1.43941e+7 
           8950      1.43049e+7 
           8970      1.41813e+7 
           8990      1.39807e+7 
           9010      1.18541e+7 
           9030       1.2971e+7 
           9050      1.37136e+7 
           9070      1.36546e+7 
           9090       1.3549e+7 
           9110      1.34682e+7 
           9130      1.33704e+7 
           9150       1.3276e+7 
           9170      1.31747e+7 
