# Kurucz ODFNEW /NOVER (2003)
# teff = 7250 K (value for the effective temperature for the model. Temperatures are given in K)
# logg = 0.5 log(cm/s2) (value for Log(G) for the model.)
# meta = 0.2  (value for the Metallicity for the model.)
# lh = 1.25  (l/Hp where l is the  mixing length of the convective element and Hp is the pressure scale height)
# vtur = 2 km/s (Microturbulence velocity)
# alpha = 0  (Alpha)
#
# column 1: WAVELENGTH (ANGSTROM), Wavelength in Angstrom
# column 2: FLUX (ERG/CM2/S/A), Flux in erg/cm2/s/A
            385     1.50405e-26 
            395     1.19286e-25 
            405     8.49878e-25 
            414     4.57031e-24 
            422     1.91246e-23 
            430     7.56495e-23 
            441     4.59984e-22 
            451     2.18832e-21 
            460     8.37724e-21 
            470     3.49306e-20 
            480     1.36707e-19 
            490     5.04466e-19 
            500     1.75918e-18 
            506     4.81999e-18 
            512     1.09993e-17 
            520     2.73672e-17 
            530     8.25827e-17 
            540     2.34332e-16 
            550     6.48547e-16 
            560      1.7151e-15 
            570     4.36816e-15 
            580     1.06186e-14 
            590     2.55475e-14 
            600     5.88797e-14 
            610     1.31951e-13 
            620     2.87026e-13 
            630     6.07893e-13 
            640     1.25481e-12 
            650     2.53064e-12 
            658     4.35972e-12 
            665     6.92182e-12 
            675     1.31989e-11 
            685     2.46467e-11 
            695     4.51303e-11 
            705     8.06176e-11 
            716     1.51065e-10 
            726     2.61385e-10 
            735     4.22103e-10 
            745     7.07676e-10 
            755      1.16953e-9 
            765      1.90526e-9 
            775      3.06044e-9 
            785      4.85559e-9 
            795      7.51283e-9 
            805      1.16677e-8 
            815      1.78926e-8 
            825      2.70105e-8 
            835      4.03149e-8 
            845       5.9557e-8 
            855      8.70571e-8 
            865         1.26e-7 
            875      1.79826e-7 
            885      2.56425e-7 
            895      3.61019e-7 
            905      5.00221e-7 
            915     0.000394942 
            925       0.0012272 
            935      0.00166903 
            945      0.00231224 
            955      0.00339221 
            965      0.00467056 
            975      0.00619927 
            985      0.00820691 
            995       0.0105516 
           1005       0.0148946 
           1015        0.019642 
           1025       0.0248139 
           1035       0.0328403 
           1045       0.0430262 
           1055       0.0554724 
           1065       0.0692493 
           1075       0.0893328 
           1085        0.113624 
           1095        0.139915 
           1105        0.507078 
           1115         1.90618 
           1125         2.89647 
           1135         4.08598 
           1145         5.22124 
           1155         5.83609 
           1165          8.0388 
           1175          9.3272 
           1185         10.0397 
           1195         3.99252 
           1205         3.85726 
           1215        0.936933 
           1225         4.72875 
           1235         13.0865 
           1245         31.8659 
           1255         79.6214 
           1265          76.463 
           1275         167.785 
           1285         291.555 
           1295         396.874 
           1305          242.36 
           1315         590.619 
           1325         805.506 
           1335         837.747 
           1345         1319.16 
           1355         1394.47 
           1365         1549.18 
           1375         1754.16 
           1385         2060.97 
           1395         2521.89 
           1405         2954.83 
           1415         2946.33 
           1425         3653.52 
           1435         3697.36 
           1442         4468.69 
           1447         5113.84 
           1455         6232.42 
           1465         6367.92 
           1475         7304.89 
           1485         8548.41 
           1495           10462 
           1505         11862.1 
           1512         11835.9 
           1517         10677.9 
           1525         10787.8 
           1535         19234.4 
           1545         63495.7 
           1555         47500.4 
           1565         31404.6 
           1575         72663.1 
           1585         99821.4 
           1595          175006 
           1605          121618 
           1615         92874.3 
           1625         71350.5 
           1635         76437.4 
           1645          114002 
           1655         52018.2 
           1665         77030.3 
           1672         23888.7 
           1677          203426 
           1685          418815 
           1695          556448 
           1705          418377 
           1715          709493 
           1725      1.01458e+6 
           1735      1.45174e+6 
           1745      1.01453e+6 
           1755      1.65515e+6 
           1765       1.2647e+6 
           1775      1.87419e+6 
           1785      1.31338e+6 
           1795      2.53665e+6 
           1805      1.86467e+6 
           1815      2.38213e+6 
           1825      1.85388e+6 
           1835      1.59453e+6 
           1845      1.61083e+6 
           1855       2.0484e+6 
           1865      2.38858e+6 
           1875      2.17725e+6 
           1885      2.36414e+6 
           1895      2.77011e+6 
           1905       2.3814e+6 
           1915      2.46025e+6 
           1925      2.35678e+6 
           1935      1.40158e+6 
           1945      3.04279e+6 
           1955      3.19282e+6 
           1967       3.7084e+6 
           1976      3.54145e+6 
           1984      3.58157e+6 
           1995      3.50195e+6 
           2005      3.13433e+6 
           2015      2.60736e+6 
           2025      2.50873e+6 
           2035      3.26903e+6 
           2045      3.80312e+6 
           2055      2.92059e+6 
           2065      2.70084e+6 
           2074      4.11703e+6 
           2078      4.63679e+6 
           2085      4.40093e+6 
           2095      4.03061e+6 
           2105      3.78861e+6 
           2115      3.79532e+6 
           2125      3.91369e+6 
           2135      2.72343e+6 
           2145       3.6637e+6 
           2155      3.95134e+6 
           2165      3.04986e+6 
           2175      3.29877e+6 
           2185      3.51066e+6 
           2195      4.25879e+6 
           2205      3.77502e+6 
           2215       2.7001e+6 
           2225        2.566e+6 
           2235      4.01231e+6 
           2245      3.48122e+6 
           2255      2.45625e+6 
           2265      2.33099e+6 
           2275      3.25688e+6 
           2285      3.50839e+6 
           2295       3.2465e+6 
           2305      3.40877e+6 
           2315      2.98847e+6 
           2325      2.71862e+6 
           2335      1.29964e+6 
           2345          881087 
           2355      1.89593e+6 
           2365          851834 
           2375      1.31433e+6 
           2385          635898 
           2395          904514 
           2405          850308 
           2415      1.50253e+6 
           2425      3.26496e+6 
           2435      3.09721e+6 
           2445      3.51564e+6 
           2455      3.53525e+6 
           2465      3.17827e+6 
           2475      3.01931e+6 
           2485      3.10707e+6 
           2495      3.02587e+6 
           2505      4.28972e+6 
           2513      2.94718e+6 
           2518      3.48433e+6 
           2525      2.54343e+6 
           2535       2.5438e+6 
           2545      2.58533e+6 
           2555      3.37491e+6 
           2565      2.45441e+6 
           2575      2.98009e+6 
           2585       2.3708e+6 
           2595      1.90652e+6 
           2605      1.51163e+6 
           2615      1.42627e+6 
           2625      1.99222e+6 
           2635      3.23636e+6 
           2645      5.76077e+6 
           2655       6.0269e+6 
           2665      4.43341e+6 
           2675      5.02041e+6 
           2685        4.921e+6 
           2695      4.70327e+6 
           2705      5.11963e+6 
           2715      3.94371e+6 
           2725      3.98792e+6 
           2735      4.12038e+6 
           2745      1.86164e+6 
           2755      2.42967e+6 
           2765      3.14349e+6 
           2775      3.89277e+6 
           2785      2.60104e+6 
           2795          879997 
           2805      1.13828e+6 
           2815       3.3956e+6 
           2825        5.186e+6 
           2835      5.16869e+6 
           2845      5.16826e+6 
           2855       4.4565e+6 
           2865      5.67787e+6 
           2875      5.55321e+6 
           2885      5.88095e+6 
           2895      5.52169e+6 
           2910      7.03134e+6 
           2930      6.47929e+6 
           2950      6.35321e+6 
           2970      7.20197e+6 
           2990       7.3019e+6 
           3010      7.90167e+6 
           3030      7.82519e+6 
           3050      7.81402e+6 
           3070       7.7717e+6 
           3090       8.3907e+6 
           3110      7.99178e+6 
           3130       7.8846e+6 
           3150      8.50085e+6 
           3170      8.34631e+6 
           3190      7.59671e+6 
           3210      8.31254e+6 
           3230      7.64588e+6 
           3250      8.43838e+6 
           3270      8.81075e+6 
           3290       8.8738e+6 
           3310      9.26273e+6 
           3330      8.95373e+6 
           3350      8.81055e+6 
           3370      8.58322e+6 
           3390      8.97036e+6 
           3410      9.39029e+6 
           3430      9.61028e+6 
           3450        9.578e+6 
           3470      9.36528e+6 
           3490      9.21588e+6 
           3510      9.74657e+6 
           3530      9.89644e+6 
           3550      1.04052e+7 
           3570      9.70134e+6 
           3590      9.84873e+6 
           3610      9.93937e+6 
           3630      1.01981e+7 
           3640      9.92662e+6 
           3650      1.05035e+7 
           3670      1.05269e+7 
           3690      1.18604e+7 
           3710      1.62304e+7 
           3730      2.63339e+7 
           3750       3.6083e+7 
           3770      3.67481e+7 
           3790      4.23359e+7 
           3810      4.61254e+7 
           3830      3.82844e+7 
           3850      4.58124e+7 
           3870      4.80442e+7 
           3890      3.83797e+7 
           3910        4.354e+7 
           3930      2.32391e+7 
           3950      3.91277e+7 
           3970      2.46581e+7 
           3990      4.50037e+7 
           4010      4.64091e+7 
           4030       4.5553e+7 
           4050      4.50169e+7 
           4070      4.42549e+7 
           4090      4.56203e+7 
           4110      3.83373e+7 
           4130      4.41799e+7 
           4150      4.53563e+7 
           4170       4.3462e+7 
           4190       4.3488e+7 
           4210      4.29546e+7 
           4230      4.21178e+7 
           4250      4.25441e+7 
           4270      4.12332e+7 
           4290      4.19673e+7 
           4310      3.93885e+7 
           4330      3.90134e+7 
           4350      3.43889e+7 
           4370      4.12596e+7 
           4390       3.9954e+7 
           4410      3.87808e+7 
           4430       3.9061e+7 
           4450      3.93043e+7 
           4470      3.91966e+7 
           4490      3.91378e+7 
           4510      3.99027e+7 
           4530      3.80385e+7 
           4550      3.72116e+7 
           4570      3.88258e+7 
           4590      3.68842e+7 
           4610      3.85963e+7 
           4630      3.71775e+7 
           4650      3.78498e+7 
           4670      3.75073e+7 
           4690      3.65098e+7 
           4710        3.528e+7 
           4730      3.64658e+7 
           4750      3.67671e+7 
           4770      3.58501e+7 
           4790      3.56942e+7 
           4810      3.52987e+7 
           4830      3.48826e+7 
           4850      3.19722e+7 
           4870      2.63253e+7 
           4890      3.35813e+7 
           4910      3.35145e+7 
           4930      3.23829e+7 
           4950      3.31242e+7 
           4970      3.33706e+7 
           4990      3.16436e+7 
           5010      3.00992e+7 
           5030      3.10753e+7 
           5050      3.08607e+7 
           5070      3.12084e+7 
           5090      3.07527e+7 
           5110      3.05572e+7 
           5130      2.95421e+7 
           5150       2.9002e+7 
           5170      2.84215e+7 
           5190      2.81875e+7 
           5210      2.81394e+7 
           5230      2.79012e+7 
           5250      2.82549e+7 
           5270      2.65623e+7 
           5290      2.78198e+7 
           5310      2.69385e+7 
           5330      2.64543e+7 
           5350      2.72585e+7 
           5370       2.7031e+7 
           5390       2.6482e+7 
           5410      2.59815e+7 
           5430      2.58658e+7 
           5450      2.62483e+7 
           5470      2.58389e+7 
           5490      2.57098e+7 
           5510      2.53348e+7 
           5530      2.52148e+7 
           5550      2.52755e+7 
           5570      2.48964e+7 
           5590      2.47222e+7 
           5610      2.46683e+7 
           5630      2.45124e+7 
           5650      2.40547e+7 
           5670      2.36732e+7 
           5690      2.38527e+7 
           5710      2.36651e+7 
           5730       2.3693e+7 
           5750       2.3353e+7 
           5770      2.32162e+7 
           5790      2.28718e+7 
           5810      2.27291e+7 
           5830      2.25225e+7 
           5850      2.23864e+7 
           5870      2.22297e+7 
           5890      2.16001e+7 
           5910       2.1781e+7 
           5930      2.15764e+7 
           5950      2.13444e+7 
           5970      2.12703e+7 
           5990       2.0908e+7 
           6010      2.06815e+7 
           6030      2.06409e+7 
           6050      2.04264e+7 
           6070      2.03718e+7 
           6090      2.00757e+7 
           6110      1.97971e+7 
           6130      1.94977e+7 
           6150      1.90075e+7 
           6170      1.91873e+7 
           6190      1.92749e+7 
           6210      1.91676e+7 
           6230       1.8772e+7 
           6250      1.80753e+7 
           6270      1.87105e+7 
           6290      1.85365e+7 
           6310       1.8053e+7 
           6330      1.81121e+7 
           6350      1.78599e+7 
           6370      1.77312e+7 
           6390      1.76776e+7 
           6410      1.73832e+7 
           6430      1.73472e+7 
           6450      1.69391e+7 
           6470      1.71756e+7 
           6490      1.66388e+7 
           6510      1.66994e+7 
           6530      1.66689e+7 
           6550      1.54643e+7 
           6570      1.22074e+7 
           6590      1.60431e+7 
           6610      1.60617e+7 
           6630      1.61133e+7 
           6650      1.59918e+7 
           6670      1.58105e+7 
           6690      1.57321e+7 
           6710       1.5615e+7 
           6730      1.54733e+7 
           6750      1.53123e+7 
           6770         1.53e+7 
           6790      1.51128e+7 
           6810      1.50526e+7 
           6830      1.48353e+7 
           6850      1.47536e+7 
           6870      1.46934e+7 
           6890      1.45884e+7 
           6910      1.44599e+7 
           6930      1.43303e+7 
           6950      1.42331e+7 
           6970      1.40988e+7 
           6990      1.40198e+7 
           7010      1.37421e+7 
           7030      1.37677e+7 
           7050      1.36813e+7 
           7070       1.3592e+7 
           7090      1.34989e+7 
           7110      1.30788e+7 
           7130      1.31723e+7 
           7150      1.31171e+7 
           7170      1.30301e+7 
           7190      1.28637e+7 
           7210      1.27946e+7 
           7230      1.26684e+7 
           7250      1.25993e+7 
           7270      1.25572e+7 
           7290      1.23863e+7 
           7310      1.22495e+7 
           7330      1.22157e+7 
           7350      1.21424e+7 
           7370      1.21348e+7 
           7390      1.19706e+7 
           7410      1.18155e+7 
           7430      1.16708e+7 
           7450      1.16469e+7 
           7470      1.14853e+7 
           7490      1.14657e+7 
           7510        1.139e+7 
           7530      1.13681e+7 
           7550      1.13622e+7 
           7570      1.12141e+7 
           7590        1.118e+7 
           7610      1.11089e+7 
           7630      1.10288e+7 
           7650      1.08765e+7 
           7670      1.07731e+7 
           7690      1.07503e+7 
           7710      1.06147e+7 
           7730      1.06173e+7 
           7750      1.05331e+7 
           7770      1.02118e+7 
           7790      1.04183e+7 
           7810      1.03311e+7 
           7830       1.0196e+7 
           7850      1.00647e+7 
           7870      1.00379e+7 
           7890      9.92596e+6 
           7910      9.87462e+6 
           7930      9.82907e+6 
           7950       9.6998e+6 
           7970      9.77039e+6 
           7990      9.55218e+6 
           8010      9.60318e+6 
           8030      9.51158e+6 
           8050      9.47891e+6 
           8070      9.39323e+6 
           8090      9.33073e+6 
           8110      9.29336e+6 
           8130      9.24769e+6 
           8150      9.18024e+6 
           8170      9.11672e+6 
           8190      8.89196e+6 
           8210      8.85987e+6 
           8230       8.8074e+6 
           8250      8.76365e+6 
           8270      8.82707e+6 
           8290      8.73629e+6 
           8310      8.62446e+6 
           8330      8.42456e+6 
           8350      8.56472e+6 
           8370      8.32057e+6 
           8390      8.41046e+6 
           8410      8.40939e+6 
           8430      8.65368e+6 
           8450      8.44235e+6 
           8470      8.28542e+6 
           8490      8.86212e+6 
           8510      7.93773e+6 
           8530       9.0153e+6 
           8550      7.11381e+6 
           8570      9.38478e+6 
           8590      8.92043e+6 
           8610       8.6844e+6 
           8630      9.63614e+6 
           8650      9.42296e+6 
           8670      7.18387e+6 
           8690      9.20221e+6 
           8710      9.48427e+6 
           8730      9.35436e+6 
           8750      7.83056e+6 
           8770      9.20898e+6 
           8790       9.2973e+6 
           8810      9.18621e+6 
           8830      8.93253e+6 
           8850      8.71953e+6 
           8870      7.55739e+6 
           8890      8.90722e+6 
           8910      8.86016e+6 
           8930      8.76855e+6 
           8950      8.79948e+6 
           8970      8.72377e+6 
           8990       8.5969e+6 
           9010      7.40046e+6 
           9030      8.10694e+6 
           9050      8.49064e+6 
           9070      8.18626e+6 
           9090      8.05042e+6 
           9110      8.21121e+6 
           9130      8.23539e+6 
           9150      8.24802e+6 
           9170      8.14667e+6 
           9190      8.02382e+6 
           9210      7.85711e+6 
           9230      6.55086e+6 
           9250      7.60261e+6 
           9270      7.62903e+6 
           9290      7.83543e+6 
           9310       7.8018e+6 
           9330      7.72208e+6 
           9350      7.69985e+6 
           9370      7.66744e+6 
           9390      7.53313e+6 
           9410      7.25055e+6 
           9430      7.40962e+6 
           9450      7.39812e+6 
           9470      7.38076e+6 
           9490      7.36224e+6 
