# Kurucz ODFNEW /NOVER (2003)
# teff = 22000 K (value for the effective temperature for the model. Temperatures are given in K)
# logg = 4 log(cm/s2) (value for Log(G) for the model.)
# meta = -2.5  (value for the Metallicity for the model.)
# lh = 1.25  (l/Hp where l is the  mixing length of the convective element and Hp is the pressure scale height)
# vtur = 2 km/s (Microturbulence velocity)
# alpha = 0.4  (Alpha)
#
# column 1: WAVELENGTH (ANGSTROM), Wavelength in Angstrom
# column 2: FLUX (ERG/CM2/S/A), Flux in erg/cm2/s/A
          147.2     5.81946e-18 
            151     3.54936e-17 
          155.2     2.36591e-16 
          158.8     1.11129e-15 
            162     4.15014e-15 
            166     2.00573e-14 
          170.3     1.00408e-13 
          173.4     3.05004e-13 
          176.8     9.85819e-13 
          180.2     3.04613e-12 
          181.7     4.94263e-12 
          186.1     1.95276e-11 
            191     8.35525e-11 
          193.9     1.90613e-10 
          198.4     6.52534e-10 
          201.8      1.59255e-9 
            205       3.5863e-9 
          210.5      1.36339e-8 
          216.2      5.05052e-8 
          219.8      1.11353e-7 
            223      2.19876e-7 
          226.8      4.80537e-7 
            230       1.4993e-6 
            234      3.44709e-6 
            240      1.00507e-5 
          246.5      3.01379e-5 
          252.4      7.80002e-5 
          256.8     0.000151837 
            260      0.00024707 
            264     0.000440972 
          268.5     0.000827431 
          273.5      0.00162336 
          278.5      0.00310851 
            284      0.00617669 
            290       0.0126596 
            296       0.0251477 
            301       0.0436228 
            308       0.0907154 
            318        0.247387 
            328        0.628139 
            338           1.504 
            348         3.41378 
            357         6.84326 
            366         13.2306 
            375         24.7078 
            385         47.6729 
            395         88.6959 
            405         159.638 
            414         263.871 
            422         404.328 
            430         608.717 
            441         1040.98 
            451         1653.03 
            460         2458.89 
            470         3748.02 
            480          5601.4 
            490         8220.42 
            500           11856 
            506         79369.8 
            512          236649 
            520          300743 
            530          436223 
            540          480304 
            550          690853 
            560          844758 
            570      1.03848e+6 
            580      1.06133e+6 
            590      1.41633e+6 
            600      1.79752e+6 
            610      2.14253e+6 
            620      2.51372e+6 
            630      2.95233e+6 
            640      3.40252e+6 
            650      3.97229e+6 
            658        4.461e+6 
            665      4.90581e+6 
            675      5.55612e+6 
            685      6.30121e+6 
            695      7.24976e+6 
            705      8.15195e+6 
            716      9.25921e+6 
            726      1.03475e+7 
            735      1.14924e+7 
            745      1.28055e+7 
            755      1.42034e+7 
            765      1.56736e+7 
            775      1.73021e+7 
            785      1.90099e+7 
            795      2.07962e+7 
            805      2.27285e+7 
            815      2.47394e+7 
            825      2.69075e+7 
            835      2.88281e+7 
            845      3.15001e+7 
            855      3.38957e+7 
            865      3.66083e+7 
            875      3.93417e+7 
            885      4.22306e+7 
            895      4.51873e+7 
            905      4.78004e+7 
            915      8.27142e+7 
            925      5.70361e+8 
            935      2.04967e+9 
            945      7.63647e+9 
            955     1.17576e+10 
            965     1.56509e+10 
            975      5.98685e+9 
            985     1.86185e+10 
            995     1.82888e+10 
           1005     1.87077e+10 
           1015     1.63969e+10 
           1025      4.37212e+9 
           1035     1.45786e+10 
           1045     1.81375e+10 
           1055     1.78125e+10 
           1065     1.66911e+10 
           1075     1.70415e+10 
           1085     1.59899e+10 
           1095     1.66329e+10 
           1105     1.58356e+10 
           1115     1.56564e+10 
           1125     1.48805e+10 
           1135     1.51397e+10 
           1145     1.44672e+10 
           1155     1.46018e+10 
           1165     1.43575e+10 
           1175     1.29326e+10 
           1185     1.37178e+10 
           1195     1.26294e+10 
           1205     1.04958e+10 
           1215      2.98862e+9 
           1225      1.0179e+10 
           1235     1.21099e+10 
           1245     1.20746e+10 
           1255     1.18492e+10 
           1265     1.16113e+10 
           1275     1.16113e+10 
           1285     1.13811e+10 
           1295     1.05543e+10 
           1305     1.05124e+10 
           1315     1.07366e+10 
           1325     1.04069e+10 
           1335      1.0044e+10 
           1345     1.00928e+10 
           1355      9.98196e+9 
           1365      9.72827e+9 
           1375      9.57732e+9 
           1385      9.43245e+9 
           1395      9.03578e+9 
           1405      8.94864e+9 
           1415      8.89505e+9 
           1425      8.76693e+9 
           1435      8.62651e+9 
           1442      8.54006e+9 
           1447      8.46063e+9 
           1455      8.33742e+9 
           1465      8.18449e+9 
           1475      8.04498e+9 
           1485      7.89906e+9 
           1495      7.76273e+9 
           1505      7.57309e+9 
           1512      7.50478e+9 
           1517      7.45703e+9 
           1525      7.34222e+9 
           1535      7.13495e+9 
           1545      7.06735e+9 
           1555      6.91427e+9 
           1565      6.87126e+9 
           1575      6.77547e+9 
           1585      6.66265e+9 
           1595      6.56338e+9 
           1605      6.40258e+9 
           1615      6.29696e+9 
           1625      6.24053e+9 
           1635      6.15217e+9 
           1645      6.00116e+9 
           1655      5.95541e+9 
           1665      5.87226e+9 
           1672      5.75649e+9 
           1677      5.77044e+9 
           1685      5.69614e+9 
           1695      5.59595e+9 
           1705      5.50057e+9 
           1715      5.39856e+9 
           1725      5.32362e+9 
           1735      5.25267e+9 
           1745      5.16913e+9 
           1755      5.10513e+9 
           1765      4.96715e+9 
           1775      4.92927e+9 
           1785      4.86651e+9 
           1795      4.80776e+9 
           1805        4.741e+9 
           1815      4.65985e+9 
           1825      4.59818e+9 
           1835      4.53052e+9 
           1845      4.42554e+9 
           1855      4.31172e+9 
           1865      4.27221e+9 
           1875      4.26384e+9 
           1885      4.15373e+9 
           1895       4.0523e+9 
           1905      4.06645e+9 
           1915      3.96019e+9 
           1925      3.90441e+9 
           1935      3.87956e+9 
           1945      3.85162e+9 
           1955      3.74558e+9 
           1967      3.73673e+9 
           1976      3.70894e+9 
           1984      3.64062e+9 
           1995      3.55344e+9 
           2005      3.55426e+9 
           2015      3.51879e+9 
           2025      3.47935e+9 
           2035      3.42049e+9 
           2045      3.37451e+9 
           2055      3.29393e+9 
           2065       3.2637e+9 
           2074      3.26153e+9 
           2078      3.20441e+9 
           2085      3.20147e+9 
           2095       3.1412e+9 
           2105      3.12179e+9 
           2115      3.08839e+9 
           2125      3.05438e+9 
           2135      3.01352e+9 
           2145      2.97091e+9 
           2155       2.9374e+9 
           2165      2.90085e+9 
           2175        2.863e+9 
           2185      2.82849e+9 
           2195      2.79441e+9 
           2205      2.75905e+9 
           2215      2.72475e+9 
           2225      2.68981e+9 
           2235      2.65682e+9 
           2245      2.62566e+9 
           2255      2.59234e+9 
           2265      2.56209e+9 
           2275      2.53073e+9 
           2285      2.50069e+9 
           2295      2.45828e+9 
           2305      2.44047e+9 
           2315      2.41036e+9 
           2325      2.38208e+9 
           2335      2.35135e+9 
           2345      2.32257e+9 
           2355      2.29834e+9 
           2365      2.26992e+9 
           2375      2.24363e+9 
           2385      2.21571e+9 
           2395      2.19068e+9 
           2405       2.1656e+9 
           2415       2.1395e+9 
           2425      2.11734e+9 
           2435      2.09204e+9 
           2445      2.06822e+9 
           2455      2.04547e+9 
           2465      2.02153e+9 
           2475      1.99877e+9 
           2485      1.97613e+9 
           2495      1.93799e+9 
           2505      1.93161e+9 
           2513      1.91032e+9 
           2518      1.90286e+9 
           2525      1.88813e+9 
           2535      1.86687e+9 
           2545      1.84298e+9 
           2555      1.82657e+9 
           2565      1.80554e+9 
           2575      1.78722e+9 
           2585      1.76761e+9 
           2595      1.74826e+9 
           2605      1.74335e+9 
           2615      1.72487e+9 
           2625      1.70557e+9 
           2635      1.68326e+9 
           2645      1.66609e+9 
           2655       1.6456e+9 
           2665      1.62521e+9 
           2675      1.60676e+9 
           2685      1.60015e+9 
           2695      1.57113e+9 
           2705      1.56628e+9 
           2715      1.54965e+9 
           2725      1.52074e+9 
           2735       1.5172e+9 
           2745      1.49951e+9 
           2755      1.48423e+9 
           2765       1.4574e+9 
           2775      1.45499e+9 
           2785       1.4398e+9 
           2795      1.41104e+9 
           2805      1.40473e+9 
           2815      1.39596e+9 
           2825      1.36698e+9 
           2835      1.35965e+9 
           2845      1.35355e+9 
           2855      1.33988e+9 
           2865      1.32637e+9 
           2875      1.31296e+9 
           2885       1.2998e+9 
           2895      1.28679e+9 
           2910      1.26751e+9 
           2930      1.24219e+9 
           2950      1.20956e+9 
           2970      1.19422e+9 
           2990      1.17088e+9 
           3010      1.14831e+9 
           3030       1.1263e+9 
           3050      1.10474e+9 
           3070      1.08371e+9 
           3090      1.06298e+9 
           3110       1.0432e+9 
           3130      1.02487e+9 
           3150      1.00575e+9 
           3170      9.86689e+8 
           3190      9.60621e+8 
           3210      9.50516e+8 
           3230      9.33004e+8 
           3250      9.15885e+8 
           3270      9.00417e+8 
           3290       8.8296e+8 
           3310      8.68437e+8 
           3330      8.53008e+8 
           3350      8.36408e+8 
           3370       8.2316e+8 
           3390      8.08755e+8 
           3410      7.94663e+8 
           3430      7.77577e+8 
           3450      7.61498e+8 
           3470      7.50649e+8 
           3490      7.37771e+8 
           3510      7.27797e+8 
           3530      7.16702e+8 
           3550      7.04823e+8 
           3570      6.96327e+8 
           3590      6.80902e+8 
           3610      6.70921e+8 
           3630      6.58517e+8 
           3640      6.57064e+8 
           3650      6.50839e+8 
           3670      6.42954e+8 
           3690      6.27841e+8 
           3710      6.08089e+8 
           3730      5.87613e+8 
           3750      6.33897e+8 
           3770      6.40733e+8 
           3790      6.81198e+8 
           3810      7.15122e+8 
           3830      6.17657e+8 
           3850       7.3981e+8 
           3870      7.47301e+8 
           3890      5.85007e+8 
           3910      7.35983e+8 
           3930      7.26657e+8 
           3950      7.12991e+8 
           3970      5.44482e+8 
           3990      6.84285e+8 
           4010      6.80733e+8 
           4030      6.40474e+8 
           4050      6.65906e+8 
           4070      6.52259e+8 
           4090      5.97205e+8 
           4110      5.15558e+8 
           4130      6.11733e+8 
           4150      6.06923e+8 
           4170      6.02004e+8 
           4190      5.94103e+8 
           4210      5.84518e+8 
           4230      5.75046e+8 
           4250      5.65725e+8 
           4270      5.56182e+8 
           4290      5.47098e+8 
           4310       5.3532e+8 
           4330      4.81117e+8 
           4350      4.36248e+8 
           4370      5.09062e+8 
           4390      4.90418e+8 
           4410      4.97738e+8 
           4430      4.87764e+8 
           4450      4.82666e+8 
           4470      4.53356e+8 
           4490      4.67415e+8 
           4510      4.60834e+8 
           4530        4.538e+8 
           4550      4.46871e+8 
           4570      4.40082e+8 
           4590      4.33501e+8 
           4610      4.27036e+8 
           4630      4.20631e+8 
           4650      4.14198e+8 
           4670      4.08205e+8 
           4690      4.02179e+8 
           4710      3.91077e+8 
           4730      3.90404e+8 
           4750      3.84636e+8 
           4770      3.79182e+8 
           4790      3.73674e+8 
           4810      3.67691e+8 
           4830      3.60292e+8 
           4850      3.30164e+8 
           4870      2.92671e+8 
           4890      3.43674e+8 
           4910       3.4138e+8 
           4930      3.29192e+8 
           4950      3.33072e+8 
           4970      3.28429e+8 
           4990      3.23835e+8 
           5010      3.15281e+8 
           5030      3.14878e+8 
           5050      3.08489e+8 
           5070      3.06265e+8 
           5090       3.0206e+8 
           5110      2.97911e+8 
           5130      2.93861e+8 
           5150      2.89864e+8 
           5170      2.85934e+8 
           5190      2.82084e+8 
           5210      2.78257e+8 
           5230      2.74563e+8 
           5250       2.7089e+8 
           5270      2.67291e+8 
           5290      2.63739e+8 
           5310      2.60246e+8 
           5330      2.56825e+8 
           5350      2.53434e+8 
           5370      2.50126e+8 
           5390      2.46873e+8 
           5410      2.43661e+8 
           5430      2.40489e+8 
           5450      2.37383e+8 
           5470      2.34328e+8 
           5490      2.31324e+8 
           5510       2.2837e+8 
           5530      2.25452e+8 
           5550      2.22595e+8 
           5570      2.19773e+8 
           5590      2.16997e+8 
           5610      2.14268e+8 
           5630      2.11583e+8 
           5650       2.0892e+8 
           5670      2.06324e+8 
           5690      2.03759e+8 
           5710      2.01248e+8 
           5730      1.98755e+8 
           5750      1.96304e+8 
           5770      1.93904e+8 
           5790      1.91533e+8 
           5810      1.89201e+8 
           5830      1.86897e+8 
           5850       1.8463e+8 
           5870      1.76803e+8 
           5890      1.79981e+8 
           5910      1.78042e+8 
           5930      1.75911e+8 
           5950      1.73815e+8 
           5970      1.71754e+8 
           5990      1.69706e+8 
           6010      1.67713e+8 
           6030      1.65732e+8 
           6050      1.63784e+8 
           6070      1.61868e+8 
           6090      1.59984e+8 
           6110      1.58121e+8 
           6130      1.56278e+8 
           6150      1.54477e+8 
           6170      1.52695e+8 
           6190      1.50933e+8 
           6210       1.4921e+8 
           6230      1.47497e+8 
           6250      1.45821e+8 
           6270      1.44164e+8 
           6290      1.42525e+8 
           6310      1.40914e+8 
           6330      1.39329e+8 
           6350      1.37742e+8 
           6370       1.3621e+8 
           6390      1.34695e+8 
           6410      1.33195e+8 
           6430      1.31712e+8 
           6450      1.30254e+8 
           6470      1.28811e+8 
           6490      1.27392e+8 
           6510      1.25881e+8 
           6530      1.23963e+8 
           6550      1.18044e+8 
           6570      1.04331e+8 
           6590      1.19209e+8 
           6610      1.19006e+8 
           6630      1.17989e+8 
           6650      1.16803e+8 
           6670      1.14385e+8 
           6690       1.1318e+8 
           6710      1.13092e+8 
           6730       1.1188e+8 
           6750      1.10697e+8 
           6770      1.09518e+8 
           6790      1.08359e+8 
           6810       1.0722e+8 
           6830      1.06092e+8 
           6850      1.04976e+8 
           6870      1.03879e+8 
           6890        1.028e+8 
           6910      1.01725e+8 
           6930      1.00668e+8 
           6950      9.96292e+7 
           6970      9.86008e+7 
           6990      9.75824e+7 
           7010      9.65894e+7 
           7030      9.55985e+7 
           7050      9.46172e+7 
           7070      9.21382e+7 
           7090      9.27058e+7 
           7110      9.17676e+7 
           7130      9.08385e+7 
           7150      8.99257e+7 
           7170      8.89997e+7 
           7190      8.81264e+7 
           7210      8.72468e+7 
           7230      8.63468e+7 
           7250      8.55127e+7 
           7270       8.4665e+7 
           7290      8.31449e+7 
           7310      8.29866e+7 
           7330      8.21838e+7 
           7350      8.13745e+7 
           7370      8.05728e+7 
           7390      7.97855e+7 
           7410      7.90123e+7 
           7430      7.82395e+7 
           7450      7.74942e+7 
           7470      7.67422e+7 
           7490      7.60038e+7 
           7510      7.52389e+7 
           7530      7.45474e+7 
           7550      7.38291e+7 
           7570       7.3124e+7 
           7590      7.24252e+7 
           7610      7.17393e+7 
           7630      7.10531e+7 
           7650      7.03795e+7 
           7670      6.97183e+7 
           7690      6.90568e+7 
           7710      6.84074e+7 
           7730      6.77702e+7 
           7750      6.71323e+7 
           7770      6.65001e+7 
           7790      6.58859e+7 
           7810      6.52278e+7 
           7830      6.46676e+7 
           7850      6.41429e+7 
           7870      6.35497e+7 
           7890      6.29193e+7 
           7910      6.23907e+7 
           7930      6.18188e+7 
           7950      6.11744e+7 
           7970      6.05297e+7 
           7990       5.9991e+7 
           8010      5.94334e+7 
           8030      5.88924e+7 
           8050      5.83908e+7 
           8070      5.78993e+7 
           8090      5.72605e+7 
           8110      5.68444e+7 
           8130      5.63821e+7 
           8150      5.57887e+7 
           8170      5.53979e+7 
           8190      5.48266e+7 
           8210      5.42709e+7 
           8230      5.39579e+7 
           8250      5.34985e+7 
           8270      5.27548e+7 
           8290       5.2512e+7 
           8310      5.20735e+7 
           8330      5.15996e+7 
           8350      5.08896e+7 
           8370      5.06053e+7 
           8390      5.02396e+7 
           8410      4.97847e+7 
           8430      4.92789e+7 
           8450      4.85436e+7 
           8470      4.82952e+7 
           8490      4.79294e+7 
           8510      4.72581e+7 
           8530      4.72112e+7 
           8550      4.57868e+7 
           8570      4.70726e+7 
