# Kurucz ODFNEW /NOVER (2003)
# teff = 8750 K (value for the effective temperature for the model. Temperatures are given in K)
# logg = 3 log(cm/s2) (value for Log(G) for the model.)
# meta = -2.5  (value for the Metallicity for the model.)
# lh = 1.25  (l/Hp where l is the  mixing length of the convective element and Hp is the pressure scale height)
# vtur = 2 km/s (Microturbulence velocity)
# alpha = 0.4  (Alpha)
#
# column 1: WAVELENGTH (ANGSTROM), Wavelength in Angstrom
# column 2: FLUX (ERG/CM2/S/A), Flux in erg/cm2/s/A
          273.5     4.02303e-23 
          278.5     1.97495e-22 
            284     9.35284e-22 
            290      4.6632e-21 
            296     2.16649e-20 
            301     7.43138e-20 
            308     3.89267e-19 
            318     3.63761e-18 
            328     2.95524e-17 
            338     2.11168e-16 
            348     1.34346e-15 
            357     6.47761e-15 
            366     2.88602e-14 
            375     1.19289e-13 
            385     5.32695e-13 
            395      2.1983e-12 
            405     8.43814e-12 
            414     2.67365e-11 
            422     7.13756e-11 
            430     1.83454e-10 
            441     6.33916e-10 
            451      1.85206e-9 
            460      4.66336e-9 
            470      1.24616e-8 
            480      3.18977e-8 
            490      7.84856e-8 
            500      1.85908e-7 
            506      4.07208e-7 
            512      7.38315e-7 
            520      1.38317e-6 
            530      2.97186e-6 
            540       6.1026e-6 
            550      1.23461e-5 
            560      2.41691e-5 
            570      4.61351e-5 
            580      8.52311e-5 
            590     0.000156752 
            600      0.00027969 
            610     0.000488959 
            620     0.000838488 
            630      0.00141181 
            640      0.00233598 
            650      0.00380162 
            658      0.00554891 
            665      0.00766331 
            675       0.0120024 
            685       0.0185344 
            695       0.0282392 
            705       0.0424758 
            716       0.0656059 
            726       0.0962058 
            735        0.134478 
            745        0.193108 
            755        0.274432 
            765        0.386118 
            775        0.538062 
            785        0.742913 
            795         1.01671 
            805         1.37978 
            815         1.85715 
            825         2.48015 
            835         3.28697 
            845          4.3249 
            855         5.65023 
            865         7.33143 
            875          9.4504 
            885         12.1048 
            895         15.4111 
            905         19.5052 
            915         49.2406 
            925         216.129 
            935         366.587 
            945         683.873 
            955         1127.89 
            965         1454.45 
            975         958.721 
            985         3362.56 
            995          9333.9 
           1005         5813.05 
           1015         2917.52 
           1025         1834.87 
           1035         4190.98 
           1045         13496.1 
           1055          258716 
           1065      1.27388e+6 
           1075      2.73736e+6 
           1085      3.98482e+6 
           1095      4.00161e+6 
           1105      6.72113e+6 
           1115      1.07832e+7 
           1125      9.49991e+6 
           1135      8.71239e+6 
           1145      5.74078e+6 
           1155      2.67747e+6 
           1165          797940 
           1175          109879 
           1185          407361 
           1195         19310.5 
           1205         13921.4 
           1215         6844.66 
           1225           15635 
           1235         28523.5 
           1245         29221.6 
           1255         69673.5 
           1265          412084 
           1275      1.73878e+6 
           1285      5.40719e+6 
           1295      8.54626e+6 
           1305      1.10201e+7 
           1315       1.5652e+7 
           1325      1.99138e+7 
           1335      2.29539e+7 
           1345      2.68538e+7 
           1355      2.77085e+7 
           1365      2.95625e+7 
           1375      2.97936e+7 
           1385      2.87601e+7 
           1395       2.8173e+7 
           1405      3.44358e+7 
           1415      4.07394e+7 
           1425      4.26686e+7 
           1435      4.15382e+7 
           1442      4.51271e+7 
           1447      4.48932e+7 
           1455      4.63833e+7 
           1465      4.53362e+7 
           1475      4.61452e+7 
           1485      4.62792e+7 
           1495      4.73814e+7 
           1505      4.81061e+7 
           1512       4.8133e+7 
           1517      4.78784e+7 
           1525      4.73968e+7 
           1535      4.67509e+7 
           1545      4.75365e+7 
           1555      4.53255e+7 
           1565      4.15718e+7 
           1575      4.39037e+7 
           1585      4.45782e+7 
           1595      4.55344e+7 
           1605      4.39494e+7 
           1615      4.52759e+7 
           1625       4.4104e+7 
           1635      4.60986e+7 
           1645      4.75752e+7 
           1655      4.41797e+7 
           1665      4.82547e+7 
           1672      4.55026e+7 
           1677      4.66141e+7 
           1685      4.81416e+7 
           1695      4.64607e+7 
           1705      4.61208e+7 
           1715      4.74533e+7 
           1725      4.67857e+7 
           1735      4.77685e+7 
           1745      4.68415e+7 
           1755      4.75593e+7 
           1765      4.57158e+7 
           1775      4.70113e+7 
           1785      4.63973e+7 
           1795      4.72031e+7 
           1805       4.6182e+7 
           1815      4.58471e+7 
           1825       4.5216e+7 
           1835      4.53399e+7 
           1845      4.39776e+7 
           1855      4.48076e+7 
           1865      4.48082e+7 
           1875       4.4848e+7 
           1885        4.477e+7 
           1895      4.45463e+7 
           1905      4.35556e+7 
           1915      4.38826e+7 
           1925      4.41782e+7 
           1935      4.33193e+7 
           1945      4.41367e+7 
           1955      4.38835e+7 
           1967       4.3746e+7 
           1976      4.30338e+7 
           1984      4.28196e+7 
           1995      4.29081e+7 
           2005      4.22066e+7 
           2015      4.13962e+7 
           2025       4.1343e+7 
           2035      4.18692e+7 
           2045      4.16517e+7 
           2055      4.05533e+7 
           2065      4.07357e+7 
           2074      4.13428e+7 
           2078      4.14133e+7 
           2085      4.12344e+7 
           2095      4.09387e+7 
           2105      4.08032e+7 
           2115      4.05033e+7 
           2125      4.02482e+7 
           2135      3.95331e+7 
           2145      4.02331e+7 
           2155      3.98103e+7 
           2165      3.90045e+7 
           2175      3.90258e+7 
           2185      3.90718e+7 
           2195      3.97143e+7 
           2205      3.88466e+7 
           2215      3.76505e+7 
           2225      3.77412e+7 
           2235      3.89209e+7 
           2245      3.82199e+7 
           2255      3.73623e+7 
           2265      3.69193e+7 
           2275      3.79326e+7 
           2285      3.79938e+7 
           2295      3.73766e+7 
           2305       3.7482e+7 
           2315      3.72046e+7 
           2325      3.72539e+7 
           2335       3.6666e+7 
           2345      3.51318e+7 
           2355      3.65098e+7 
           2365      3.52581e+7 
           2375      3.60258e+7 
           2385      3.41951e+7 
           2395      3.56203e+7 
           2405      3.53417e+7 
           2415      3.53771e+7 
           2425      3.60725e+7 
           2435       3.5381e+7 
           2445      3.57167e+7 
           2455      3.57213e+7 
           2465      3.50402e+7 
           2475      3.48204e+7 
           2485      3.51666e+7 
           2495      3.46892e+7 
           2505      3.54647e+7 
           2513      3.47035e+7 
           2518      3.46407e+7 
           2525      3.39189e+7 
           2535      3.36876e+7 
           2545      3.39474e+7 
           2555      3.48127e+7 
           2565      3.44863e+7 
           2575      3.49405e+7 
           2585      3.50845e+7 
           2595      3.47715e+7 
           2605      3.43735e+7 
           2615      3.41712e+7 
           2625      3.41885e+7 
           2635      3.43647e+7 
           2645      3.55382e+7 
           2655      3.53795e+7 
           2665      3.47183e+7 
           2675      3.49372e+7 
           2685      3.51493e+7 
           2695      3.48221e+7 
           2705      3.48251e+7 
           2715      3.42997e+7 
           2725       3.4294e+7 
           2735      3.45614e+7 
           2745      3.32036e+7 
           2755      3.32906e+7 
           2765      3.38307e+7 
           2775      3.44616e+7 
           2785      3.42869e+7 
           2795      3.17813e+7 
           2805      3.30614e+7 
           2815      3.45132e+7 
           2825      3.43802e+7 
           2835      3.39694e+7 
           2845       3.3859e+7 
           2855      3.34152e+7 
           2865      3.36174e+7 
           2875      3.36652e+7 
           2885      3.37192e+7 
           2895       3.3924e+7 
           2910      3.40485e+7 
           2930      3.35502e+7 
           2950      3.34466e+7 
           2970      3.35152e+7 
           2990      3.33697e+7 
           3010      3.34791e+7 
           3030      3.34042e+7 
           3050      3.32644e+7 
           3070      3.29595e+7 
           3090      3.30317e+7 
           3110      3.29121e+7 
           3130      3.27558e+7 
           3150      3.26248e+7 
           3170      3.25695e+7 
           3190      3.22286e+7 
           3210      3.23065e+7 
           3230      3.20037e+7 
           3250      3.20754e+7 
           3270       3.2106e+7 
           3290      3.20495e+7 
           3310      3.19653e+7 
           3330       3.1734e+7 
           3350      3.14976e+7 
           3370      3.14585e+7 
           3390      3.13684e+7 
           3410      3.14194e+7 
           3430      3.13052e+7 
           3450      3.12028e+7 
           3470      3.10775e+7 
           3490      3.09856e+7 
           3510      3.08934e+7 
           3530      3.08013e+7 
           3550      3.06944e+7 
           3570      3.05642e+7 
           3590      3.04556e+7 
           3610      3.03503e+7 
           3630      3.02369e+7 
           3640      3.01734e+7 
           3650      3.03363e+7 
           3670      3.00345e+7 
           3690      2.92256e+7 
           3710      3.36246e+7 
           3730      3.84883e+7 
           3750      5.42169e+7 
           3770      5.86555e+7 
           3790      7.27436e+7 
           3810      8.53423e+7 
           3830      6.72771e+7 
           3850       9.3864e+7 
           3870      1.04857e+8 
           3890      5.73207e+7 
           3910      1.03151e+8 
           3930      1.06724e+8 
           3950      1.01597e+8 
           3970      5.47852e+7 
           3990      9.66594e+7 
           4010      1.03785e+8 
           4030      1.03071e+8 
           4050      1.01718e+8 
           4070      9.86735e+7 
           4090      7.83947e+7 
           4110      5.92099e+7 
           4130      9.34883e+7 
           4150      9.51793e+7 
           4170      9.44201e+7 
           4190      9.33943e+7 
           4210      9.23411e+7 
           4230      9.10615e+7 
           4250      8.98102e+7 
           4270      8.85122e+7 
           4290      8.69703e+7 
           4310      8.39504e+7 
           4330      6.41181e+7 
           4350      5.40531e+7 
           4370      8.02288e+7 
           4390      8.14503e+7 
           4410      8.09592e+7 
           4430       8.0203e+7 
           4450      7.92953e+7 
           4470      7.82423e+7 
           4490      7.70965e+7 
           4510      7.64012e+7 
           4530      7.54674e+7 
           4550      7.44833e+7 
           4570      7.36524e+7 
           4590      7.27706e+7 
           4610      7.19438e+7 
           4630      7.10512e+7 
           4650      7.02322e+7 
           4670      6.93953e+7 
           4690      6.85632e+7 
           4710       6.7685e+7 
           4730      6.69656e+7 
           4750      6.61808e+7 
           4770      6.52694e+7 
           4790      6.43692e+7 
           4810      6.32732e+7 
           4830      6.11209e+7 
           4850      4.87726e+7 
           4870      3.91345e+7 
           4890      5.80327e+7 
           4910      5.95673e+7 
           4930      5.92818e+7 
           4950      5.87961e+7 
           4970      5.82811e+7 
           4990      5.76242e+7 
           5010      5.69399e+7 
           5030      5.63406e+7 
           5050      5.56958e+7 
           5070      5.50975e+7 
           5090       5.4488e+7 
           5110      5.38877e+7 
           5130      5.32909e+7 
           5150      5.27073e+7 
           5170      5.20184e+7 
           5190       5.1505e+7 
           5210      5.10021e+7 
           5230      5.04323e+7 
           5250      4.99094e+7 
           5270      4.93549e+7 
           5290      4.88411e+7 
           5310      4.83109e+7 
           5330      4.77965e+7 
           5350       4.7299e+7 
           5370      4.67945e+7 
           5390      4.63013e+7 
           5410      4.58129e+7 
           5430      4.53342e+7 
           5450      4.48613e+7 
           5470      4.43953e+7 
           5490      4.39337e+7 
           5510      4.34788e+7 
           5530      4.30257e+7 
           5550      4.25865e+7 
           5570      4.21489e+7 
           5590      4.17152e+7 
           5610      4.12902e+7 
           5630      4.08714e+7 
           5650      4.04563e+7 
           5670       4.0046e+7 
           5690      3.96428e+7 
           5710      3.92443e+7 
           5730      3.88503e+7 
           5750       3.8462e+7 
           5770      3.80782e+7 
           5790      3.76998e+7 
           5810      3.73257e+7 
           5830       3.6957e+7 
           5850      3.65925e+7 
           5870      3.62156e+7 
           5890      3.58691e+7 
           5910      3.55275e+7 
           5930      3.51812e+7 
           5950      3.48386e+7 
           5970      3.45009e+7 
           5990       3.4167e+7 
           6010      3.38378e+7 
           6030      3.35132e+7 
           6050      3.31921e+7 
           6070      3.28756e+7 
           6090      3.25625e+7 
           6110      3.22528e+7 
           6130      3.19474e+7 
           6150      3.16414e+7 
           6170      3.13475e+7 
           6190      3.10538e+7 
           6210      3.07623e+7 
           6230      3.04749e+7 
           6250      3.01885e+7 
           6270        2.991e+7 
           6290      2.96325e+7 
           6310      2.93588e+7 
           6330       2.9088e+7 
           6350      2.88098e+7 
           6370      2.85502e+7 
           6390      2.82943e+7 
           6410      2.80346e+7 
           6430      2.77803e+7 
           6450      2.75195e+7 
           6470      2.72129e+7 
           6490      2.69175e+7 
           6510      2.65532e+7 
           6530      2.58819e+7 
           6550      2.27912e+7 
           6570      1.82304e+7 
           6590      2.45869e+7 
           6610      2.52773e+7 
           6630      2.52451e+7 
           6650      2.50866e+7 
           6670      2.49212e+7 
           6690      2.47151e+7 
           6710      2.44994e+7 
           6730       2.4285e+7 
           6750      2.40726e+7 
           6770      2.38624e+7 
           6790       2.3655e+7 
           6810      2.34497e+7 
           6830      2.32463e+7 
           6850      2.30449e+7 
           6870      2.28463e+7 
           6890      2.26496e+7 
           6910      2.24555e+7 
           6930      2.22634e+7 
           6950       2.2073e+7 
           6970      2.18853e+7 
           6990      2.16993e+7 
           7010      2.15151e+7 
           7030      2.13334e+7 
           7050      2.11534e+7 
           7070      2.09743e+7 
           7090      2.07985e+7 
           7110      2.06228e+7 
           7130      2.04516e+7 
           7150      2.02806e+7 
           7170       2.0112e+7 
           7190      1.99448e+7 
           7210        1.978e+7 
           7230      1.96159e+7 
           7250      1.94541e+7 
           7270      1.92938e+7 
           7290      1.91356e+7 
           7310      1.89788e+7 
           7330      1.88235e+7 
           7350      1.86696e+7 
           7370      1.85178e+7 
           7390      1.83674e+7 
           7410      1.82183e+7 
           7430      1.80705e+7 
           7450      1.79247e+7 
           7470      1.77803e+7 
           7490      1.76371e+7 
           7510      1.74958e+7 
           7530      1.73559e+7 
           7550      1.72178e+7 
           7570      1.70802e+7 
           7590      1.69446e+7 
           7610      1.68101e+7 
           7630      1.66774e+7 
           7650      1.65453e+7 
           7670      1.64149e+7 
           7690      1.62857e+7 
           7710      1.61582e+7 
           7730      1.60318e+7 
           7750      1.59065e+7 
           7770      1.57374e+7 
           7790      1.56592e+7 
           7810      1.55377e+7 
           7830      1.54172e+7 
           7850      1.52978e+7 
           7870      1.51782e+7 
           7890      1.50596e+7 
           7910      1.49468e+7 
           7930      1.48326e+7 
           7950      1.47187e+7 
           7970      1.46064e+7 
           7990       1.4492e+7 
           8010      1.43845e+7 
           8030      1.42756e+7 
           8050      1.41675e+7 
           8070      1.40603e+7 
           8090      1.39541e+7 
           8110      1.38487e+7 
           8130      1.37447e+7 
           8150      1.36416e+7 
           8170      1.35393e+7 
           8190      1.34368e+7 
           8210      1.33854e+7 
           8230      1.32931e+7 
           8250      1.32028e+7 
           8270       1.3118e+7 
           8290      1.30285e+7 
           8310      1.29342e+7 
           8330      1.28299e+7 
           8350      1.27231e+7 
           8370      1.25768e+7 
           8390      1.24522e+7 
           8410      1.23004e+7 
           8430      1.22781e+7 
           8450      1.22201e+7 
           8470      1.16888e+7 
           8490      1.23446e+7 
           8510      1.13404e+7 
           8530      1.24388e+7 
           8550      1.07681e+7 
           8570      1.26266e+7 
           8590      1.15278e+7 
           8610      1.11511e+7 
           8630      1.28568e+7 
           8650      1.23105e+7 
           8670       9.9198e+6 
           8690      1.26908e+7 
           8710      1.31178e+7 
           8730      1.25822e+7 
           8750      9.60885e+6 
           8770      1.19083e+7 
           8790      1.29332e+7 
           8810       1.2993e+7 
           8830      1.27076e+7 
           8850      1.13063e+7 
           8870      9.34487e+6 
           8890      1.20504e+7 
           8910      1.25184e+7 
           8930      1.25347e+7 
           8950      1.24547e+7 
           8970      1.22719e+7 
           8990      1.17438e+7 
           9010      9.22378e+6 
           9030      1.02063e+7 
           9050      1.16875e+7 
           9070      1.18782e+7 
           9090      1.18543e+7 
           9110      1.18041e+7 
           9130      1.17249e+7 
           9150      1.16269e+7 
           9170      1.14996e+7 
           9190      1.12707e+7 
