# Kurucz ODFNEW /NOVER (2003)
# teff = 25000 K (value for the effective temperature for the model. Temperatures are given in K)
# logg = 4.5 log(cm/s2) (value for Log(G) for the model.)
# meta = -2.5  (value for the Metallicity for the model.)
# lh = 1.25  (l/Hp where l is the  mixing length of the convective element and Hp is the pressure scale height)
# vtur = 2 km/s (Microturbulence velocity)
# alpha = 0.4  (Alpha)
#
# column 1: WAVELENGTH (ANGSTROM), Wavelength in Angstrom
# column 2: FLUX (ERG/CM2/S/A), Flux in erg/cm2/s/A
          147.2     3.64023e-14 
            151     1.79566e-13 
          155.2     9.57173e-13 
          158.8     3.74467e-12 
            162     1.19616e-11 
            166     4.79306e-11 
          170.3     1.97977e-10 
          173.4     5.26499e-10 
          176.8       1.4782e-9 
          180.2      3.98784e-9 
          181.7      6.10414e-9 
          186.1      2.04294e-8 
            191      7.32929e-8 
          193.9      1.51264e-7 
          198.4      4.45777e-7 
          201.8      9.75607e-7 
            205      1.98929e-6 
          210.5      6.41992e-6 
          216.2      2.02403e-5 
          219.8      4.04747e-5 
            223      7.34724e-5 
          226.8     0.000145746 
            230     0.000728605 
            234      0.00160252 
            240      0.00397136 
          246.5       0.0100894 
          252.4         0.02273 
          256.8       0.0393049 
            260        0.060377 
            264       0.0986201 
          268.5        0.167994 
          273.5        0.297089 
          278.5        0.515049 
            284        0.921038 
            290         1.69022 
            296         3.01887 
            301         4.80345 
            308         8.80229 
            318         20.8627 
            328         45.8271 
            338         95.8509 
            348          191.55 
            357         344.542 
            366         601.531 
            375         1018.25 
            385         1772.95 
            395         2991.38 
            405         4907.99 
            414         7496.74 
            422         10733.2 
            430         15131.1 
            441         23783.7 
            451         35094.6 
            460         48989.1 
            470         69804.9 
            480         97794.3 
            490          134938 
            500          183437 
            506      1.06467e+6 
            512       3.3979e+6 
            520      4.09916e+6 
            530      5.48839e+6 
            540      5.84538e+6 
            550       7.7889e+6 
            560      9.02793e+6 
            570      1.06071e+7 
            580      1.07204e+7 
            590      1.35432e+7 
            600      1.60403e+7 
            610      1.83515e+7 
            620      2.06809e+7 
            630      2.34296e+7 
            640      2.60004e+7 
            650      2.93947e+7 
            658      3.21326e+7 
            665      3.45546e+7 
            675      3.78222e+7 
            685      4.15167e+7 
            695      4.66262e+7 
            705      5.08013e+7 
            716      5.60866e+7 
            726      6.10678e+7 
            735      6.63695e+7 
            745      7.21523e+7 
            755       7.8125e+7 
            765      8.42133e+7 
            775      9.09168e+7 
            785      9.77305e+7 
            795      1.04586e+8 
            805      1.12009e+8 
            815       1.1948e+8 
            825       1.2745e+8 
            835      1.33763e+8 
            845      1.43664e+8 
            855      1.51841e+8 
            865      1.61094e+8 
            875      1.70256e+8 
            885      1.79662e+8 
            895      1.89111e+8 
            905      1.97117e+8 
            915       2.8522e+8 
            925      1.63777e+9 
            935       4.7747e+9 
            945     1.56066e+10 
            955     2.33496e+10 
            965     3.15413e+10 
            975     1.26236e+10 
            985      3.7253e+10 
            995     3.60064e+10 
           1005     3.71909e+10 
           1015     3.23909e+10 
           1025       9.2251e+9 
           1035     2.89676e+10 
           1045      3.5033e+10 
           1055      3.4416e+10 
           1065      3.2283e+10 
           1075     3.24943e+10 
           1085      3.0146e+10 
           1095     3.14605e+10 
           1105      3.0055e+10 
           1115     2.94372e+10 
           1125     2.78856e+10 
           1135     2.82901e+10 
           1145     2.69973e+10 
           1155     2.69693e+10 
           1165     2.64191e+10 
           1175      2.3622e+10 
           1185     2.50085e+10 
           1195     2.33104e+10 
           1205     1.97733e+10 
           1215      6.36336e+9 
           1225     1.88994e+10 
           1235     2.18713e+10 
           1245     2.16127e+10 
           1255     2.13309e+10 
           1265     2.07516e+10 
           1275     2.06039e+10 
           1285     2.01414e+10 
           1295     1.87942e+10 
           1305     1.87209e+10 
           1315     1.88403e+10 
           1325     1.82394e+10 
           1335     1.76387e+10 
           1345     1.75807e+10 
           1355     1.73191e+10 
           1365     1.68489e+10 
           1375     1.65525e+10 
           1385     1.62413e+10 
           1395     1.54782e+10 
           1405     1.52862e+10 
           1415     1.52037e+10 
           1425     1.49399e+10 
           1435     1.46588e+10 
           1442     1.44864e+10 
           1447     1.43359e+10 
           1455     1.41045e+10 
           1465     1.38169e+10 
           1475     1.35516e+10 
           1485     1.32836e+10 
           1495     1.30259e+10 
           1505     1.26816e+10 
           1512     1.25585e+10 
           1517     1.24547e+10 
           1525     1.22525e+10 
           1535     1.19025e+10 
           1545     1.16995e+10 
           1555     1.14443e+10 
           1565     1.13562e+10 
           1575     1.11748e+10 
           1585     1.09704e+10 
           1595      1.0782e+10 
           1605     1.05112e+10 
           1615     1.03183e+10 
           1625     1.01917e+10 
           1635     1.00198e+10 
           1645      9.69895e+9 
           1655       9.6814e+9 
           1665      9.52089e+9 
           1672      9.38056e+9 
           1677      9.34064e+9 
           1685      9.20665e+9 
           1695      9.03526e+9 
           1705      8.86998e+9 
           1715      8.69742e+9 
           1725      8.55585e+9 
           1735       8.4306e+9 
           1745      8.28501e+9 
           1755       8.1609e+9 
           1765      7.95972e+9 
           1775      7.86276e+9 
           1785      7.74818e+9 
           1795      7.64046e+9 
           1805       7.5232e+9 
           1815      7.38815e+9 
           1825      7.27517e+9 
           1835      7.15816e+9 
           1845      6.99235e+9 
           1855      6.80966e+9 
           1865      6.73433e+9 
           1875      6.70298e+9 
           1885       6.5343e+9 
           1895      6.37257e+9 
           1905      6.36999e+9 
           1915      6.20153e+9 
           1925      6.10626e+9 
           1935      6.05377e+9 
           1945      5.99965e+9 
           1955      5.83483e+9 
           1967        5.803e+9 
           1976      5.75016e+9 
           1984      5.64445e+9 
           1995       5.5058e+9 
           2005       5.4945e+9 
           2015      5.42943e+9 
           2025       5.3594e+9 
           2035      5.26574e+9 
           2045      5.18887e+9 
           2055      5.06249e+9 
           2065      4.98831e+9 
           2074      4.97585e+9 
           2078      4.89207e+9 
           2085      4.88544e+9 
           2095      4.80115e+9 
           2105      4.76644e+9 
           2115      4.70951e+9 
           2125      4.65044e+9 
           2135      4.58343e+9 
           2145      4.51549e+9 
           2155       4.4581e+9 
           2165      4.39821e+9 
           2175      4.33659e+9 
           2185      4.27876e+9 
           2195      4.22235e+9 
           2205        4.165e+9 
           2215       4.1092e+9 
           2225       4.0534e+9 
           2235      3.99873e+9 
           2245      3.94719e+9 
           2255      3.89337e+9 
           2265      3.84365e+9 
           2275      3.79312e+9 
           2285      3.74397e+9 
           2295      3.67172e+9 
           2305      3.64638e+9 
           2315      3.59885e+9 
           2325      3.55283e+9 
           2335      3.50547e+9 
           2345      3.46139e+9 
           2355      3.41881e+9 
           2365      3.37487e+9 
           2375      3.33195e+9 
           2385      3.28917e+9 
           2395      3.24829e+9 
           2405      3.20798e+9 
           2415      3.16713e+9 
           2425      3.12934e+9 
           2435      3.08984e+9 
           2445      3.05195e+9 
           2455      3.01495e+9 
           2465      2.97776e+9 
           2475      2.94139e+9 
           2485      2.90556e+9 
           2495      2.83959e+9 
           2505      2.83516e+9 
           2513      2.80246e+9 
           2518      2.79033e+9 
           2525      2.76749e+9 
           2535       2.7345e+9 
           2545      2.69695e+9 
           2555      2.66936e+9 
           2565      2.63782e+9 
           2575      2.60771e+9 
           2585       2.5772e+9 
           2595      2.54703e+9 
           2605        2.536e+9 
           2615      2.50651e+9 
           2625      2.47722e+9 
           2635      2.44527e+9 
           2645      2.41615e+9 
           2655      2.38473e+9 
           2665      2.35223e+9 
           2675      2.32241e+9 
           2685      2.31162e+9 
           2695      2.26685e+9 
           2705      2.25924e+9 
           2715      2.23368e+9 
           2725      2.18916e+9 
           2735       2.1834e+9 
           2745      2.15832e+9 
           2755       2.1345e+9 
           2765      2.09178e+9 
           2775      2.08804e+9 
           2785      2.06481e+9 
           2795      2.02918e+9 
           2805       2.0156e+9 
           2815       1.9976e+9 
           2825      1.95237e+9 
           2835      1.94073e+9 
           2845      1.93302e+9 
           2855      1.91202e+9 
           2865      1.89144e+9 
           2875      1.87111e+9 
           2885      1.85105e+9 
           2895      1.83123e+9 
           2910      1.80194e+9 
           2930      1.76378e+9 
           2950      1.71302e+9 
           2970      1.69101e+9 
           2990      1.65582e+9 
           3010      1.62175e+9 
           3030      1.58863e+9 
           3050      1.55628e+9 
           3070      1.52476e+9 
           3090      1.49353e+9 
           3110       1.4641e+9 
           3130      1.43652e+9 
           3150      1.40805e+9 
           3170      1.37988e+9 
           3190      1.34035e+9 
           3210      1.32607e+9 
           3230      1.30002e+9 
           3250      1.27466e+9 
           3270      1.25178e+9 
           3290        1.226e+9 
           3310      1.20462e+9 
           3330      1.18187e+9 
           3350       1.1574e+9 
           3370      1.13799e+9 
           3390      1.11684e+9 
           3410      1.09619e+9 
           3430      1.07102e+9 
           3450       1.0474e+9 
           3470      1.03152e+9 
           3490      1.01277e+9 
           3510      9.96827e+8 
           3530      9.81028e+8 
           3550      9.63817e+8 
           3570      9.52517e+8 
           3590      9.28984e+8 
           3610      9.15626e+8 
           3630      8.96787e+8 
           3640      8.95762e+8 
           3650      8.86194e+8 
           3670      8.74828e+8 
           3690      8.58259e+8 
           3710      8.28503e+8 
           3730       7.9335e+8 
           3750      8.13227e+8 
           3770      8.07775e+8 
           3790      8.54874e+8 
           3810      8.95388e+8 
           3830      7.74112e+8 
           3850      9.26263e+8 
           3870      9.42421e+8 
           3890      7.29529e+8 
           3910      9.27698e+8 
           3930      9.21231e+8 
           3950      8.98766e+8 
           3970        6.786e+8 
           3990      8.60012e+8 
           4010      8.60779e+8 
           4030      8.04008e+8 
           4050      8.42941e+8 
           4070      8.23897e+8 
           4090      7.44018e+8 
           4110      6.42858e+8 
           4130      7.70448e+8 
           4150      7.65708e+8 
           4170      7.60981e+8 
           4190      7.50493e+8 
           4210      7.38087e+8 
           4230      7.25776e+8 
           4250      7.13601e+8 
           4270      7.01147e+8 
           4290      6.88483e+8 
           4310      6.72192e+8 
           4330      5.96553e+8 
           4350      5.41467e+8 
           4370      6.37644e+8 
           4390      6.12944e+8 
           4410      6.25025e+8 
           4430      6.12656e+8 
           4450      6.05792e+8 
           4470      5.64164e+8 
           4490      5.86133e+8 
           4510      5.77964e+8 
           4530      5.68906e+8 
           4550      5.59967e+8 
           4570      5.51234e+8 
           4590      5.42757e+8 
           4610      5.34442e+8 
           4630      5.26267e+8 
           4650      5.17865e+8 
           4670      5.10277e+8 
           4690      5.02406e+8 
           4710      4.87926e+8 
           4730      4.87496e+8 
           4750      4.80127e+8 
           4770      4.73095e+8 
           4790      4.66017e+8 
           4810      4.57688e+8 
           4830      4.47623e+8 
           4850      4.05806e+8 
           4870      3.60227e+8 
           4890      4.25883e+8 
           4910      4.24061e+8 
           4930      4.07406e+8 
           4950       4.1416e+8 
           4970      4.08302e+8 
           4990      4.02448e+8 
           5010      3.91182e+8 
           5030       3.9104e+8 
           5050      3.82867e+8 
           5070      3.80087e+8 
           5090      3.74736e+8 
           5110      3.69485e+8 
           5130       3.6432e+8 
           5150      3.59251e+8 
           5170      3.54264e+8 
           5190      3.49371e+8 
           5210      3.44543e+8 
           5230      3.39833e+8 
           5250      3.35199e+8 
           5270      3.30625e+8 
           5290      3.26137e+8 
           5310      3.21734e+8 
           5330      3.17388e+8 
           5350      3.13124e+8 
           5370      3.08941e+8 
           5390      3.04811e+8 
           5410       3.0076e+8 
           5430      2.96759e+8 
           5450      2.92848e+8 
           5470      2.88998e+8 
           5490      2.85208e+8 
           5510      2.81467e+8 
           5530      2.77808e+8 
           5550      2.74195e+8 
           5570      2.70639e+8 
           5590      2.67151e+8 
           5610      2.63717e+8 
           5630      2.60337e+8 
           5650      2.56999e+8 
           5670      2.53724e+8 
           5690      2.50501e+8 
           5710      2.47339e+8 
           5730      2.44227e+8 
           5750      2.41141e+8 
           5770      2.38126e+8 
           5790      2.35157e+8 
           5810      2.32224e+8 
           5830      2.29348e+8 
           5850      2.26506e+8 
           5870      2.15923e+8 
           5890      2.20507e+8 
           5910      2.18252e+8 
           5930      2.15582e+8 
           5950      2.12954e+8 
           5970      2.10378e+8 
           5990      2.07831e+8 
           6010      2.05323e+8 
           6030      2.02855e+8 
           6050      2.00425e+8 
           6070      1.98022e+8 
           6090      1.95668e+8 
           6110      1.93339e+8 
           6130      1.91057e+8 
           6150        1.888e+8 
           6170      1.86579e+8 
           6190      1.84382e+8 
           6210      1.82229e+8 
           6230        1.801e+8 
           6250      1.78004e+8 
           6270      1.75941e+8 
           6290       1.7391e+8 
           6310      1.71901e+8 
           6330      1.69923e+8 
           6350      1.67967e+8 
           6370       1.6605e+8 
           6390      1.64164e+8 
           6410      1.62297e+8 
           6430       1.6046e+8 
           6450      1.58642e+8 
           6470      1.56853e+8 
           6490      1.55092e+8 
           6510      1.53074e+8 
           6530      1.50574e+8 
           6550      1.42499e+8 
           6570      1.25853e+8 
           6590      1.44479e+8 
           6610      1.44511e+8 
           6630        1.434e+8 
           6650      1.41951e+8 
           6670      1.38705e+8 
           6690      1.37229e+8 
           6710      1.37357e+8 
           6730       1.3586e+8 
           6750      1.34395e+8 
           6770      1.32936e+8 
           6790        1.315e+8 
           6810      1.30095e+8 
           6830      1.28697e+8 
           6850       1.2732e+8 
           6870      1.25965e+8 
           6890      1.24624e+8 
           6910      1.23304e+8 
           6930      1.22005e+8 
           6950      1.20719e+8 
           6970      1.19445e+8 
           6990      1.18192e+8 
           7010      1.16959e+8 
           7030      1.15738e+8 
           7050      1.14537e+8 
           7070      1.11357e+8 
           7090      1.12176e+8 
           7110      1.11017e+8 
           7130      1.09876e+8 
           7150      1.08747e+8 
           7170      1.07613e+8 
           7190      1.06534e+8 
           7210      1.05451e+8 
           7230      1.04343e+8 
           7250      1.03323e+8 
           7270      1.02278e+8 
           7290      1.00342e+8 
           7310       1.0021e+8 
           7330      9.92222e+7 
           7350      9.82296e+7 
           7370      9.72464e+7 
           7390      9.62793e+7 
           7410       9.5328e+7 
           7430      9.43787e+7 
           7450      9.34654e+7 
           7470      9.25403e+7 
           7490      9.16304e+7 
           7510      9.06954e+7 
           7530      8.98422e+7 
           7550      8.89703e+7 
           7570      8.80998e+7 
           7590      8.72438e+7 
           7610       8.6402e+7 
           7630      8.55678e+7 
           7650      8.47412e+7 
           7670      8.39284e+7 
           7690      8.31229e+7 
           7710      8.23247e+7 
           7730      8.15398e+7 
           7750       8.0762e+7 
           7770      7.99911e+7 
           7790      7.92394e+7 
           7810      7.84388e+7 
           7830      7.77498e+7 
           7850      7.71035e+7 
           7870      7.63776e+7 
           7890      7.56096e+7 
           7910      7.49568e+7 
           7930      7.42617e+7 
           7950       7.3513e+7 
           7970      7.26938e+7 
           7990      7.20352e+7 
           8010       7.1353e+7 
           8030      7.06884e+7 
           8050      7.00411e+7 
           8070      6.94167e+7 
           8090       6.8694e+7 
           8110      6.81723e+7 
           8130      6.75922e+7 
           8150      6.69035e+7 
           8170      6.63901e+7 
           8190      6.57068e+7 
           8210      6.50406e+7 
           8230      6.46414e+7 
           8250      6.40848e+7 
           8270      6.31803e+7 
           8290      6.28978e+7 
           8310      6.23663e+7 
           8330      6.17794e+7 
           8350      6.09056e+7 
           8370       6.0588e+7 
           8390      6.01497e+7 
           8410      5.96189e+7 
           8430      5.90395e+7 
           8450      5.80903e+7 
           8470      5.79791e+7 
           8490      5.73299e+7 
           8510      5.68423e+7 
           8530      5.63223e+7 
           8550      5.54046e+7 
           8570      5.58696e+7 
