# Kurucz ODFNEW /NOVER (2003)
# teff = 31000 K (value for the effective temperature for the model. Temperatures are given in K)
# logg = 5 log(cm/s2) (value for Log(G) for the model.)
# meta = -2.5  (value for the Metallicity for the model.)
# lh = 1.25  (l/Hp where l is the  mixing length of the convective element and Hp is the pressure scale height)
# vtur = 2 km/s (Microturbulence velocity)
# alpha = 0  (Alpha)
#
# column 1: WAVELENGTH (ANGSTROM), Wavelength in Angstrom
# column 2: FLUX (ERG/CM2/S/A), Flux in erg/cm2/s/A
          147.2      4.02082e-7 
            151       1.3013e-6 
          155.2      4.44436e-6 
          158.8        1.209e-5 
            162      2.83279e-5 
            166      7.83249e-5 
          170.3      0.00022141 
          173.4     0.000452638 
          176.8       0.0009631 
          180.2      0.00198945 
          181.7      0.00271534 
          186.1      0.00656849 
            191       0.0167117 
          193.9        0.028376 
          198.4       0.0624654 
          201.8        0.110688 
            205          0.1862 
          210.5        0.438197 
          216.2         1.01415 
          219.8         1.68075 
            223         2.59617 
          226.8          4.2801 
            230         111.651 
            234         375.986 
            240         691.848 
          246.5         1264.01 
          252.4         2126.76 
          256.8         2611.09 
            260         3891.68 
            264         5215.38 
          268.5         7323.24 
          273.5         10474.1 
          278.5         14779.3 
            284         21395.6 
            290           31321 
            296         44915.5 
            301         58184.5 
            308         79778.6 
            318          153659 
            328          252828 
            338          405933 
            348          630900 
            357          914592 
            366      1.30954e+6 
            375      1.81712e+6 
            385      2.59879e+6 
            395      3.61723e+6 
            405      4.94474e+6 
            414      6.47181e+6 
            422       8.0984e+6 
            430      1.00333e+7 
            441      1.33402e+7 
            451      1.70415e+7 
            460      2.09195e+7 
            470      2.61647e+7 
            480      3.22444e+7 
            490       3.9344e+7 
            500      4.76005e+7 
            506      2.31994e+8 
            512      8.84167e+8 
            520      9.16899e+8 
            530      1.03537e+9 
            540      9.74367e+8 
            550      1.12009e+9 
            560      1.16011e+9 
            570      1.21669e+9 
            580      1.16726e+9 
            590       1.2948e+9 
            600      1.34032e+9 
            610      1.40284e+9 
            620      1.45125e+9 
            630      1.51489e+9 
            640      1.55042e+9 
            650      1.62667e+9 
            658      1.66984e+9 
            665      1.71078e+9 
            675      1.75538e+9 
            685      1.78375e+9 
            695       1.9032e+9 
            705       1.9313e+9 
            716       2.0213e+9 
            726      2.08215e+9 
            735      2.15811e+9 
            745      2.22206e+9 
            755      2.28473e+9 
            765      2.34435e+9 
            775      2.41834e+9 
            785      2.49107e+9 
            795      2.54866e+9 
            805      2.61561e+9 
            815      2.67557e+9 
            825      2.74467e+9 
            835      2.72995e+9 
            845       2.8641e+9 
            855      2.92138e+9 
            865      2.98609e+9 
            875      3.04862e+9 
            885      3.10787e+9 
            895       3.1648e+9 
            905      3.20532e+9 
            915      3.52469e+9 
            925     1.29852e+10 
            935     2.62475e+10 
            945     5.62758e+10 
            955     7.00937e+10 
            965     9.26061e+10 
            975     4.73178e+10 
            985     9.90879e+10 
            995     9.14288e+10 
           1005     9.73131e+10 
           1015     8.95213e+10 
           1025     3.90382e+10 
           1035     8.21667e+10 
           1045     8.88675e+10 
           1055     8.70757e+10 
           1065      8.2874e+10 
           1075     8.14371e+10 
           1085     7.43042e+10 
           1095      7.8392e+10 
           1105     7.53073e+10 
           1115     7.35595e+10 
           1125     7.03377e+10 
           1135     7.05425e+10 
           1145     6.83502e+10 
           1155      6.6799e+10 
           1165     6.52408e+10 
           1175     5.82466e+10 
           1185     6.15092e+10 
           1195     5.93207e+10 
           1205     5.41838e+10 
           1215     2.55126e+10 
           1225     5.12063e+10 
           1235     5.41126e+10 
           1245     5.27267e+10 
           1255     5.21816e+10 
           1265     5.10091e+10 
           1275     4.98389e+10 
           1285     4.86761e+10 
           1295     4.65637e+10 
           1305     4.57953e+10 
           1315     4.53389e+10 
           1325      4.4125e+10 
           1335     4.25828e+10 
           1345     4.22414e+10 
           1355     4.13227e+10 
           1365     4.03414e+10 
           1375     3.94538e+10 
           1385     3.85719e+10 
           1395     3.69717e+10 
           1405     3.62736e+10 
           1415     3.60242e+10 
           1425     3.51939e+10 
           1435     3.44984e+10 
           1442     3.40066e+10 
           1447     3.36281e+10 
           1455     3.30351e+10 
           1465     3.23276e+10 
           1475      3.1631e+10 
           1485     3.09775e+10 
           1495     3.03133e+10 
           1505     2.96357e+10 
           1512     2.92202e+10 
           1517      2.8915e+10 
           1525     2.84148e+10 
           1535     2.76604e+10 
           1545     2.67938e+10 
           1555     2.62804e+10 
           1565      2.6061e+10 
           1575     2.56005e+10 
           1585      2.5121e+10 
           1595     2.46219e+10 
           1605     2.40031e+10 
           1615     2.35161e+10 
           1625     2.30963e+10 
           1635     2.24525e+10 
           1645     2.13631e+10 
           1655     2.18498e+10 
           1665     2.14455e+10 
           1672     2.11302e+10 
           1677      2.1003e+10 
           1685     2.06674e+10 
           1695     2.02695e+10 
           1705     1.98692e+10 
           1715     1.94345e+10 
           1725     1.90857e+10 
           1735      1.8805e+10 
           1745     1.84478e+10 
           1755     1.81049e+10 
           1765     1.77528e+10 
           1775     1.74493e+10 
           1785     1.71491e+10 
           1795      1.6844e+10 
           1805     1.65515e+10 
           1815     1.62449e+10 
           1825     1.59588e+10 
           1835     1.56813e+10 
           1845     1.53657e+10 
           1855     1.50089e+10 
           1865     1.47909e+10 
           1875     1.46004e+10 
           1885     1.43006e+10 
           1895     1.39864e+10 
           1905     1.38441e+10 
           1915     1.35273e+10 
           1925     1.32926e+10 
           1935     1.31193e+10 
           1945      1.2942e+10 
           1955     1.26542e+10 
           1967      1.2472e+10 
           1976     1.23094e+10 
           1984     1.21156e+10 
           1995     1.18508e+10 
           2005     1.17254e+10 
           2015     1.15462e+10 
           2025     1.13672e+10 
           2035     1.11721e+10 
           2045     1.09928e+10 
           2055     1.02349e+10 
           2065     1.00035e+10 
           2074       9.9256e+9 
           2078      9.82199e+9 
           2085      9.84281e+9 
           2095      9.87096e+9 
           2105      9.95254e+9 
           2115      9.85275e+9 
           2125      9.70935e+9 
           2135      9.55745e+9 
           2145      9.41204e+9 
           2155      9.27703e+9 
           2165      9.11598e+9 
           2175      9.00527e+9 
           2185      8.83781e+9 
           2195      8.73714e+9 
           2205      8.60693e+9 
           2215      8.44109e+9 
           2225      8.35244e+9 
           2235      8.22809e+9 
           2245      8.10712e+9 
           2255      7.94869e+9 
           2265      7.87132e+9 
           2275      7.75714e+9 
           2285      7.64394e+9 
           2295      7.46446e+9 
           2305      7.38636e+9 
           2315      7.31846e+9 
           2325      7.21383e+9 
           2335      7.11072e+9 
           2345      7.01115e+9 
           2355      6.91166e+9 
           2365      6.81494e+9 
           2375      6.71893e+9 
           2385      6.59197e+9 
           2395      6.53258e+9 
           2405       6.4428e+9 
           2415      6.35364e+9 
           2425      6.26656e+9 
           2435      6.18025e+9 
           2445      6.09608e+9 
           2455      6.01346e+9 
           2465      5.93203e+9 
           2475      5.85184e+9 
           2485      5.77318e+9 
           2495      5.61231e+9 
           2505      5.61712e+9 
           2513      5.49634e+9 
           2518      5.52088e+9 
           2525      5.47152e+9 
           2535      5.39936e+9 
           2545       5.3266e+9 
           2555       5.2578e+9 
           2565      5.19003e+9 
           2575      5.12253e+9 
           2585      5.05625e+9 
           2595      4.99095e+9 
           2605      4.95009e+9 
           2615      4.88641e+9 
           2625      4.82378e+9 
           2635      4.76103e+9 
           2645      4.69844e+9 
           2655        4.635e+9 
           2665      4.56952e+9 
           2675      4.50393e+9 
           2685      4.46877e+9 
           2695      4.38515e+9 
           2705      4.35783e+9 
           2715      4.30366e+9 
           2725      4.21876e+9 
           2735      4.18223e+9 
           2745      4.14616e+9 
           2755      4.09547e+9 
           2765      4.01179e+9 
           2775      3.99624e+9 
           2785      3.94768e+9 
           2795      3.89681e+9 
           2805      3.85218e+9 
           2815      3.80655e+9 
           2825      3.72234e+9 
           2835      3.69346e+9 
           2845      3.67173e+9 
           2855      3.62807e+9 
           2865      3.58512e+9 
           2875      3.54286e+9 
           2885      3.50123e+9 
           2895      3.46018e+9 
           2910      3.39973e+9 
           2930      3.32118e+9 
           2950      3.21942e+9 
           2970      3.17095e+9 
           2990      3.09897e+9 
           3010       3.0291e+9 
           3030      2.96143e+9 
           3050       2.8955e+9 
           3070      2.83144e+9 
           3090      2.76866e+9 
           3110      2.70855e+9 
           3130      2.65171e+9 
           3150      2.59434e+9 
           3170      2.53853e+9 
           3190      2.46101e+9 
           3210      2.42696e+9 
           3230       2.3784e+9 
           3250        2.328e+9 
           3270       2.2815e+9 
           3290      2.23119e+9 
           3310      2.18791e+9 
           3330      2.14292e+9 
           3350      2.09549e+9 
           3370      2.05636e+9 
           3390      2.01476e+9 
           3410      1.97422e+9 
           3430      1.92744e+9 
           3450      1.88268e+9 
           3470      1.85044e+9 
           3490      1.81407e+9 
           3510      1.78012e+9 
           3530      1.74674e+9 
           3550       1.7136e+9 
           3570      1.69147e+9 
           3590      1.64555e+9 
           3610      1.62144e+9 
           3630      1.58369e+9 
           3640      1.58191e+9 
           3650       1.5611e+9 
           3670      1.53764e+9 
           3690      1.50998e+9 
           3710      1.46202e+9 
           3730      1.41863e+9 
           3750        1.394e+9 
           3770      1.34914e+9 
           3790       1.3839e+9 
           3810      1.43048e+9 
           3830      1.25915e+9 
           3850      1.45759e+9 
           3870       1.4823e+9 
           3890      1.17811e+9 
           3910      1.45067e+9 
           3930      1.44529e+9 
           3950      1.40382e+9 
           3970      1.09128e+9 
           3990      1.34131e+9 
           4010      1.34474e+9 
           4030      1.25982e+9 
           4050       1.3138e+9 
           4070      1.28307e+9 
           4090      1.16155e+9 
           4110      1.01822e+9 
           4130      1.19919e+9 
           4150      1.19068e+9 
           4170      1.18249e+9 
           4190      1.16419e+9 
           4210      1.14364e+9 
           4230      1.12464e+9 
           4250      1.10513e+9 
           4270      1.08544e+9 
           4290      1.06425e+9 
           4310      1.03803e+9 
           4330      9.26246e+8 
           4350      8.48226e+8 
           4370      9.82516e+8 
           4390      9.47312e+8 
           4410      9.62623e+8 
           4430      9.44487e+8 
           4450      9.31926e+8 
           4470      8.69436e+8 
           4490      9.00558e+8 
           4510      8.87514e+8 
           4530      8.73085e+8 
           4550      8.58221e+8 
           4570      8.45043e+8 
           4590      8.31454e+8 
           4610      8.18211e+8 
           4630        8.052e+8 
           4650      7.91894e+8 
           4670      7.79857e+8 
           4690      7.64126e+8 
           4710         7.46e+8 
           4730      7.43797e+8 
           4750      7.32203e+8 
           4770      7.20943e+8 
           4790       7.0955e+8 
           4810       6.9653e+8 
           4830      6.80567e+8 
           4850      6.19584e+8 
           4870      5.56066e+8 
           4890      6.46276e+8 
           4910      6.43397e+8 
           4930      6.18595e+8 
           4950      6.28044e+8 
           4970       6.1882e+8 
           4990      6.09634e+8 
           5010      5.92964e+8 
           5030      5.91757e+8 
           5050      5.79796e+8 
           5070      5.74571e+8 
           5090      5.66212e+8 
           5110      5.57994e+8 
           5130      5.49915e+8 
           5150      5.42002e+8 
           5170      5.34222e+8 
           5190      5.26574e+8 
           5210      5.19084e+8 
           5230      5.11705e+8 
           5250      5.04465e+8 
           5270      4.97361e+8 
           5290      4.90377e+8 
           5310       4.8351e+8 
           5330      4.76758e+8 
           5350      4.70134e+8 
           5370       4.6362e+8 
           5390      4.57217e+8 
           5410      4.50573e+8 
           5430      4.44756e+8 
           5450      4.38669e+8 
           5470      4.32697e+8 
           5490      4.26825e+8 
           5510      4.21064e+8 
           5530      4.15388e+8 
           5550      4.09807e+8 
           5570      4.04319e+8 
           5590      3.98923e+8 
           5610      3.93618e+8 
           5630      3.88402e+8 
           5650      3.83273e+8 
           5670      3.78231e+8 
           5690      3.73237e+8 
           5710      3.68386e+8 
           5730      3.63593e+8 
           5750      3.58846e+8 
           5770      3.54224e+8 
           5790      3.49657e+8 
           5810      3.45156e+8 
           5830       3.4073e+8 
           5850      3.36379e+8 
           5870      3.21003e+8 
           5890      3.26982e+8 
           5910      3.23727e+8 
           5930       3.1964e+8 
           5950      3.15622e+8 
           5970      3.11671e+8 
           5990      3.07777e+8 
           6010      3.03948e+8 
           6030      3.00174e+8 
           6050      2.96453e+8 
           6070      2.92796e+8 
           6090        2.892e+8 
           6110      2.85654e+8 
           6130      2.82159e+8 
           6150      2.78723e+8 
           6170      2.75336e+8 
           6190      2.72006e+8 
           6210      2.68723e+8 
           6230      2.65487e+8 
           6250      2.62295e+8 
           6270      2.59158e+8 
           6290      2.56066e+8 
           6310      2.53016e+8 
           6330      2.50019e+8 
           6350      2.47064e+8 
           6370       2.4415e+8 
           6390      2.41277e+8 
           6410      2.38454e+8 
           6430       2.3566e+8 
           6450      2.32915e+8 
           6470      2.30209e+8 
           6490       2.2754e+8 
           6510      2.24437e+8 
           6530      2.20697e+8 
           6550      2.09059e+8 
           6570      1.86336e+8 
           6590      2.11578e+8 
           6610      2.11533e+8 
           6630      2.09838e+8 
           6650      2.07649e+8 
           6670      2.02866e+8 
           6690      2.00628e+8 
           6710      2.00714e+8 
           6730      1.98467e+8 
           6750      1.96251e+8 
           6770      1.94074e+8 
           6790      1.91911e+8 
           6810      1.89794e+8 
           6830      1.87699e+8 
           6850      1.85633e+8 
           6870      1.83596e+8 
           6890      1.81587e+8 
           6910      1.79599e+8 
           6930      1.77646e+8 
           6950       1.7572e+8 
           6970      1.73813e+8 
           6990      1.71941e+8 
           7010      1.70088e+8 
           7030       1.6826e+8 
           7050      1.66458e+8 
           7070      1.62035e+8 
           7090      1.62928e+8 
           7110      1.61201e+8 
           7130       1.5949e+8 
           7150      1.57803e+8 
           7170      1.56132e+8 
           7190        1.545e+8 
           7210      1.52883e+8 
           7230       1.5126e+8 
           7250      1.49703e+8 
           7270      1.48146e+8 
           7290      1.45399e+8 
           7310      1.45077e+8 
           7330      1.43599e+8 
           7350      1.42121e+8 
           7370      1.40657e+8 
           7390      1.39221e+8 
           7410      1.37798e+8 
           7430      1.36389e+8 
           7450      1.35019e+8 
           7470      1.33649e+8 
           7490      1.32298e+8 
           7510      1.30927e+8 
           7530      1.29647e+8 
           7550      1.28347e+8 
           7570      1.27058e+8 
           7590      1.25794e+8 
           7610      1.24535e+8 
           7630      1.23301e+8 
           7650      1.22078e+8 
           7670      1.20872e+8 
           7690      1.19684e+8 
           7710      1.18506e+8 
           7730      1.17338e+8 
           7750      1.16188e+8 
           7770      1.15054e+8 
           7790      1.13936e+8 
           7810      1.12779e+8 
           7830      1.11737e+8 
           7850      1.10752e+8 
           7870      1.09679e+8 
           7890      1.08585e+8 
           7910      1.07585e+8 
           7930      1.06552e+8 
           7950      1.05534e+8 
           7970      1.04453e+8 
           7990      1.03536e+8 
           8010      1.02514e+8 
           8030      1.01478e+8 
           8050      1.00492e+8 
           8070      9.95666e+7 
           8090      9.84648e+7 
           8110      9.76762e+7 
           8130      9.67858e+7 
           8150      9.58293e+7 
           8170      9.50108e+7 
           8190      9.40193e+7 
           8210      9.30588e+7 
           8230       9.2379e+7 
           8250      9.15553e+7 
           8270      9.03914e+7 
           8290      8.98626e+7 
           8310       8.9076e+7 
           8330      8.82144e+7 
           8350      8.70737e+7 
           8370       8.6529e+7 
           8390      8.58547e+7 
           8410      8.50793e+7 
           8430      8.42679e+7 
           8450        8.302e+7 
           8470      8.27702e+7 
           8490      8.18685e+7 
           8510      8.12657e+7 
           8530      8.03465e+7 
           8550         7.96e+7 
           8570       7.9229e+7 
           8590      7.72318e+7 
