# Kurucz ODFNEW /NOVER (2003)
# teff = 25000 K (value for the effective temperature for the model. Temperatures are given in K)
# logg = 4.5 log(cm/s2) (value for Log(G) for the model.)
# meta = 0  (value for the Metallicity for the model.)
# lh = 1.25  (l/Hp where l is the  mixing length of the convective element and Hp is the pressure scale height)
# vtur = 2 km/s (Microturbulence velocity)
# alpha = 0  (Alpha)
#
# column 1: WAVELENGTH (ANGSTROM), Wavelength in Angstrom
# column 2: FLUX (ERG/CM2/S/A), Flux in erg/cm2/s/A
          147.2     6.15937e-14 
            151      2.5286e-13 
          155.2     1.11708e-12 
          158.8     3.76738e-12 
            162     1.06552e-11 
            166     3.71001e-11 
          170.3     1.33353e-10 
          173.4     3.24587e-10 
          176.8     8.31744e-10 
          180.2      2.06127e-9 
          181.7      3.04477e-9 
          186.1      9.26584e-9 
            191      3.02811e-8 
          193.9      5.94415e-8 
          198.4      1.63277e-7 
          201.8      3.40722e-7 
            205      6.66916e-7 
          210.5      2.02409e-6 
          216.2      6.04468e-6 
          219.8      1.17326e-5 
            223      2.07982e-5 
          226.8      4.02391e-5 
            230      0.00280475 
            234      0.00637755 
            240       0.0147055 
          246.5         0.03484 
          252.4       0.0742746 
          256.8        0.121149 
            260        0.191235 
            264        0.297585 
          268.5        0.489372 
          273.5        0.829485 
          278.5         1.38812 
            284         2.48735 
            290         4.35111 
            296         7.47646 
            301         11.4456 
            308         20.6005 
            318         47.5438 
            328         96.9872 
            338         199.685 
            348         382.565 
            357         922.307 
            366         1627.64 
            375         2543.41 
            385          4245.5 
            395         7083.79 
            405           10991 
            414         16355.4 
            422         22447.1 
            430         31417.9 
            441         47534.5 
            451         67351.6 
            460         90297.6 
            470          126604 
            480          172504 
            490          234511 
            500          311932 
            506       1.6356e+6 
            512      1.07786e+7 
            520      1.24787e+7 
            530      1.50826e+7 
            540      1.64115e+7 
            550      2.26822e+7 
            560      2.62545e+7 
            570      3.15425e+7 
            580      3.10264e+7 
            590      3.98288e+7 
            600      4.46236e+7 
            610       5.2003e+7 
            620      5.67348e+7 
            630      6.08851e+7 
            640      5.79764e+7 
            650      4.86413e+7 
            658      6.81067e+7 
            665      8.15988e+7 
            675      8.87118e+7 
            685      9.33664e+7 
            695      1.16437e+8 
            705      1.20676e+8 
            716      1.35625e+8 
            726      1.42472e+8 
            735        1.489e+8 
            745      1.67579e+8 
            755      1.79507e+8 
            765      1.93082e+8 
            775      2.07287e+8 
            785      2.22097e+8 
            795      2.31089e+8 
            805       2.4183e+8 
            815      2.51036e+8 
            825      2.72075e+8 
            835      2.56877e+8 
            845      2.86726e+8 
            855      2.96519e+8 
            865         3.16e+8 
            875      3.36457e+8 
            885      3.61374e+8 
            895      3.78035e+8 
            905      3.77983e+8 
            915      4.92586e+8 
            925      2.48618e+9 
            935      6.43981e+9 
            945     1.59749e+10 
            955     2.30216e+10 
            965     2.92326e+10 
            975      4.85424e+9 
            985     2.77958e+10 
            995     2.64918e+10 
           1005      3.0972e+10 
           1015     2.96593e+10 
           1025     1.09294e+10 
           1035     2.25195e+10 
           1045     3.63991e+10 
           1055     3.36564e+10 
           1065     2.68587e+10 
           1075     3.11372e+10 
           1085     2.75837e+10 
           1095     3.10938e+10 
           1105     2.79299e+10 
           1115     2.68823e+10 
           1125     2.19818e+10 
           1135      2.8038e+10 
           1145      2.4801e+10 
           1155     2.57981e+10 
           1165     2.55143e+10 
           1175     1.56488e+10 
           1185     2.41905e+10 
           1195     2.16745e+10 
           1205     1.44769e+10 
           1215      8.47359e+9 
           1225     1.83423e+10 
           1235     2.25871e+10 
           1245      2.2199e+10 
           1255     2.17308e+10 
           1265     2.19026e+10 
           1275     2.25242e+10 
           1285     2.22619e+10 
           1295     1.58503e+10 
           1305     1.66623e+10 
           1315     2.12638e+10 
           1325     1.96851e+10 
           1335     1.87707e+10 
           1345     1.91813e+10 
           1355     1.89247e+10 
           1365     1.71989e+10 
           1375     1.67412e+10 
           1385     1.64555e+10 
           1395     1.25206e+10 
           1405      1.3406e+10 
           1415     1.44586e+10 
           1425     1.42271e+10 
           1435     1.45955e+10 
           1442     1.49694e+10 
           1447     1.46603e+10 
           1455     1.42212e+10 
           1465     1.30736e+10 
           1475     1.32565e+10 
           1485     1.29903e+10 
           1495     1.27594e+10 
           1505     1.14989e+10 
           1512     1.02628e+10 
           1517     1.05895e+10 
           1525     1.09663e+10 
           1535      9.33979e+9 
           1545      9.17367e+9 
           1555      8.85991e+9 
           1565      9.51197e+9 
           1575     1.00686e+10 
           1585     1.00322e+10 
           1595      9.94962e+9 
           1605     1.00455e+10 
           1615      9.80091e+9 
           1625      9.62073e+9 
           1635     1.01301e+10 
           1645     1.00393e+10 
           1655      9.87644e+9 
           1665     1.00801e+10 
           1672      9.62676e+9 
           1677     1.03267e+10 
           1685     1.00407e+10 
           1695      9.49027e+9 
           1705      9.13746e+9 
           1715      8.66335e+9 
           1725      8.49217e+9 
           1735      8.82645e+9 
           1745      8.59357e+9 
           1755      8.65932e+9 
           1765      8.40741e+9 
           1775      7.97695e+9 
           1785      8.08303e+9 
           1795      8.32949e+9 
           1805      8.36164e+9 
           1815      7.47301e+9 
           1825      7.76811e+9 
           1835      7.47803e+9 
           1845      6.80554e+9 
           1855      6.82433e+9 
           1865      6.91998e+9 
           1875      7.25142e+9 
           1885      6.44015e+9 
           1895      5.97927e+9 
           1905      6.47785e+9 
           1915      6.08154e+9 
           1925      5.78317e+9 
           1935      6.11927e+9 
           1945      6.24682e+9 
           1955      5.63346e+9 
           1967      6.10494e+9 
           1976      6.37152e+9 
           1984      5.86592e+9 
           1995      5.75976e+9 
           2005      5.95472e+9 
           2015      5.86274e+9 
           2025      6.05073e+9 
           2035      5.50117e+9 
           2045       5.5947e+9 
           2055      5.40434e+9 
           2065      5.42456e+9 
           2074      5.66591e+9 
           2078      5.13208e+9 
           2085      5.37966e+9 
           2095       5.0802e+9 
           2105      5.26117e+9 
           2115       5.2566e+9 
           2125      5.31086e+9 
           2135      5.19668e+9 
           2145      4.92202e+9 
           2155      5.12216e+9 
           2165       5.0887e+9 
           2175      5.01271e+9 
           2185      4.85401e+9 
           2195      4.90864e+9 
           2205      4.86344e+9 
           2215      4.78177e+9 
           2225      4.65069e+9 
           2235      4.59401e+9 
           2245      4.61902e+9 
           2255      4.46546e+9 
           2265      4.51644e+9 
           2275      4.44538e+9 
           2285      4.44025e+9 
           2295       4.1332e+9 
           2305      4.28291e+9 
           2315      4.15489e+9 
           2325      4.10612e+9 
           2335      3.97636e+9 
           2345      3.98116e+9 
           2355      3.97649e+9 
           2365      3.91761e+9 
           2375      3.84589e+9 
           2385      3.81159e+9 
           2395      3.78186e+9 
           2405      3.69726e+9 
           2415      3.66767e+9 
           2425      3.66612e+9 
           2435      3.55563e+9 
           2445      3.55837e+9 
           2455      3.55563e+9 
           2465       3.4866e+9 
           2475      3.43727e+9 
           2485      3.39062e+9 
           2495      3.10611e+9 
           2505      3.29972e+9 
           2513      3.14309e+9 
           2518      3.25908e+9 
           2525      3.20765e+9 
           2535      3.16129e+9 
           2545      3.06722e+9 
           2555       3.1046e+9 
           2565       3.0592e+9 
           2575      3.06082e+9 
           2585       3.0249e+9 
           2595      2.99408e+9 
           2605      2.96675e+9 
           2615      2.92923e+9 
           2625        2.904e+9 
           2635      2.87619e+9 
           2645      2.85147e+9 
           2655       2.8342e+9 
           2665      2.73648e+9 
           2675      2.74064e+9 
           2685      2.72978e+9 
           2695      2.63746e+9 
           2705      2.60754e+9 
           2715      2.59711e+9 
           2725       2.5726e+9 
           2735      2.56581e+9 
           2745      2.48611e+9 
           2755      2.48179e+9 
           2765      2.45323e+9 
           2775      2.46997e+9 
           2785      2.42987e+9 
           2795      2.34201e+9 
           2805      2.36226e+9 
           2815      2.36386e+9 
           2825      2.31916e+9 
           2835      2.23772e+9 
           2845      2.27173e+9 
           2855      2.23939e+9 
           2865      2.23429e+9 
           2875      2.20802e+9 
           2885      2.18355e+9 
           2895      2.15415e+9 
           2910      2.11381e+9 
           2930      2.07583e+9 
           2950      2.01332e+9 
           2970      1.98946e+9 
           2990      1.94144e+9 
           3010      1.88537e+9 
           3030      1.87103e+9 
           3050      1.83471e+9 
           3070      1.80145e+9 
           3090      1.73993e+9 
           3110      1.72397e+9 
           3130      1.68624e+9 
           3150      1.65567e+9 
           3170      1.61445e+9 
           3190      1.57524e+9 
           3210      1.55867e+9 
           3230      1.52394e+9 
           3250      1.49807e+9 
           3270      1.46719e+9 
           3290      1.43733e+9 
           3310      1.41255e+9 
           3330      1.38347e+9 
           3350       1.3567e+9 
           3370      1.33129e+9 
           3390      1.30877e+9 
           3410      1.28449e+9 
           3430      1.25431e+9 
           3450      1.22655e+9 
           3470      1.20629e+9 
           3490      1.18301e+9 
           3510      1.16345e+9 
           3530       1.1467e+9 
           3550      1.12584e+9 
           3570      1.11205e+9 
           3590      1.07888e+9 
           3610      1.06213e+9 
           3630      1.04477e+9 
           3640      1.04478e+9 
           3650      1.02286e+9 
           3670      1.01115e+9 
           3690      9.92615e+8 
           3710      9.56077e+8 
           3730      9.17203e+8 
           3750      9.34128e+8 
           3770      9.22467e+8 
           3790      9.69251e+8 
           3810      1.00919e+9 
           3830      8.79974e+8 
           3850      1.03377e+9 
           3870      1.04009e+9 
           3890      8.28939e+8 
           3910       1.0342e+9 
           3930      1.00902e+9 
           3950      9.95903e+8 
           3970      7.70745e+8 
           3990      9.55117e+8 
           4010      9.58428e+8 
           4030      8.96144e+8 
           4050      9.31965e+8 
           4070      8.92785e+8 
           4090      8.20093e+8 
           4110      7.22209e+8 
           4130      8.45498e+8 
           4150      8.43143e+8 
           4170      8.39408e+8 
           4190      8.30148e+8 
           4210      8.21663e+8 
           4230      8.04057e+8 
           4250      7.84411e+8 
           4270      7.61439e+8 
           4290      7.55215e+8 
           4310      7.32566e+8 
           4330      6.59848e+8 
           4350      6.02568e+8 
           4370      6.94222e+8 
           4390      6.80483e+8 
           4410       6.8523e+8 
           4430      6.77272e+8 
           4450      6.68306e+8 
           4470      6.27835e+8 
           4490      6.45127e+8 
           4510      6.41326e+8 
           4530      6.29727e+8 
           4550      6.20619e+8 
           4570      6.10274e+8 
           4590      6.00622e+8 
           4610      5.87622e+8 
           4630      5.78427e+8 
           4650      5.63966e+8 
           4670      5.62462e+8 
           4690      5.57196e+8 
           4710      5.35509e+8 
           4730      5.35856e+8 
           4750      5.27647e+8 
           4770       5.2641e+8 
           4790      5.17098e+8 
           4810      5.05544e+8 
           4830      4.94907e+8 
           4850      4.54029e+8 
           4870      4.04497e+8 
           4890      4.73163e+8 
           4910      4.70441e+8 
           4930      4.52015e+8 
           4950      4.57703e+8 
           4970      4.53584e+8 
           4990      4.46188e+8 
           5010      4.27669e+8 
           5030      4.32717e+8 
           5050      4.21689e+8 
           5070      4.21461e+8 
           5090      4.14971e+8 
           5110       4.0831e+8 
           5130      3.99592e+8 
           5150      3.94733e+8 
           5170      3.92052e+8 
           5190       3.8691e+8 
           5210      3.80003e+8 
           5230      3.76056e+8 
           5250      3.71091e+8 
           5270      3.65418e+8 
           5290      3.61085e+8 
           5310      3.55925e+8 
           5330      3.51004e+8 
           5350      3.45568e+8 
           5370      3.42045e+8 
           5390      3.37268e+8 
           5410      3.32952e+8 
           5430      3.27948e+8 
           5450      3.23567e+8 
           5470      3.19266e+8 
           5490      3.15282e+8 
           5510      3.11508e+8 
           5530      3.07017e+8 
           5550      3.03499e+8 
           5570      2.99332e+8 
           5590      2.95711e+8 
           5610      2.91596e+8 
           5630      2.88185e+8 
           5650      2.82962e+8 
           5670      2.78449e+8 
           5690      2.74692e+8 
           5710      2.72829e+8 
           5730      2.69654e+8 
           5750      2.65696e+8 
           5770      2.63303e+8 
           5790      2.59846e+8 
           5810      2.56621e+8 
           5830      2.53034e+8 
           5850       2.5014e+8 
           5870       2.3885e+8 
           5890      2.41607e+8 
           5910      2.40449e+8 
           5930      2.37234e+8 
           5950      2.34056e+8 
           5970      2.32406e+8 
           5990      2.28809e+8 
           6010      2.26632e+8 
           6030      2.23597e+8 
           6050      2.21061e+8 
           6070      2.18595e+8 
           6090      2.15952e+8 
           6110      2.13381e+8 
           6130      2.10948e+8 
           6150      2.07446e+8 
           6170       2.0555e+8 
           6190      2.03437e+8 
           6210      2.01122e+8 
           6230      1.98804e+8 
           6250      1.96058e+8 
           6270      1.93976e+8 
           6290       1.9184e+8 
           6310       1.8949e+8 
           6330      1.87477e+8 
           6350      1.84625e+8 
           6370      1.82911e+8 
           6390      1.80937e+8 
           6410      1.78893e+8 
           6430      1.77007e+8 
           6450      1.74897e+8 
           6470      1.72395e+8 
           6490       1.7061e+8 
           6510      1.68666e+8 
           6530      1.65911e+8 
           6550       1.5755e+8 
           6570      1.38578e+8 
           6590      1.58237e+8 
           6610      1.59074e+8 
           6630      1.57927e+8 
           6650      1.56255e+8 
           6670      1.52804e+8 
           6690       1.5121e+8 
           6710      1.51272e+8 
           6730      1.49385e+8 
           6750      1.48029e+8 
           6770      1.46433e+8 
           6790      1.43757e+8 
           6810       1.4306e+8 
           6830      1.41562e+8 
           6850      1.40158e+8 
           6870      1.38657e+8 
           6890      1.37099e+8 
           6910      1.35581e+8 
           6930      1.34219e+8 
           6950      1.32855e+8 
           6970      1.31457e+8 
           6990      1.30043e+8 
           7010      1.28666e+8 
           7030      1.27317e+8 
           7050      1.25952e+8 
           7070      1.22451e+8 
           7090      1.23373e+8 
           7110      1.21592e+8 
           7130      1.20362e+8 
           7150       1.1952e+8 
           7170      1.18319e+8 
           7190      1.17145e+8 
           7210      1.15945e+8 
           7230      1.13106e+8 
           7250      1.13465e+8 
           7270      1.12414e+8 
           7290      1.10295e+8 
           7310      1.10129e+8 
           7330       1.0901e+8 
           7350      1.07944e+8 
           7370      1.06859e+8 
           7390      1.05792e+8 
           7410      1.04735e+8 
           7430      1.03632e+8 
           7450      1.02642e+8 
           7470      1.01371e+8 
           7490      1.00595e+8 
           7510      9.95726e+7 
           7530      9.85859e+7 
           7550      9.76876e+7 
           7570      9.67382e+7 
           7590      9.57778e+7 
           7610      9.47872e+7 
           7630      9.39091e+7 
           7650      9.30132e+7 
           7670      9.21125e+7 
           7690      9.12199e+7 
           7710      9.03353e+7 
           7730      8.94523e+7 
           7750      8.86212e+7 
           7770      8.73481e+7 
           7790      8.69312e+7 
           7810      8.60542e+7 
           7830      8.52895e+7 
           7850      8.44581e+7 
           7870      8.36279e+7 
           7890      8.26598e+7 
           7910      8.21279e+7 
           7930      8.13488e+7 
           7950      8.04631e+7 
           7970      7.96802e+7 
           7990      7.88333e+7 
           8010      7.82053e+7 
           8030      7.74657e+7 
           8050      7.67557e+7 
           8070      7.60633e+7 
           8090      7.52848e+7 
           8110      7.44958e+7 
           8130      7.40328e+7 
           8150      7.33069e+7 
           8170      7.27396e+7 
           8190      7.18793e+7 
           8210        7.106e+7 
           8230      7.04481e+7 
           8250       7.0035e+7 
           8270      6.88925e+7 
           8290      6.87249e+7 
           8310      6.81545e+7 
           8330       6.7529e+7 
           8350      6.65791e+7 
           8370       6.6186e+7 
           8390      6.57424e+7 
           8410      6.51424e+7 
           8430      6.45262e+7 
           8450        6.334e+7 
           8470      6.33668e+7 
           8490      6.26296e+7 
           8510      6.21119e+7 
           8530      6.15517e+7 
           8550      6.05787e+7 
           8570      6.09939e+7 
           8590       5.8816e+7 
