# Kurucz ODFNEW /NOVER (2003)
# teff = 29000 K (value for the effective temperature for the model. Temperatures are given in K)
# logg = 5 log(cm/s2) (value for Log(G) for the model.)
# meta = -4  (value for the Metallicity for the model.)
# lh = 1.25  (l/Hp where l is the  mixing length of the convective element and Hp is the pressure scale height)
# vtur = 2 km/s (Microturbulence velocity)
# alpha = 0.4  (Alpha)
#
# column 1: WAVELENGTH (ANGSTROM), Wavelength in Angstrom
# column 2: FLUX (ERG/CM2/S/A), Flux in erg/cm2/s/A
          147.2      2.63615e-9 
            151      1.00093e-8 
          155.2      4.04271e-8 
          158.8      1.25841e-7 
            162      3.30406e-7 
            166       1.0456e-6 
          170.3      3.38707e-6 
          173.4      7.60975e-6 
          176.8      1.78673e-5 
          180.2      4.05559e-5 
          181.7      5.76296e-5 
          186.1     0.000156062 
            191     0.000447054 
          193.9     0.000811622 
          198.4      0.00197397 
          201.8      0.00375737 
            205      0.00674473 
          210.5       0.0176384 
          216.2       0.0452092 
          219.8       0.0797485 
            223        0.129922 
          226.8        0.227532 
            230         1.32724 
            234         2.99472 
            240         6.11119 
          246.5          12.761 
          252.4          24.238 
          256.8         35.7488 
            260         52.0656 
            264         76.4529 
          268.5         115.978 
          273.5         181.192 
          278.5         278.915 
            284         439.818 
            290         707.768 
            296         1114.07 
            301         1591.64 
            308         2498.12 
            318         5068.06 
            328         9387.77 
            338         16711.2 
            348         28710.7 
            357         45388.2 
            366         70083.4 
            375          105656 
            385          162691 
            395          244352 
            405          358918 
            414          498486 
            422          658394 
            430          859428 
            441       1.2182e+6 
            451      1.64427e+6 
            460      2.12614e+6 
            470      2.79213e+6 
            480      3.61735e+6 
            490      4.63074e+6 
            500      5.85694e+6 
            506      3.00723e+7 
            512      1.12435e+8 
            520      1.23201e+8 
            530      1.52006e+8 
            540      1.49116e+8 
            550      1.78065e+8 
            560      1.91596e+8 
            570      2.06743e+8 
            580       2.0373e+8 
            590      2.35475e+8 
            600       2.5672e+8 
            610      2.75587e+8 
            620      2.94954e+8 
            630      3.15621e+8 
            640      3.36684e+8 
            650      3.59511e+8 
            658      3.78049e+8 
            665      3.94683e+8 
            675      4.18448e+8 
            685       4.4224e+8 
            695      4.70419e+8 
            705      4.95696e+8 
            716      5.26372e+8 
            726      5.54456e+8 
            735      5.81156e+8 
            745      6.10471e+8 
            755       6.4028e+8 
            765      6.70514e+8 
            775      7.01367e+8 
            785       7.3252e+8 
            795       7.6386e+8 
            805      7.95694e+8 
            815      8.27673e+8 
            825      8.59981e+8 
            835      8.85272e+8 
            845      9.25065e+8 
            855      9.57715e+8 
            865      9.90631e+8 
            875      1.02347e+9 
            885      1.05627e+9 
            895        1.089e+9 
            905      1.12082e+9 
            915      1.33003e+9 
            925      5.82998e+9 
            935     1.36075e+10 
            945     3.57284e+10 
            955     4.91304e+10 
            965     6.67026e+10 
            975     3.20548e+10 
            985     7.73475e+10 
            995     7.27869e+10 
           1005     7.67353e+10 
           1015     6.87326e+10 
           1025     2.30672e+10 
           1035     6.18255e+10 
           1045     6.87653e+10 
           1055     6.77184e+10 
           1065      6.5599e+10 
           1075       6.398e+10 
           1085     5.87931e+10 
           1095     6.09855e+10 
           1105      5.8992e+10 
           1115     5.76658e+10 
           1125     5.56242e+10 
           1135     5.48239e+10 
           1145     5.33503e+10 
           1155     5.19786e+10 
           1165     5.06321e+10 
           1175     4.70398e+10 
           1185     4.77999e+10 
           1195     4.59929e+10 
           1205     4.05626e+10 
           1215     1.52021e+10 
           1225      3.7474e+10 
           1235     4.14736e+10 
           1245     4.09486e+10 
           1255     4.02006e+10 
           1265     3.93368e+10 
           1275     3.84278e+10 
           1285     3.75081e+10 
           1295     3.61538e+10 
           1305     3.55687e+10 
           1315      3.4899e+10 
           1325     3.40738e+10 
           1335     3.29967e+10 
           1345     3.25099e+10 
           1355      3.1763e+10 
           1365     3.10345e+10 
           1375     3.03496e+10 
           1385     2.96792e+10 
           1395     2.87286e+10 
           1405     2.81608e+10 
           1415     2.77567e+10 
           1425     2.71421e+10 
           1435     2.65438e+10 
           1442       2.614e+10 
           1447     2.58571e+10 
           1455     2.54151e+10 
           1465     2.48675e+10 
           1475     2.43341e+10 
           1485     2.38229e+10 
           1495     2.33266e+10 
           1505     2.28397e+10 
           1512     2.25167e+10 
           1517      2.2285e+10 
           1525     2.19173e+10 
           1535     2.14552e+10 
           1545     2.09117e+10 
           1555     2.05002e+10 
           1565     2.01668e+10 
           1575     1.97642e+10 
           1585     1.93761e+10 
           1595     1.89992e+10 
           1605     1.86286e+10 
           1615     1.82658e+10 
           1625     1.79104e+10 
           1635     1.74496e+10 
           1645     1.66951e+10 
           1655     1.68915e+10 
           1665     1.65655e+10 
           1672     1.63422e+10 
           1677     1.61873e+10 
           1685     1.59411e+10 
           1695     1.56394e+10 
           1705     1.53503e+10 
           1715     1.50693e+10 
           1725     1.47938e+10 
           1735     1.45287e+10 
           1745     1.42661e+10 
           1755      1.4011e+10 
           1765      1.3756e+10 
           1775      1.3507e+10 
           1785     1.32638e+10 
           1795     1.30276e+10 
           1805     1.27969e+10 
           1815     1.25739e+10 
           1825     1.23551e+10 
           1835     1.21402e+10 
           1845     1.19293e+10 
           1855     1.17167e+10 
           1865     1.15221e+10 
           1875     1.13331e+10 
           1885     1.11411e+10 
           1895     1.09483e+10 
           1905     1.07703e+10 
           1915     1.05821e+10 
           1925     1.04053e+10 
           1935     1.02347e+10 
           1945      1.0068e+10 
           1955      9.89919e+9 
           1967      9.70983e+9 
           1976      9.57083e+9 
           1984      9.44796e+9 
           1995      9.28112e+9 
           2005       9.1391e+9 
           2015      8.99545e+9 
           2025      8.85436e+9 
           2035      8.71489e+9 
           2045       8.5787e+9 
           2055      8.24107e+9 
           2065      8.09687e+9 
           2074        7.994e+9 
           2078      7.94667e+9 
           2085      7.89202e+9 
           2095      7.84106e+9 
           2105       7.7999e+9 
           2115      7.70105e+9 
           2125      7.58552e+9 
           2135       7.4719e+9 
           2145      7.35908e+9 
           2155      7.25046e+9 
           2165      7.13895e+9 
           2175      7.03826e+9 
           2185      6.92798e+9 
           2195      6.83395e+9 
           2205      6.73437e+9 
           2215      6.62717e+9 
           2225      6.53889e+9 
           2235      6.44393e+9 
           2245        6.351e+9 
           2255      6.25042e+9 
           2265      6.17075e+9 
           2275      6.08306e+9 
           2285      5.99703e+9 
           2295      5.90261e+9 
           2305      5.82038e+9 
           2315      5.74863e+9 
           2325      5.66917e+9 
           2335      5.59108e+9 
           2345      5.51431e+9 
           2355      5.43885e+9 
           2365      5.36432e+9 
           2375      5.29073e+9 
           2385      5.20989e+9 
           2395      5.14802e+9 
           2405      5.07833e+9 
           2415      5.00975e+9 
           2425      4.94251e+9 
           2435      4.87639e+9 
           2445      4.81144e+9 
           2455      4.74763e+9 
           2465      4.68495e+9 
           2475      4.62349e+9 
           2485      4.56317e+9 
           2495      4.47032e+9 
           2505      4.44527e+9 
           2513      4.38241e+9 
           2518      4.37049e+9 
           2525      4.33099e+9 
           2535      4.27537e+9 
           2545      4.22055e+9 
           2555      4.16703e+9 
           2565      4.11428e+9 
           2575      4.06239e+9 
           2585      4.01123e+9 
           2595      3.96085e+9 
           2605      3.93388e+9 
           2615      3.88463e+9 
           2625      3.83595e+9 
           2635      3.78627e+9 
           2645      3.73777e+9 
           2655      3.68749e+9 
           2665      3.63525e+9 
           2675      3.58364e+9 
           2685      3.56055e+9 
           2695      3.49108e+9 
           2705      3.47422e+9 
           2715      3.43206e+9 
           2725      3.36156e+9 
           2735      3.34564e+9 
           2745      3.30961e+9 
           2755      3.27009e+9 
           2765      3.20105e+9 
           2775      3.19289e+9 
           2785      3.15519e+9 
           2795      3.11765e+9 
           2805      3.08119e+9 
           2815      3.04517e+9 
           2825      2.97399e+9 
           2835      2.95507e+9 
           2845      2.94001e+9 
           2855      2.90586e+9 
           2865      2.87225e+9 
           2875      2.83918e+9 
           2885      2.80659e+9 
           2895      2.77447e+9 
           2910      2.72716e+9 
           2930      2.66575e+9 
           2950      2.58336e+9 
           2970      2.54834e+9 
           2990      2.49208e+9 
           3010      2.43728e+9 
           3030      2.38404e+9 
           3050      2.33226e+9 
           3070      2.28195e+9 
           3090      2.23285e+9 
           3110      2.18522e+9 
           3130      2.14092e+9 
           3150      2.09571e+9 
           3170      2.05154e+9 
           3190       1.9881e+9 
           3210      1.96509e+9 
           3230      1.92483e+9 
           3250      1.88495e+9 
           3270      1.84854e+9 
           3290      1.80842e+9 
           3310      1.77459e+9 
           3330        1.739e+9 
           3350      1.70101e+9 
           3370       1.6704e+9 
           3390      1.63738e+9 
           3410      1.60517e+9 
           3430      1.56703e+9 
           3450      1.53078e+9 
           3470      1.50577e+9 
           3490      1.47684e+9 
           3510      1.45021e+9 
           3530      1.42397e+9 
           3550      1.39784e+9 
           3570      1.38115e+9 
           3590      1.34362e+9 
           3610      1.32493e+9 
           3630      1.29436e+9 
           3640      1.29394e+9 
           3650      1.27877e+9 
           3670      1.26068e+9 
           3690      1.23839e+9 
           3710      1.19784e+9 
           3730       1.1579e+9 
           3750       1.1422e+9 
           3770      1.10785e+9 
           3790       1.1476e+9 
           3810      1.19426e+9 
           3830      1.03941e+9 
           3850      1.22777e+9 
           3870      1.25478e+9 
           3890      9.72888e+8 
           3910        1.232e+9 
           3930      1.23145e+9 
           3950      1.19353e+9 
           3970      9.02521e+8 
           3990      1.13922e+9 
           4010      1.14682e+9 
           4030      1.06761e+9 
           4050      1.12331e+9 
           4070      1.09665e+9 
           4090      9.80891e+8 
           4110      8.50179e+8 
           4130      1.02285e+9 
           4150      1.01818e+9 
           4170      1.01245e+9 
           4190      9.98319e+8 
           4210      9.81098e+8 
           4230      9.64326e+8 
           4250      9.47846e+8 
           4270       9.3095e+8 
           4290      9.12444e+8 
           4310      8.88684e+8 
           4330      7.82538e+8 
           4350      7.11829e+8 
           4370      8.40914e+8 
           4390      8.08736e+8 
           4410      8.26406e+8 
           4430      8.10515e+8 
           4450      8.00278e+8 
           4470      7.41245e+8 
           4490       7.7345e+8 
           4510      7.62771e+8 
           4530      7.50507e+8 
           4550       7.3841e+8 
           4570      7.26694e+8 
           4590      7.15153e+8 
           4610      7.03856e+8 
           4630      6.92762e+8 
           4650      6.81885e+8 
           4670       6.7122e+8 
           4690      6.59462e+8 
           4710      6.41239e+8 
           4730      6.40441e+8 
           4750      6.30568e+8 
           4770      6.20903e+8 
           4790      6.10771e+8 
           4810      5.99628e+8 
           4830      5.85032e+8 
           4850      5.26676e+8 
           4870      4.68591e+8 
           4890      5.55135e+8 
           4910       5.5395e+8 
           4930      5.31159e+8 
           4950       5.4162e+8 
           4970      5.33731e+8 
           4990      5.25891e+8 
           5010      5.10759e+8 
           5030      5.10592e+8 
           5050      4.99923e+8 
           5070      4.95942e+8 
           5090      4.88795e+8 
           5110      4.81774e+8 
           5130      4.74875e+8 
           5150      4.68083e+8 
           5170      4.61424e+8 
           5190      4.54882e+8 
           5210      4.48468e+8 
           5230      4.42152e+8 
           5250      4.35947e+8 
           5270      4.29863e+8 
           5290      4.23873e+8 
           5310      4.17987e+8 
           5330      4.12217e+8 
           5350      4.06535e+8 
           5370      4.00965e+8 
           5390      3.95479e+8 
           5410      3.90025e+8 
           5430      3.84793e+8 
           5450       3.7959e+8 
           5470      3.74477e+8 
           5490      3.69441e+8 
           5510      3.64493e+8 
           5530      3.59619e+8 
           5550      3.54831e+8 
           5570      3.50126e+8 
           5590      3.45503e+8 
           5610      3.40949e+8 
           5630      3.36463e+8 
           5650      3.32067e+8 
           5670      3.27737e+8 
           5690       3.2347e+8 
           5710      3.19278e+8 
           5730       3.1516e+8 
           5750      3.11092e+8 
           5770      3.07106e+8 
           5790      3.03178e+8 
           5810      2.99309e+8 
           5830      2.95508e+8 
           5850      2.91762e+8 
           5870      2.77379e+8 
           5890      2.83621e+8 
           5910      2.80896e+8 
           5930      2.77376e+8 
           5950      2.73918e+8 
           5970      2.70522e+8 
           5990      2.67164e+8 
           6010      2.63866e+8 
           6030      2.60627e+8 
           6050      2.57424e+8 
           6070      2.54279e+8 
           6090      2.51179e+8 
           6110      2.48125e+8 
           6130      2.45115e+8 
           6150      2.42159e+8 
           6170      2.39245e+8 
           6190      2.36365e+8 
           6210      2.33536e+8 
           6230      2.30748e+8 
           6250       2.2801e+8 
           6270      2.25302e+8 
           6290      2.22634e+8 
           6310      2.20014e+8 
           6330      2.17422e+8 
           6350      2.14878e+8 
           6370      2.12361e+8 
           6390      2.09889e+8 
           6410      2.07454e+8 
           6430      2.05044e+8 
           6450      2.02679e+8 
           6470      2.00339e+8 
           6490      1.98033e+8 
           6510      1.95182e+8 
           6530      1.91815e+8 
           6550      1.80556e+8 
           6570      1.59455e+8 
           6590      1.83671e+8 
           6610      1.84062e+8 
           6630      1.82619e+8 
           6650      1.80874e+8 
           6670      1.76438e+8 
           6690      1.74543e+8 
           6710      1.74885e+8 
           6730      1.72948e+8 
           6750      1.71032e+8 
           6770      1.69144e+8 
           6790      1.67282e+8 
           6810      1.65448e+8 
           6830      1.63633e+8 
           6850      1.61852e+8 
           6870      1.60089e+8 
           6890      1.58351e+8 
           6910      1.56631e+8 
           6930      1.54944e+8 
           6950      1.53273e+8 
           6970      1.51627e+8 
           6990      1.50005e+8 
           7010      1.48399e+8 
           7030      1.46824e+8 
           7050      1.45265e+8 
           7070       1.4115e+8 
           7090      1.42206e+8 
           7110      1.40707e+8 
           7130      1.39229e+8 
           7150      1.37766e+8 
           7170      1.36317e+8 
           7190      1.34904e+8 
           7210      1.33504e+8 
           7230      1.32118e+8 
           7250      1.30752e+8 
           7270        1.294e+8 
           7290      1.26897e+8 
           7310       1.2674e+8 
           7330       1.2546e+8 
           7350      1.24178e+8 
           7370      1.22909e+8 
           7390      1.21665e+8 
           7410      1.20426e+8 
           7430      1.19212e+8 
           7450      1.18023e+8 
           7470      1.16838e+8 
           7490      1.15664e+8 
           7510      1.14468e+8 
           7530      1.13363e+8 
           7550      1.12234e+8 
           7570      1.11116e+8 
           7590      1.10014e+8 
           7610      1.08929e+8 
           7630      1.07854e+8 
           7650      1.06796e+8 
           7670      1.05746e+8 
           7690      1.04713e+8 
           7710      1.03689e+8 
           7730       1.0268e+8 
           7750       1.0168e+8 
           7770      1.00696e+8 
           7790       9.9726e+7 
           7810      9.87094e+7 
           7830      9.78125e+7 
           7850      9.69724e+7 
           7870      9.60422e+7 
           7890      9.50839e+7 
           7910      9.42183e+7 
           7930      9.33183e+7 
           7950      9.24381e+7 
           7970      9.14469e+7 
           7990      9.06238e+7 
           8010      8.96669e+7 
           8030      8.87943e+7 
           8050      8.79583e+7 
           8070       8.7141e+7 
           8090      8.62502e+7 
           8110      8.55447e+7 
           8130      8.47766e+7 
           8150      8.39527e+7 
           8170      8.32543e+7 
           8190      8.23821e+7 
           8210      8.15564e+7 
           8230      8.09992e+7 
           8250      8.02748e+7 
           8270       7.9215e+7 
           8290      7.87949e+7 
           8310       7.8116e+7 
           8330      7.73613e+7 
           8350      7.63212e+7 
           8370      7.58816e+7 
           8390      7.53062e+7 
           8410      7.46288e+7 
           8430        7.392e+7 
           8450      7.27685e+7 
           8470      7.26143e+7 
           8490      7.18022e+7 
           8510      7.12934e+7 
           8530      7.04935e+7 
           8550      6.97879e+7 
           8570      6.95651e+7 
           8590       6.7618e+7 
