# Kurucz ODFNEW /NOVER (2003)
# teff = 10000 K (value for the effective temperature for the model. Temperatures are given in K)
# logg = 4.5 log(cm/s2) (value for Log(G) for the model.)
# meta = 0  (value for the Metallicity for the model.)
# lh = 1.25  (l/Hp where l is the  mixing length of the convective element and Hp is the pressure scale height)
# vtur = 2 km/s (Microturbulence velocity)
# alpha = 0.4  (Alpha)
#
# column 1: WAVELENGTH (ANGSTROM), Wavelength in Angstrom
# column 2: FLUX (ERG/CM2/S/A), Flux in erg/cm2/s/A
          268.5     5.66043e-23 
          273.5     2.42112e-22 
          278.5     9.27662e-22 
            284      3.7963e-21 
            290     1.66402e-20 
            296     6.86718e-20 
            301      2.1569e-19 
            308     1.01144e-18 
            318     8.24249e-18 
            328     5.96484e-17 
            338     3.86411e-16 
            348     2.26528e-15 
            357     1.03038e-14 
            366     4.35828e-14 
            375      1.7226e-13 
            385     7.38209e-13 
            395     2.93754e-12 
            405     1.09756e-11 
            414     3.40757e-11 
            422      8.9558e-11 
            430     2.26649e-10 
            441     7.72535e-10 
            451      2.23555e-9 
            460      5.58898e-9 
            470      1.48284e-8 
            480      3.77727e-8 
            490      9.26776e-8 
            500       2.1903e-7 
            506      4.07178e-7 
            512      6.91336e-7 
            520      1.28454e-6 
            530      2.71985e-6 
            540      5.56425e-6 
            550      1.11721e-5 
            560      2.18169e-5 
            570      4.15689e-5 
            580      7.72004e-5 
            590      0.00014106 
            600     0.000252053 
            610     0.000441667 
            620     0.000758957 
            630       0.0012812 
            640      0.00212812 
            650      0.00347786 
            658      0.00509245 
            665      0.00705071 
            675       0.0110912 
            685       0.0172185 
            695        0.026365 
            705        0.039829 
            716       0.0618846 
            726       0.0912454 
            735        0.128139 
            745        0.184942 
            755        0.264168 
            765        0.373578 
            775        0.523329 
            785        0.726345 
            795         0.99883 
            805         1.36199 
            815         1.84257 
            825         2.47245 
            835         3.29178 
            845          4.3506 
            855         5.70898 
            865         7.44069 
            875         9.63246 
            885         12.3905 
            895         15.8391 
            905         20.1261 
            915         246.703 
            925         1822.17 
            935         3104.76 
            945         5127.26 
            955         7377.42 
            965         9701.98 
            975         8268.73 
            985         13207.7 
            995           14388 
           1005         17830.1 
           1015         20300.2 
           1025         15251.3 
           1035         25874.9 
           1045         30899.4 
           1055         35316.3 
           1065         38648.6 
           1075         45352.6 
           1085           51196 
           1095         55097.5 
           1105         86667.6 
           1115          682142 
           1125      1.23125e+6 
           1135      1.90198e+6 
           1145      1.73939e+6 
           1155      1.92786e+6 
           1165      1.85566e+6 
           1175      1.15694e+6 
           1185          710493 
           1195          199682 
           1205          215557 
           1215         51481.1 
           1225          221746 
           1235          469817 
           1245      1.00609e+6 
           1255      5.84986e+6 
           1265      7.86806e+6 
           1275      2.25812e+7 
           1285      4.04284e+7 
           1295        4.137e+7 
           1305      1.49099e+7 
           1315       4.5731e+7 
           1325       5.7397e+7 
           1335      5.56039e+7 
           1345      6.72252e+7 
           1355      6.11397e+7 
           1365      5.50023e+7 
           1375      6.05178e+7 
           1385      5.38004e+7 
           1395      5.84407e+7 
           1405      6.26481e+7 
           1415      6.45599e+7 
           1425      7.37012e+7 
           1435      6.27436e+7 
           1442      7.61335e+7 
           1447      8.20478e+7 
           1455      8.41198e+7 
           1465      7.61138e+7 
           1475       7.0997e+7 
           1485      7.50341e+7 
           1495      8.44252e+7 
           1505      8.43249e+7 
           1512      7.55768e+7 
           1517      8.47592e+7 
           1525      7.88651e+7 
           1535       8.4246e+7 
           1545      1.17655e+8 
           1555       8.2917e+7 
           1565       7.2075e+7 
           1575      1.06865e+8 
           1585       1.3066e+8 
           1595      1.42783e+8 
           1605      1.40798e+8 
           1615      1.38126e+8 
           1625       1.1674e+8 
           1635       1.1797e+8 
           1645      1.43479e+8 
           1655      1.12458e+8 
           1665      1.38435e+8 
           1672      9.90571e+7 
           1677      1.32487e+8 
           1685      1.48942e+8 
           1695      1.24402e+8 
           1705      1.24404e+8 
           1715      1.28752e+8 
           1725      1.27238e+8 
           1735      1.37314e+8 
           1745      1.33741e+8 
           1755       1.4877e+8 
           1765      1.21681e+8 
           1775       1.4234e+8 
           1785      1.41104e+8 
           1795      1.54853e+8 
           1805      1.42411e+8 
           1815      1.42459e+8 
           1825      1.35903e+8 
           1835      1.31058e+8 
           1845      1.19581e+8 
           1855      1.28948e+8 
           1865      1.30081e+8 
           1875       1.3473e+8 
           1885      1.34301e+8 
           1895      1.33328e+8 
           1905      1.23877e+8 
           1915      1.32787e+8 
           1925      1.33963e+8 
           1935      1.28336e+8 
           1945      1.36032e+8 
           1955      1.34289e+8 
           1967      1.38468e+8 
           1976      1.35522e+8 
           1984      1.31253e+8 
           1995      1.27746e+8 
           2005      1.25726e+8 
           2015      1.18246e+8 
           2025       1.1946e+8 
           2035      1.23593e+8 
           2045      1.27404e+8 
           2055      1.19709e+8 
           2065      1.19789e+8 
           2074      1.24558e+8 
           2078      1.28869e+8 
           2085      1.26333e+8 
           2095      1.22014e+8 
           2105      1.18051e+8 
           2115      1.17839e+8 
           2125      1.19269e+8 
           2135      1.02004e+8 
           2145      1.14459e+8 
           2155      1.14446e+8 
           2165      1.08617e+8 
           2175      1.07397e+8 
           2185      1.07821e+8 
           2195      1.13292e+8 
           2205      1.08237e+8 
           2215      9.91922e+7 
           2225      9.78688e+7 
           2235      1.08632e+8 
           2245      9.80015e+7 
           2255      9.53413e+7 
           2265      9.60508e+7 
           2275      1.02058e+8 
           2285      1.05084e+8 
           2295      9.81838e+7 
           2305      9.63552e+7 
           2315      9.34016e+7 
           2325      9.28926e+7 
           2335      8.77456e+7 
           2345      8.15113e+7 
           2355      9.18452e+7 
           2365      8.21457e+7 
           2375      8.67517e+7 
           2385      7.68132e+7 
           2395      8.42777e+7 
           2405      8.01002e+7 
           2415      8.20802e+7 
           2425      8.69332e+7 
           2435      8.24402e+7 
           2445       8.7962e+7 
           2455      8.44028e+7 
           2465      8.45936e+7 
           2475      8.07133e+7 
           2485      8.51774e+7 
           2495      8.21237e+7 
           2505      9.00665e+7 
           2513      8.11483e+7 
           2518      8.17889e+7 
           2525      7.65557e+7 
           2535      7.52201e+7 
           2545      7.50257e+7 
           2555       7.9593e+7 
           2565      7.96378e+7 
           2575      8.54351e+7 
           2585      8.58014e+7 
           2595      8.45764e+7 
           2605      8.08083e+7 
           2615       8.0197e+7 
           2625      8.44038e+7 
           2635      8.43504e+7 
           2645      9.24481e+7 
           2655      9.12827e+7 
           2665      8.36024e+7 
           2675      8.72904e+7 
           2685      8.70386e+7 
           2695      8.33906e+7 
           2705      8.51281e+7 
           2715       8.0991e+7 
           2725       8.1524e+7 
           2735      8.69574e+7 
           2745      7.54906e+7 
           2755      7.56832e+7 
           2765       7.7842e+7 
           2775       8.2497e+7 
           2785      7.89137e+7 
           2795      5.36061e+7 
           2805      6.25853e+7 
           2815      8.29979e+7 
           2825      8.44034e+7 
           2835      8.16154e+7 
           2845      7.84688e+7 
           2855      7.57801e+7 
           2865       8.0778e+7 
           2875      7.86355e+7 
           2885      8.01507e+7 
           2895      7.76201e+7 
           2910       8.4296e+7 
           2930      8.05469e+7 
           2950      8.05623e+7 
           2970      8.13815e+7 
           2990      8.13415e+7 
           3010      8.22683e+7 
           3030      8.11448e+7 
           3050      7.99586e+7 
           3070      7.86244e+7 
           3090      7.93538e+7 
           3110      7.74445e+7 
           3130      7.71694e+7 
           3150      7.75518e+7 
           3170       7.6895e+7 
           3190      7.39717e+7 
           3210      7.51185e+7 
           3230      7.32811e+7 
           3250      7.39156e+7 
           3270      7.38563e+7 
           3290      7.42314e+7 
           3310      7.41898e+7 
           3330      7.23603e+7 
           3350      7.11095e+7 
           3370      7.11006e+7 
           3390      7.04542e+7 
           3410      7.12533e+7 
           3430        7.095e+7 
           3450      7.01677e+7 
           3470      6.92767e+7 
           3490      6.88438e+7 
           3510      6.90339e+7 
           3530      6.88464e+7 
           3550      6.86618e+7 
           3570      6.73921e+7 
           3590      6.69268e+7 
           3610      6.65689e+7 
           3630      6.61204e+7 
           3640      6.56979e+7 
           3650      6.66392e+7 
           3670      6.62729e+7 
           3690       6.4422e+7 
           3710      6.33735e+7 
           3730       6.1767e+7 
           3750      7.31813e+7 
           3770      7.72098e+7 
           3790       9.5834e+7 
           3810      1.13602e+8 
           3830      8.95101e+7 
           3850      1.26043e+8 
           3870      1.46349e+8 
           3890      7.72151e+7 
           3910      1.45809e+8 
           3930      1.51105e+8 
           3950      1.45793e+8 
           3970      7.36373e+7 
           3990      1.38213e+8 
           4010      1.59631e+8 
           4030      1.59663e+8 
           4050      1.57768e+8 
           4070      1.48371e+8 
           4090      1.08284e+8 
           4110      8.13938e+7 
           4130      1.37306e+8 
           4150      1.47481e+8 
           4170       1.4631e+8 
           4190      1.45296e+8 
           4210      1.43953e+8 
           4230      1.40738e+8 
           4250      1.39081e+8 
           4270      1.35744e+8 
           4290      1.33247e+8 
           4310      1.22874e+8 
           4330      8.74345e+7 
           4350          7.4e+7 
           4370      1.18366e+8 
           4390      1.22622e+8 
           4410      1.23537e+8 
           4430      1.22161e+8 
           4450      1.22174e+8 
           4470      1.20574e+8 
           4490      1.17094e+8 
           4510      1.17936e+8 
           4530      1.15784e+8 
           4550      1.13413e+8 
           4570      1.13542e+8 
           4590      1.11429e+8 
           4610       1.1162e+8 
           4630      1.08756e+8 
           4650      1.08666e+8 
           4670      1.07094e+8 
           4690      1.04725e+8 
           4710       1.0117e+8 
           4730      1.02808e+8 
           4750      1.01425e+8 
           4770       1.0003e+8 
           4790      9.82622e+7 
           4810      9.53364e+7 
           4830      8.94859e+7 
           4850      6.63242e+7 
           4870      5.36227e+7 
           4890      8.33569e+7 
           4910      8.92002e+7 
           4930      8.90282e+7 
           4950       8.9225e+7 
           4970      8.86914e+7 
           4990      8.74039e+7 
           5010      8.52816e+7 
           5030      8.50559e+7 
           5050      8.32682e+7 
           5070      8.35359e+7 
           5090      8.25885e+7 
           5110      8.15768e+7 
           5130      8.05783e+7 
           5150      7.93855e+7 
           5170      7.74956e+7 
           5190      7.67218e+7 
           5210      7.66391e+7 
           5230      7.52222e+7 
           5250       7.5119e+7 
           5270      7.29832e+7 
           5290      7.34097e+7 
           5310      7.20401e+7 
           5330      7.07167e+7 
           5350      7.09616e+7 
           5370      7.00512e+7 
           5390      6.92536e+7 
           5410      6.80718e+7 
           5430      6.75637e+7 
           5450      6.70852e+7 
           5470      6.62593e+7 
           5490      6.55412e+7 
           5510       6.4859e+7 
           5530      6.40162e+7 
           5550      6.34897e+7 
           5570      6.27637e+7 
           5590      6.20586e+7 
           5610      6.14757e+7 
           5630      6.08531e+7 
           5650      6.00926e+7 
           5670      5.93987e+7 
           5690      5.88458e+7 
           5710      5.82193e+7 
           5730      5.76748e+7 
           5750      5.69609e+7 
           5770      5.64072e+7 
           5790      5.57732e+7 
           5810      5.52091e+7 
           5830      5.46381e+7 
           5850      5.40582e+7 
           5870       5.3416e+7 
           5890      5.25847e+7 
           5910       5.2361e+7 
           5930      5.18316e+7 
           5950      5.11518e+7 
           5970      5.07303e+7 
           5990      5.00698e+7 
           6010      4.96339e+7 
           6030      4.91777e+7 
           6050      4.86215e+7 
           6070      4.81984e+7 
           6090      4.77025e+7 
           6110      4.72041e+7 
           6130       4.6679e+7 
           6150      4.55452e+7 
           6170       4.5665e+7 
           6190      4.53547e+7 
           6210      4.48764e+7 
           6230      4.44063e+7 
           6250      4.37281e+7 
           6270      4.35617e+7 
           6290      4.31451e+7 
           6310      4.26592e+7 
           6330      4.22669e+7 
           6350      4.13358e+7 
           6370      4.11352e+7 
           6390      4.10202e+7 
           6410      4.05363e+7 
           6430      4.01433e+7 
           6450      3.93631e+7 
           6470       3.9239e+7 
           6490      3.86191e+7 
           6510      3.79013e+7 
           6530      3.62789e+7 
           6550      3.06503e+7 
           6570      2.48713e+7 
           6590      3.38186e+7 
           6610      3.58096e+7 
           6630      3.60781e+7 
           6650      3.59559e+7 
           6670         3.57e+7 
           6690      3.54263e+7 
           6710      3.51577e+7 
           6730      3.47743e+7 
           6750      3.44768e+7 
           6770      3.42265e+7 
           6790      3.38928e+7 
           6810      3.35917e+7 
           6830      3.32499e+7 
           6850      3.29653e+7 
           6870      3.26699e+7 
           6890      3.23757e+7 
           6910      3.20734e+7 
           6930      3.17693e+7 
           6950      3.14915e+7 
           6970      3.12017e+7 
           6990      3.09325e+7 
           7010      3.05032e+7 
           7030      3.03566e+7 
           7050        3.008e+7 
           7070      2.98264e+7 
           7090      2.95692e+7 
           7110      2.91199e+7 
           7130      2.90071e+7 
           7150      2.87058e+7 
           7170      2.85048e+7 
           7190      2.82561e+7 
           7210      2.80148e+7 
           7230      2.77584e+7 
           7250      2.74542e+7 
           7270       2.7287e+7 
           7290      2.70184e+7 
           7310      2.68002e+7 
           7330      2.65721e+7 
           7350      2.63545e+7 
           7370      2.61298e+7 
           7390      2.58913e+7 
           7410      2.56399e+7 
           7430      2.53239e+7 
           7450      2.51739e+7 
           7470      2.49063e+7 
           7490      2.47493e+7 
           7510      2.45682e+7 
           7530      2.43807e+7 
           7550      2.41843e+7 
           7570      2.39706e+7 
           7590      2.37751e+7 
           7610      2.35794e+7 
           7630      2.33744e+7 
           7650      2.31667e+7 
           7670      2.29634e+7 
           7690      2.27696e+7 
           7710      2.25902e+7 
           7730      2.24148e+7 
           7750       2.2224e+7 
           7770      2.15431e+7 
           7790       2.1866e+7 
           7810      2.16825e+7 
           7830      2.14932e+7 
           7850      2.12793e+7 
           7870      2.10222e+7 
           7890      2.07851e+7 
           7910       2.0771e+7 
           7930      2.06035e+7 
           7950      2.03092e+7 
           7970      2.03088e+7 
           7990      1.98479e+7 
           8010      1.99773e+7 
           8030       1.9809e+7 
           8050      1.96554e+7 
           8070      1.94951e+7 
           8090      1.93424e+7 
           8110      1.91807e+7 
           8130      1.90414e+7 
           8150       1.8893e+7 
           8170      1.87442e+7 
           8190      1.84905e+7 
           8210      1.83776e+7 
           8230      1.81821e+7 
           8250      1.81323e+7 
           8270      1.81345e+7 
           8290      1.79857e+7 
           8310       1.7861e+7 
           8330      1.76662e+7 
           8350      1.76033e+7 
           8370      1.74816e+7 
           8390      1.73385e+7 
           8410      1.71959e+7 
           8430      1.70354e+7 
           8450      1.66494e+7 
           8470      1.66501e+7 
           8490      1.66152e+7 
           8510      1.60856e+7 
           8530      1.64235e+7 
           8550      1.52676e+7 
           8570      1.63885e+7 
           8590      1.54428e+7 
           8610      1.51531e+7 
           8630      1.63172e+7 
           8650      1.55747e+7 
           8670      1.34155e+7 
           8690      1.57539e+7 
           8710      1.63898e+7 
           8730      1.55634e+7 
           8750      1.25607e+7 
           8770      1.47331e+7 
           8790      1.62552e+7 
           8810      1.64261e+7 
           8830      1.58328e+7 
           8850      1.38013e+7 
           8870      1.18755e+7 
           8890      1.48528e+7 
           8910      1.58383e+7 
           8930      1.60528e+7 
           8950      1.60855e+7 
           8970      1.56449e+7 
           8990      1.45037e+7 
           9010      1.14917e+7 
           9030      1.24411e+7 
           9050      1.45752e+7 
           9070      1.50445e+7 
           9090      1.50891e+7 
           9110      1.52681e+7 
           9130      1.52383e+7 
           9150       1.5107e+7 
           9170      1.48104e+7 
