# Kurucz ODFNEW /NOVER (2003)
# teff = 7500 K (value for the effective temperature for the model. Temperatures are given in K)
# logg = 1.5 log(cm/s2) (value for Log(G) for the model.)
# meta = -0.5  (value for the Metallicity for the model.)
# lh = 1.25  (l/Hp where l is the  mixing length of the convective element and Hp is the pressure scale height)
# vtur = 2 km/s (Microturbulence velocity)
# alpha = 0  (Alpha)
#
# column 1: WAVELENGTH (ANGSTROM), Wavelength in Angstrom
# column 2: FLUX (ERG/CM2/S/A), Flux in erg/cm2/s/A
            385     5.44895e-23 
            395     4.38844e-22 
            405     2.99799e-21 
            414      1.6176e-21 
            422     6.11981e-21 
            430     2.19701e-20 
            441     1.17582e-19 
            451     5.00748e-19 
            460     1.74248e-18 
            470     6.56301e-18 
            480     2.32971e-17 
            490     7.82894e-17 
            500     2.49561e-16 
            506     6.49487e-16 
            512     1.40842e-15 
            520     3.28008e-15 
            530     9.14182e-15 
            540      2.4052e-14 
            550     6.17649e-14 
            560     1.51965e-13 
            570     3.61227e-13 
            580     8.21805e-13 
            590      1.8541e-12 
            600     4.01709e-12 
            610     8.46836e-12 
            620     1.73811e-11 
            630     3.47931e-11 
            640     6.80366e-11 
            650     1.30094e-10 
            658     2.15093e-10 
            665     3.30178e-10 
            675     5.99162e-10 
            685      1.06638e-9 
            695      1.86358e-9 
            705      3.19507e-9 
            716      5.68523e-9 
            726      9.42903e-9 
            735      1.46738e-8 
            745      2.36541e-8 
            755      3.75966e-8 
            765      5.89545e-8 
            775       9.1243e-8 
            785      1.39492e-7 
            795      2.09708e-7 
            805      3.13976e-7 
            815      4.63969e-7 
            825      6.77656e-7 
            835      9.79721e-7 
            845      1.40245e-6 
            855      1.98835e-6 
            865      2.79325e-6 
            875      3.88467e-6 
            885      5.36842e-6 
            895      7.34999e-6 
            905      9.96072e-6 
            915       0.0129655 
            925       0.0419978 
            935       0.0548444 
            945       0.0744874 
            955        0.105589 
            965        0.139029 
            975        0.172932 
            985        0.230497 
            995        0.285516 
           1005        0.389663 
           1015        0.492823 
           1025        0.601261 
           1035        0.781822 
           1045        0.994205 
           1055         1.24399 
           1065         1.50818 
           1075         1.89492 
           1085         2.34497 
           1095         2.81108 
           1105         8.55723 
           1115         27.7687 
           1125         40.0148 
           1135         54.3121 
           1145          65.833 
           1155         69.0413 
           1165         86.0089 
           1175         89.1626 
           1185         107.037 
           1195         35.0447 
           1205         24.9857 
           1215         6.79668 
           1225         29.7768 
           1235         79.7215 
           1245         184.796 
           1255         394.208 
           1265         477.484 
           1275         827.744 
           1285         1315.41 
           1295         1796.12 
           1305         1607.08 
           1315         2709.31 
           1325         3513.17 
           1335         4022.38 
           1345         5423.25 
           1355         5876.37 
           1365         6681.64 
           1375         7644.88 
           1385         8844.05 
           1395         10499.3 
           1405         12039.2 
           1415         12593.8 
           1425         14697.2 
           1435         15046.7 
           1442         17751.6 
           1447         19529.1 
           1455         22592.8 
           1465         23222.8 
           1475         26050.1 
           1485         29583.5 
           1495         34367.1 
           1505         38301.2 
           1512         38588.4 
           1517           42725 
           1525         47273.7 
           1535          252541 
           1545          743082 
           1555          654206 
           1565          525419 
           1575          902343 
           1585      1.04703e+6 
           1595      1.38387e+6 
           1605      1.17048e+6 
           1615      1.15332e+6 
           1625      1.07263e+6 
           1635       1.3521e+6 
           1645      1.91565e+6 
           1655          978910 
           1665      1.79503e+6 
           1672          570703 
           1677      2.35187e+6 
           1685      3.37199e+6 
           1695      3.47406e+6 
           1705      3.15221e+6 
           1715      4.03663e+6 
           1725      4.27457e+6 
           1735      5.10849e+6 
           1745      4.65075e+6 
           1755      5.81467e+6 
           1765      4.46794e+6 
           1775      5.63129e+6 
           1785      5.09495e+6 
           1795      6.96687e+6 
           1805      5.81047e+6 
           1815      6.55492e+6 
           1825      5.54978e+6 
           1835      5.30877e+6 
           1845      4.84277e+6 
           1855      5.45088e+6 
           1865      5.96728e+6 
           1875      5.82986e+6 
           1885      6.07436e+6 
           1895      6.58931e+6 
           1905      5.94095e+6 
           1915      6.45815e+6 
           1925      6.53843e+6 
           1935      5.04429e+6 
           1945      7.10234e+6 
           1955      7.23381e+6 
           1967      7.82555e+6 
           1976      7.66653e+6 
           1984      7.40642e+6 
           1995      7.19852e+6 
           2005      6.85821e+6 
           2015      6.46389e+6 
           2025      6.07664e+6 
           2035      7.03038e+6 
           2045      7.76083e+6 
           2055      7.02311e+6 
           2065      6.67105e+6 
           2074      8.30736e+6 
           2078      8.69985e+6 
           2085      8.30824e+6 
           2095      7.86295e+6 
           2105       7.3004e+6 
           2115       7.4585e+6 
           2125      7.68872e+6 
           2135      5.89712e+6 
           2145      7.22414e+6 
           2155      7.41278e+6 
           2165      6.73145e+6 
           2175      6.75148e+6 
           2185      7.06875e+6 
           2195      7.87234e+6 
           2205      7.50999e+6 
           2215      6.43129e+6 
           2225       6.2692e+6 
           2235      7.80952e+6 
           2245      6.92513e+6 
           2255      6.20108e+6 
           2265      6.24036e+6 
           2275      7.12853e+6 
           2285      7.48231e+6 
           2295      6.80899e+6 
           2305      7.16442e+6 
           2315      6.82717e+6 
           2325      6.52681e+6 
           2335      4.99761e+6 
           2345      3.99678e+6 
           2355      6.23394e+6 
           2365      4.06034e+6 
           2375       5.3837e+6 
           2385      3.25393e+6 
           2395      4.25881e+6 
           2405      4.05894e+6 
           2415      4.82043e+6 
           2425      6.81564e+6 
           2435      6.64922e+6 
           2445      7.16022e+6 
           2455      7.05763e+6 
           2465      6.92484e+6 
           2475      6.48031e+6 
           2485       6.7455e+6 
           2495      6.47064e+6 
           2505      8.08809e+6 
           2513      6.47134e+6 
           2518      6.91507e+6 
           2525      5.92604e+6 
           2535      5.68445e+6 
           2545       5.8107e+6 
           2555      6.65045e+6 
           2565      6.15206e+6 
           2575      7.00492e+6 
           2585      6.62158e+6 
           2595      6.12421e+6 
           2605       5.5007e+6 
           2615      5.15857e+6 
           2625      6.51754e+6 
           2635      7.36126e+6 
           2645      9.82692e+6 
           2655      9.88664e+6 
           2665      8.33956e+6 
           2675      9.04124e+6 
           2685      8.92856e+6 
           2695      8.41168e+6 
           2705      8.80783e+6 
           2715      7.84458e+6 
           2725      8.00527e+6 
           2735      8.74157e+6 
           2745      5.76067e+6 
           2755      6.65106e+6 
           2765      7.36436e+6 
           2775      8.71544e+6 
           2785      7.64317e+6 
           2795      3.20875e+6 
           2805      4.13022e+6 
           2815      8.81086e+6 
           2825      9.94431e+6 
           2835      9.46742e+6 
           2845      9.10124e+6 
           2855      8.40301e+6 
           2865        9.675e+6 
           2875      9.34528e+6 
           2885      9.62732e+6 
           2895       9.0849e+6 
           2910      1.07577e+7 
           2930      1.02848e+7 
           2950      1.02125e+7 
           2970      1.07652e+7 
           2990      1.09562e+7 
           3010      1.12964e+7 
           3030      1.12265e+7 
           3050      1.12207e+7 
           3070      1.12912e+7 
           3090      1.17054e+7 
           3110      1.13057e+7 
           3130      1.12635e+7 
           3150      1.18063e+7 
           3170      1.18107e+7 
           3190      1.10878e+7 
           3210      1.16242e+7 
           3230      1.12095e+7 
           3250       1.1719e+7 
           3270       1.1921e+7 
           3290      1.21447e+7 
           3310      1.24111e+7 
           3330       1.2132e+7 
           3350      1.19875e+7 
           3370      1.19216e+7 
           3390      1.20744e+7 
           3410      1.24049e+7 
           3430      1.26181e+7 
           3450       1.2539e+7 
           3470       1.2357e+7 
           3490      1.22847e+7 
           3510      1.27044e+7 
           3530      1.28272e+7 
           3550      1.31136e+7 
           3570      1.26265e+7 
           3590      1.26423e+7 
           3610      1.27429e+7 
           3630      1.29333e+7 
           3640      1.27227e+7 
           3650      1.32238e+7 
           3670      1.30627e+7 
           3690       1.3992e+7 
           3710      1.81244e+7 
           3730      2.42015e+7 
           3750      3.59356e+7 
           3770      3.82563e+7 
           3790      4.72351e+7 
           3810      5.33999e+7 
           3830       4.1957e+7 
           3850      5.61796e+7 
           3870      6.00553e+7 
           3890      3.88577e+7 
           3910      5.77855e+7 
           3930      4.52737e+7 
           3950      5.68505e+7 
           3970      3.36742e+7 
           3990      5.72639e+7 
           4010      5.87301e+7 
           4030      5.76939e+7 
           4050      5.72633e+7 
           4070      5.57649e+7 
           4090      5.07528e+7 
           4110       3.9439e+7 
           4130      5.40968e+7 
           4150      5.49066e+7 
           4170      5.33976e+7 
           4190      5.29985e+7 
           4210      5.26151e+7 
           4230       5.1544e+7 
           4250      5.13207e+7 
           4270      5.00518e+7 
           4290      5.00365e+7 
           4310      4.72146e+7 
           4330      4.16938e+7 
           4350      3.58602e+7 
           4370      4.80793e+7 
           4390      4.71554e+7 
           4410      4.60158e+7 
           4430      4.62847e+7 
           4450      4.62367e+7 
           4470      4.57202e+7 
           4490      4.53045e+7 
           4510      4.57222e+7 
           4530      4.41389e+7 
           4550      4.30966e+7 
           4570      4.42445e+7 
           4590       4.2735e+7 
           4610      4.37211e+7 
           4630      4.23495e+7 
           4650      4.26411e+7 
           4670      4.21938e+7 
           4690      4.12472e+7 
           4710      3.98923e+7 
           4730      4.09297e+7 
           4750      4.08529e+7 
           4770       4.0117e+7 
           4790      3.96957e+7 
           4810      3.91562e+7 
           4830      3.83417e+7 
           4850      3.30724e+7 
           4870      2.66477e+7 
           4890      3.66928e+7 
           4910      3.70196e+7 
           4930      3.61866e+7 
           4950      3.64498e+7 
           4970      3.64987e+7 
           4990      3.54321e+7 
           5010      3.43243e+7 
           5030      3.48455e+7 
           5050      3.43662e+7 
           5070      3.44634e+7 
           5090      3.40303e+7 
           5110      3.37514e+7 
           5130       3.3035e+7 
           5150      3.25218e+7 
           5170      3.17182e+7 
           5190      3.14126e+7 
           5210       3.1437e+7 
           5230      3.09629e+7 
           5250      3.13343e+7 
           5270      2.99575e+7 
           5290      3.06738e+7 
           5310      3.00557e+7 
           5330      2.94632e+7 
           5350      2.99765e+7 
           5370      2.94988e+7 
           5390      2.91714e+7 
           5410      2.86974e+7 
           5430      2.84915e+7 
           5450      2.85466e+7 
           5470      2.82664e+7 
           5490      2.81121e+7 
           5510       2.7793e+7 
           5530      2.74334e+7 
           5550      2.74525e+7 
           5570      2.70687e+7 
           5590      2.67886e+7 
           5610      2.66207e+7 
           5630      2.64759e+7 
           5650      2.60881e+7 
           5670      2.58142e+7 
           5690      2.57377e+7 
           5710      2.55081e+7 
           5730      2.53842e+7 
           5750      2.50952e+7 
           5770      2.48977e+7 
           5790      2.46384e+7 
           5810      2.44378e+7 
           5830      2.42283e+7 
           5850      2.39936e+7 
           5870      2.37986e+7 
           5890      2.32974e+7 
           5910      2.33729e+7 
           5930      2.31641e+7 
           5950      2.29469e+7 
           5970      2.27755e+7 
           5990       2.2504e+7 
           6010       2.2296e+7 
           6030      2.21494e+7 
           6050       2.1962e+7 
           6070      2.18114e+7 
           6090      2.15851e+7 
           6110      2.13633e+7 
           6130      2.10928e+7 
           6150      2.07138e+7 
           6170      2.07212e+7 
           6190      2.06839e+7 
           6210      2.05274e+7 
           6230      2.02784e+7 
           6250      1.98016e+7 
           6270      2.00176e+7 
           6290      1.98448e+7 
           6310      1.95621e+7 
           6330      1.94716e+7 
           6350      1.92146e+7 
           6370      1.90635e+7 
           6390      1.89868e+7 
           6410      1.87347e+7 
           6430       1.8642e+7 
           6450      1.83346e+7 
           6470      1.83681e+7 
           6490      1.80171e+7 
           6510      1.79493e+7 
           6530      1.77273e+7 
           6550      1.61835e+7 
           6570      1.28253e+7 
           6590      1.70364e+7 
           6610      1.72378e+7 
           6630      1.72017e+7 
           6650      1.70924e+7 
           6670      1.69427e+7 
           6690      1.68339e+7 
           6710      1.66961e+7 
           6730      1.65612e+7 
           6750      1.64062e+7 
           6770      1.63209e+7 
           6790      1.61791e+7 
           6810      1.60607e+7 
           6830      1.59022e+7 
           6850       1.5791e+7 
           6870       1.5684e+7 
           6890      1.55637e+7 
           6910      1.54398e+7 
           6930      1.53147e+7 
           6950      1.51986e+7 
           6970      1.50759e+7 
           6990      1.49674e+7 
           7010      1.47955e+7 
           7030      1.47167e+7 
           7050      1.46182e+7 
           7070      1.45107e+7 
           7090       1.4402e+7 
           7110      1.41176e+7 
           7130      1.41371e+7 
           7150      1.40463e+7 
           7170      1.39454e+7 
           7190      1.38176e+7 
           7210      1.37193e+7 
           7230      1.36017e+7 
           7250      1.35182e+7 
           7270      1.34389e+7 
           7290      1.33022e+7 
           7310      1.31844e+7 
           7330      1.31083e+7 
           7350      1.30308e+7 
           7370      1.29546e+7 
           7390      1.28329e+7 
           7410      1.27054e+7 
           7430      1.26023e+7 
           7450      1.25245e+7 
           7470      1.23819e+7 
           7490      1.23239e+7 
           7510      1.22517e+7 
           7530      1.21887e+7 
           7550      1.21249e+7 
           7570      1.20195e+7 
           7590      1.19431e+7 
           7610      1.18577e+7 
           7630      1.17729e+7 
           7650      1.16677e+7 
           7670      1.15691e+7 
           7690      1.15058e+7 
           7710      1.13873e+7 
           7730      1.13511e+7 
           7750      1.12632e+7 
           7770      1.09781e+7 
           7790      1.11174e+7 
           7810      1.10339e+7 
           7830      1.09334e+7 
           7850      1.08344e+7 
           7870      1.07562e+7 
           7890      1.06661e+7 
           7910      1.06158e+7 
           7930      1.05396e+7 
           7950       1.0452e+7 
           7970      1.04293e+7 
           7990      1.02928e+7 
           8010      1.02708e+7 
           8030      1.01934e+7 
           8050      1.01318e+7 
           8070      1.00579e+7 
           8090      9.98635e+6 
           8110      9.93029e+6 
           8130       9.8661e+6 
           8150      9.79675e+6 
           8170      9.72909e+6 
           8190       9.5738e+6 
           8210      9.56242e+6 
           8230      9.49487e+6 
           8250      9.42453e+6 
           8270      9.43904e+6 
           8290      9.36286e+6 
           8310       9.2742e+6 
           8330       9.1043e+6 
           8350      9.13801e+6 
           8370      8.93952e+6 
           8390       8.9114e+6 
           8410       8.8451e+6 
           8430      9.01045e+6 
           8450      8.85864e+6 
           8470      8.53801e+6 
           8490       9.2886e+6 
           8510      8.29251e+6 
           8530      9.43003e+6 
           8550      7.82395e+6 
           8570       9.6315e+6 
           8590      8.97863e+6 
           8610      8.68694e+6 
           8630      9.84757e+6 
           8650      9.60623e+6 
           8670      7.63493e+6 
           8690      9.64022e+6 
           8710      9.92077e+6 
           8730      9.67962e+6 
           8750      7.74543e+6 
           8770      9.33878e+6 
           8790      9.70297e+6 
           8810       9.6182e+6 
           8830       9.4447e+6 
           8850      8.88258e+6 
           8870      7.52627e+6 
           8890      9.22946e+6 
           8910      9.28061e+6 
           8930      9.22774e+6 
           8950      9.24299e+6 
           8970      9.15125e+6 
           8990      8.96281e+6 
           9010      7.40557e+6 
           9030      8.17578e+6 
           9050      8.85494e+6 
           9070       8.6758e+6 
           9090      8.55833e+6 
           9110      8.69011e+6 
           9130      8.69863e+6 
           9150      8.66425e+6 
           9170      8.57408e+6 
           9190      8.46186e+6 
           9210      8.14224e+6 
           9230      6.54644e+6 
           9250      7.88352e+6 
           9270      8.08014e+6 
           9290      8.24007e+6 
           9310      8.21079e+6 
           9330      8.14966e+6 
           9350      8.10406e+6 
           9370       8.0562e+6 
           9390      7.96851e+6 
           9410      7.76279e+6 
           9430      7.85106e+6 
           9450      7.82124e+6 
           9470      7.78194e+6 
