# Kurucz ODFNEW /NOVER (2003)
# teff = 24000 K (value for the effective temperature for the model. Temperatures are given in K)
# logg = 5 log(cm/s2) (value for Log(G) for the model.)
# meta = -4  (value for the Metallicity for the model.)
# lh = 1.25  (l/Hp where l is the  mixing length of the convective element and Hp is the pressure scale height)
# vtur = 2 km/s (Microturbulence velocity)
# alpha = 0.4  (Alpha)
#
# column 1: WAVELENGTH (ANGSTROM), Wavelength in Angstrom
# column 2: FLUX (ERG/CM2/S/A), Flux in erg/cm2/s/A
          147.2     1.21515e-15 
            151     6.42279e-15 
          155.2     3.68658e-14 
          158.8     1.53336e-13 
            162     5.16489e-13 
            166     2.20739e-12 
          170.3      9.7462e-12 
          173.4     2.71525e-11 
          176.8     8.01288e-11 
          180.2     2.26905e-10 
          181.7     3.54651e-10 
          186.1      1.26007e-9 
            191      4.82031e-9 
          193.9      1.03197e-8 
          198.4      3.21405e-8 
          201.8      7.32529e-8 
            205      1.55013e-7 
          210.5      5.32018e-7 
          216.2      1.78304e-6 
          219.8      3.70085e-6 
            223      6.93785e-6 
          226.8      1.42846e-5 
            230      4.03471e-5 
            234       8.7426e-5 
            240     0.000236045 
          246.5     0.000653238 
          252.4      0.00157597 
          256.8      0.00292449 
            260      0.00458713 
            264      0.00784529 
          268.5       0.0140528 
          273.5       0.0262287 
          278.5       0.0478592 
            284       0.0903523 
            290        0.175513 
            296        0.331143 
            301        0.551075 
            308         1.08483 
            318         2.73941 
            328         6.47749 
            338         14.4985 
            348         30.8827 
            357         58.6307 
            366         107.623 
            375         191.334 
            385         350.386 
            395         620.393 
            405         1065.09 
            414         1690.33 
            422         2501.95 
            430         3643.62 
            441         5960.85 
            451         9109.99 
            460         13111.5 
            470         19291.8 
            480         27875.4 
            490         39601.3 
            500         55359.6 
            506          284199 
            512          972391 
            520      1.22943e+6 
            530      1.74712e+6 
            540      1.89192e+6 
            550      2.56388e+6 
            560      3.05696e+6 
            570      3.61899e+6 
            580      3.72563e+6 
            590      4.77725e+6 
            600       5.8077e+6 
            610      6.72879e+6 
            620      7.74608e+6 
            630      8.87493e+6 
            640      1.01182e+7 
            650      1.14927e+7 
            658      1.26811e+7 
            665      1.37905e+7 
            675      1.54867e+7 
            685      1.73148e+7 
            695        1.933e+7 
            705       2.1471e+7 
            716      2.40056e+7 
            726      2.64809e+7 
            735      2.88594e+7 
            745      3.16567e+7 
            755      3.46219e+7 
            765      3.77569e+7 
            775      4.10697e+7 
            785      4.45552e+7 
            795      4.82147e+7 
            805      5.20523e+7 
            815      5.60643e+7 
            825      6.02546e+7 
            835      6.44178e+7 
            845      6.91649e+7 
            855      7.38643e+7 
            865       7.8752e+7 
            875      8.37969e+7 
            885      8.90086e+7 
            895      9.43816e+7 
            905      9.98096e+7 
            915      1.42075e+8 
            925       6.1373e+8 
            935      1.67515e+9 
            945      7.09016e+9 
            955     1.45793e+10 
            965     2.07997e+10 
            975      7.38182e+9 
            985     3.10275e+10 
            995     3.26141e+10 
           1005     3.30287e+10 
           1015      2.5348e+10 
           1025      4.13941e+9 
           1035     2.14142e+10 
           1045      2.9694e+10 
           1055     3.00666e+10 
           1065     2.93455e+10 
           1075      2.8806e+10 
           1085     2.70905e+10 
           1095      2.7496e+10 
           1105     2.64733e+10 
           1115     2.58851e+10 
           1125      2.5107e+10 
           1135     2.47422e+10 
           1145     2.40441e+10 
           1155     2.34556e+10 
           1165     2.28376e+10 
           1175     2.13277e+10 
           1185     2.13923e+10 
           1195     1.99296e+10 
           1205     1.51091e+10 
           1215      3.08458e+9 
           1225     1.32845e+10 
           1235      1.8028e+10 
           1245     1.84266e+10 
           1255     1.82597e+10 
           1265     1.78931e+10 
           1275      1.7557e+10 
           1285     1.71716e+10 
           1295     1.65471e+10 
           1305     1.62847e+10 
           1315     1.60648e+10 
           1325     1.57003e+10 
           1335       1.514e+10 
           1345     1.50536e+10 
           1355     1.47405e+10 
           1365     1.44307e+10 
           1375     1.41261e+10 
           1385     1.38238e+10 
           1395      1.3439e+10 
           1405     1.31865e+10 
           1415     1.29773e+10 
           1425      1.2718e+10 
           1435      1.2466e+10 
           1442     1.22964e+10 
           1447     1.21756e+10 
           1455      1.1984e+10 
           1465     1.17501e+10 
           1475      1.1518e+10 
           1485     1.12924e+10 
           1495     1.10697e+10 
           1505     1.08502e+10 
           1512     1.07056e+10 
           1517     1.06019e+10 
           1525      1.0438e+10 
           1535     1.02396e+10 
           1545     1.00436e+10 
           1555      9.86108e+9 
           1565      9.69116e+9 
           1575      9.51625e+9 
           1585      9.34601e+9 
           1595      9.17721e+9 
           1605      9.00822e+9 
           1615        8.844e+9 
           1625      8.68627e+9 
           1635      8.52763e+9 
           1645      8.29479e+9 
           1655      8.23502e+9 
           1665      8.09209e+9 
           1672      7.99295e+9 
           1677       7.9266e+9 
           1685        7.819e+9 
           1695      7.68729e+9 
           1705       7.5585e+9 
           1715      7.43039e+9 
           1725      7.30626e+9 
           1735      7.18373e+9 
           1745       7.0634e+9 
           1755      6.94608e+9 
           1765      6.82889e+9 
           1775       6.7188e+9 
           1785      6.60992e+9 
           1795      6.50467e+9 
           1805      6.40204e+9 
           1815      6.30115e+9 
           1825      6.20186e+9 
           1835      6.10447e+9 
           1845      6.00782e+9 
           1855      5.90479e+9 
           1865      5.81683e+9 
           1875      5.73245e+9 
           1885        5.642e+9 
           1895      5.55166e+9 
           1905      5.47121e+9 
           1915      5.38422e+9 
           1925      5.30413e+9 
           1935       5.2259e+9 
           1945       5.1494e+9 
           1955      5.07123e+9 
           1967      4.98452e+9 
           1976      4.91972e+9 
           1984      4.86213e+9 
           1995      4.78368e+9 
           2005       4.7178e+9 
           2015      4.65022e+9 
           2025      4.58346e+9 
           2035       4.5176e+9 
           2045      4.45352e+9 
           2055      4.38825e+9 
           2065      4.32633e+9 
           2074      4.27397e+9 
           2078      4.24602e+9 
           2085      4.20794e+9 
           2095      4.14864e+9 
           2105      4.09256e+9 
           2115      4.03686e+9 
           2125      3.98185e+9 
           2135      3.92802e+9 
           2145      3.87486e+9 
           2155      3.82227e+9 
           2165      3.77065e+9 
           2175      3.71997e+9 
           2185      3.67022e+9 
           2195      3.62113e+9 
           2205      3.57294e+9 
           2215      3.52563e+9 
           2225      3.47925e+9 
           2235       3.4337e+9 
           2245       3.3889e+9 
           2255      3.34491e+9 
           2265      3.30171e+9 
           2275      3.25935e+9 
           2285      3.21768e+9 
           2295      3.17526e+9 
           2305      3.13606e+9 
           2315      3.09624e+9 
           2325      3.05718e+9 
           2335      3.01876e+9 
           2345      2.98094e+9 
           2355      2.94379e+9 
           2365      2.90709e+9 
           2375      2.87097e+9 
           2385      2.83516e+9 
           2395      2.80017e+9 
           2405      2.76573e+9 
           2415      2.73189e+9 
           2425      2.69865e+9 
           2435      2.66572e+9 
           2445      2.63338e+9 
           2455      2.60159e+9 
           2465       2.5703e+9 
           2475      2.53948e+9 
           2485       2.5092e+9 
           2495      2.47424e+9 
           2505      2.45014e+9 
           2513      2.42681e+9 
           2518      2.41273e+9 
           2525      2.39287e+9 
           2535        2.365e+9 
           2545      2.33744e+9 
           2555       2.3104e+9 
           2565      2.28366e+9 
           2575      2.25727e+9 
           2585      2.23121e+9 
           2595      2.20554e+9 
           2605      2.19769e+9 
           2615      2.17243e+9 
           2625      2.14755e+9 
           2635      2.12162e+9 
           2645      2.09618e+9 
           2655      2.06963e+9 
           2665      2.04145e+9 
           2675      2.01394e+9 
           2685      2.00603e+9 
           2695      1.96622e+9 
           2705      1.96169e+9 
           2715      1.94001e+9 
           2725      1.89972e+9 
           2735      1.89749e+9 
           2745      1.87654e+9 
           2755      1.85594e+9 
           2765      1.81687e+9 
           2775      1.81569e+9 
           2785      1.79597e+9 
           2795      1.77567e+9 
           2805      1.75714e+9 
           2815       1.7385e+9 
           2825      1.69671e+9 
           2835      1.68874e+9 
           2845      1.68332e+9 
           2855      1.66549e+9 
           2865      1.64782e+9 
           2875      1.63046e+9 
           2885      1.61329e+9 
           2895      1.59636e+9 
           2910      1.57141e+9 
           2930      1.53893e+9 
           2950      1.49311e+9 
           2970      1.47653e+9 
           2990      1.44656e+9 
           3010      1.41738e+9 
           3030      1.38892e+9 
           3050      1.36113e+9 
           3070       1.3341e+9 
           3090      1.30773e+9 
           3110      1.28204e+9 
           3130      1.25844e+9 
           3150      1.23397e+9 
           3170       1.2099e+9 
           3190      1.17412e+9 
           3210      1.16341e+9 
           3230      1.14096e+9 
           3250      1.11919e+9 
           3270      1.09948e+9 
           3290      1.07724e+9 
           3310      1.05883e+9 
           3330      1.03918e+9 
           3350      1.01805e+9 
           3370      1.00133e+9 
           3390      9.83087e+8 
           3410      9.65239e+8 
           3430      9.43993e+8 
           3450      9.23616e+8 
           3470       9.0984e+8 
           3490       8.9372e+8 
           3510      8.79008e+8 
           3530      8.64662e+8 
           3550      8.50014e+8 
           3570      8.40931e+8 
           3590      8.19573e+8 
           3610      8.09043e+8 
           3630      7.91833e+8 
           3640      7.91696e+8 
           3650      7.83829e+8 
           3670       7.7419e+8 
           3690      7.61256e+8 
           3710      7.35991e+8 
           3730       7.0643e+8 
           3750      7.06309e+8 
           3770       6.9242e+8 
           3790      7.34229e+8 
           3810      7.74449e+8 
           3830      6.62857e+8 
           3850      8.11306e+8 
           3870      8.39943e+8 
           3890      6.19613e+8 
           3910      8.30436e+8 
           3930      8.37859e+8 
           3950      8.06965e+8 
           3970      5.77945e+8 
           3990      7.68623e+8 
           4010      7.83278e+8 
           4030      7.21754e+8 
           4050      7.71695e+8 
           4070      7.51644e+8 
           4090      6.53327e+8 
           4110      5.56281e+8 
           4130      6.99086e+8 
           4150      7.00786e+8 
           4170      6.98413e+8 
           4190      6.90774e+8 
           4210      6.79316e+8 
           4230      6.68044e+8 
           4250      6.56954e+8 
           4270      6.44471e+8 
           4290      6.31946e+8 
           4310      6.13095e+8 
           4330      5.23514e+8 
           4350      4.72064e+8 
           4370      5.79922e+8 
           4390      5.56998e+8 
           4410      5.74447e+8 
           4430      5.63552e+8 
           4450      5.57033e+8 
           4470      5.10221e+8 
           4490      5.38986e+8 
           4510      5.32531e+8 
           4530       5.2424e+8 
           4550      5.16112e+8 
           4570      5.08141e+8 
           4590      5.00325e+8 
           4610       4.9266e+8 
           4630      4.85127e+8 
           4650      4.77757e+8 
           4670       4.7053e+8 
           4690      4.63357e+8 
           4710      4.48799e+8 
           4730      4.49609e+8 
           4750      4.42909e+8 
           4770      4.36238e+8 
           4790      4.28646e+8 
           4810      4.20872e+8 
           4830      4.08948e+8 
           4850        3.588e+8 
           4870      3.15687e+8 
           4890      3.87394e+8 
           4910      3.89182e+8 
           4930      3.72189e+8 
           4950      3.81749e+8 
           4970      3.76822e+8 
           4990      3.71448e+8 
           5010      3.60068e+8 
           5030      3.60918e+8 
           5050      3.53146e+8 
           5070      3.50907e+8 
           5090      3.46003e+8 
           5110      3.41193e+8 
           5130      3.36448e+8 
           5150      3.31795e+8 
           5170      3.27217e+8 
           5190      3.22728e+8 
           5210      3.18312e+8 
           5230      3.13954e+8 
           5250       3.0968e+8 
           5270      3.05476e+8 
           5290      3.01339e+8 
           5310      2.97283e+8 
           5330      2.93293e+8 
           5350      2.89367e+8 
           5370      2.85504e+8 
           5390      2.81716e+8 
           5410       2.7799e+8 
           5430      2.74323e+8 
           5450      2.70715e+8 
           5470      2.67178e+8 
           5490      2.63685e+8 
           5510       2.6026e+8 
           5530       2.5689e+8 
           5550      2.53562e+8 
           5570        2.503e+8 
           5590      2.47077e+8 
           5610      2.43918e+8 
           5630       2.4081e+8 
           5650      2.37751e+8 
           5670      2.34729e+8 
           5690      2.31767e+8 
           5710      2.28852e+8 
           5730      2.25972e+8 
           5750      2.23149e+8 
           5770      2.20371e+8 
           5790      2.17627e+8 
           5810      2.14937e+8 
           5830      2.12279e+8 
           5850      2.09663e+8 
           5870      1.98462e+8 
           5890      2.03741e+8 
           5910      2.02062e+8 
           5930      1.99609e+8 
           5950      1.97184e+8 
           5970      1.94797e+8 
           5990      1.92459e+8 
           6010      1.90148e+8 
           6030      1.87873e+8 
           6050      1.85624e+8 
           6070      1.83422e+8 
           6090      1.81244e+8 
           6110        1.791e+8 
           6130      1.76991e+8 
           6150      1.74916e+8 
           6170      1.72863e+8 
           6190      1.70843e+8 
           6210      1.68856e+8 
           6230       1.6689e+8 
           6250      1.64965e+8 
           6270      1.63062e+8 
           6290      1.61179e+8 
           6310      1.59336e+8 
           6330      1.57512e+8 
           6350      1.55709e+8 
           6370      1.53934e+8 
           6390      1.52188e+8 
           6410       1.5047e+8 
           6430       1.4877e+8 
           6450      1.47097e+8 
           6470      1.45451e+8 
           6490       1.4359e+8 
           6510      1.41571e+8 
           6530       1.3877e+8 
           6550      1.28818e+8 
           6570      1.12692e+8 
           6590       1.3249e+8 
           6610      1.33604e+8 
           6630      1.32662e+8 
           6650      1.31558e+8 
           6670      1.28264e+8 
           6690      1.26951e+8 
           6710       1.2745e+8 
           6730       1.2607e+8 
           6750      1.24712e+8 
           6770      1.23368e+8 
           6790      1.22046e+8 
           6810      1.20746e+8 
           6830      1.19458e+8 
           6850      1.18183e+8 
           6870      1.16937e+8 
           6890      1.15696e+8 
           6910      1.14475e+8 
           6930      1.13274e+8 
           6950      1.12085e+8 
           6970      1.10915e+8 
           6990      1.09757e+8 
           7010       1.0861e+8 
           7030      1.07483e+8 
           7050      1.06373e+8 
           7070      1.03285e+8 
           7090      1.04187e+8 
           7110      1.03117e+8 
           7130      1.02058e+8 
           7150      1.01016e+8 
           7170      9.99772e+7 
           7190        9.897e+7 
           7210      9.79651e+7 
           7230       9.6977e+7 
           7250      9.59984e+7 
           7270       9.5029e+7 
           7290      9.32039e+7 
           7310      9.31247e+7 
           7330      9.22105e+7 
           7350      9.12909e+7 
           7370        9.038e+7 
           7390      8.94845e+7 
           7410      8.86041e+7 
           7430      8.77319e+7 
           7450      8.68814e+7 
           7470      8.60252e+7 
           7490      8.51837e+7 
           7510      8.43231e+7 
           7530      8.35303e+7 
           7550      8.27182e+7 
           7570      8.19201e+7 
           7590      8.11293e+7 
           7610      8.03456e+7 
           7630      7.95755e+7 
           7650       7.8806e+7 
           7670      7.80561e+7 
           7690      7.73066e+7 
           7710      7.65702e+7 
           7730      7.58466e+7 
           7750      7.51295e+7 
           7770      7.44187e+7 
           7790      7.37143e+7 
           7810       7.2979e+7 
           7830      7.23363e+7 
           7850      7.17359e+7 
           7870      7.10676e+7 
           7890      7.03749e+7 
           7910      6.97485e+7 
           7930      6.91036e+7 
           7950      6.84643e+7 
           7970      6.77475e+7 
           7990      6.71491e+7 
           8010       6.6456e+7 
           8030      6.58274e+7 
           8050      6.52159e+7 
           8070      6.46269e+7 
           8090      6.39797e+7 
           8110      6.34755e+7 
           8130      6.29185e+7 
           8150      6.23208e+7 
           8170      6.18016e+7 
           8190        6.118e+7 
           8210      6.05972e+7 
           8230      6.01974e+7 
           8250      5.96789e+7 
           8270      5.88949e+7 
           8290      5.86056e+7 
           8310       5.8122e+7 
           8330      5.75717e+7 
           8350      5.68046e+7 
           8370      5.64904e+7 
           8390      5.60823e+7 
           8410      5.55868e+7 
           8430      5.50636e+7 
           8450      5.42229e+7 
           8470      5.41036e+7 
           8490      5.35093e+7 
           8510      5.31124e+7 
           8530      5.25478e+7 
           8550      5.19364e+7 
           8570      5.19302e+7 
           8590      5.03428e+7 
