# Kurucz ODFNEW /NOVER (2003)
# teff = 36000 K (value for the effective temperature for the model. Temperatures are given in K)
# logg = 5 log(cm/s2) (value for Log(G) for the model.)
# meta = 0.2  (value for the Metallicity for the model.)
# lh = 1.25  (l/Hp where l is the  mixing length of the convective element and Hp is the pressure scale height)
# vtur = 2 km/s (Microturbulence velocity)
# alpha = 0.4  (Alpha)
#
# column 1: WAVELENGTH (ANGSTROM), Wavelength in Angstrom
# column 2: FLUX (ERG/CM2/S/A), Flux in erg/cm2/s/A
          147.2     0.000742302 
            151      0.00178228 
          155.2      0.00443294 
          158.8      0.00932642 
            162       0.0175273 
            166       0.0375554 
          170.3       0.0812053 
          173.4        0.139453 
          176.8        0.248733 
          180.2        0.428797 
          181.7        0.550142 
          186.1          1.0709 
            191         2.17305 
          193.9         3.24001 
          198.4          5.9442 
          201.8         9.16114 
            205         13.5918 
          210.5         26.0716 
          216.2          48.849 
          219.8         72.7608 
            223         101.605 
          226.8         156.644 
            230         43298.2 
            234           96611 
            240          140037 
          246.5          212023 
          252.4          338990 
          256.8          455117 
            260          683686 
            264      1.05323e+6 
          268.5      1.56963e+6 
          273.5      2.02652e+6 
          278.5      2.31403e+6 
            284      4.52485e+6 
            290      6.15982e+6 
            296      7.51558e+6 
            301      1.21804e+7 
            308      2.35829e+7 
            318      4.57966e+7 
            328      6.14272e+7 
            338      1.03478e+8 
            348      1.48789e+8 
            357      2.78164e+8 
            366      5.96159e+8 
            375      6.62776e+8 
            385       9.1452e+8 
            395      1.89609e+9 
            405      2.32939e+9 
            414      2.92269e+9 
            422      3.08942e+9 
            430      3.13914e+9 
            441      3.58383e+9 
            451      3.87137e+9 
            460      3.62914e+9 
            470      4.04698e+9 
            480       4.5667e+9 
            490      4.25637e+9 
            500      5.21755e+9 
            506       5.5701e+9 
            512     3.21194e+10 
            520     2.93038e+10 
            530     2.65025e+10 
            540     2.45611e+10 
            550      2.5848e+10 
            560     3.39141e+10 
            570     3.66549e+10 
            580     3.41543e+10 
            590     3.54219e+10 
            600     2.54094e+10 
            610     3.13239e+10 
            620     3.84491e+10 
            630     3.68329e+10 
            640     3.73317e+10 
            650     3.53626e+10 
            658     2.65351e+10 
            665     3.36073e+10 
            675     3.84084e+10 
            685     2.97634e+10 
            695     3.80953e+10 
            705     2.80956e+10 
            716     3.98587e+10 
            726     3.87804e+10 
            735     3.87151e+10 
            745     3.49243e+10 
            755     3.48724e+10 
            765      3.5567e+10 
            775     3.65894e+10 
            785      3.5816e+10 
            795      3.6685e+10 
            805      3.4495e+10 
            815     3.42804e+10 
            825     3.60957e+10 
            835     2.83142e+10 
            845     3.41414e+10 
            855     3.33077e+10 
            865     3.42645e+10 
            875     3.40463e+10 
            885     3.40306e+10 
            895     3.38801e+10 
            905     3.25895e+10 
            915     2.98967e+10 
            925     6.04969e+10 
            935     9.11114e+10 
            945     1.23393e+11 
            955     1.40225e+11 
            965     1.65171e+11 
            975     7.92712e+10 
            985     1.38453e+11 
            995     1.20155e+11 
           1005     1.22941e+11 
           1015     1.29519e+11 
           1025     9.65862e+10 
           1035     1.26095e+11 
           1045     1.43113e+11 
           1055     1.35924e+11 
           1065     1.14494e+11 
           1075     1.20407e+11 
           1085     1.08728e+11 
           1095     1.18207e+11 
           1105     1.11668e+11 
           1115     1.09732e+11 
           1125     8.70217e+10 
           1135     1.04047e+11 
           1145     9.96288e+10 
           1155     9.19073e+10 
           1165     9.01169e+10 
           1175     6.45908e+10 
           1185     8.29396e+10 
           1195     7.88559e+10 
           1205     7.53835e+10 
           1215     5.66794e+10 
           1225     7.24952e+10 
           1235     7.71329e+10 
           1245      7.4652e+10 
           1255     7.42827e+10 
           1265      7.5307e+10 
           1275      7.7048e+10 
           1285     7.67137e+10 
           1295     7.12338e+10 
           1305     7.08874e+10 
           1315     7.40725e+10 
           1325     7.12763e+10 
           1335     6.93374e+10 
           1345     6.76292e+10 
           1355     6.66962e+10 
           1365     6.35854e+10 
           1375     6.15918e+10 
           1385     5.93898e+10 
           1395     4.65292e+10 
           1405     4.75543e+10 
           1415     5.68361e+10 
           1425     5.08261e+10 
           1435     5.40261e+10 
           1442     5.31405e+10 
           1447     5.28747e+10 
           1455     5.02608e+10 
           1465     4.91663e+10 
           1475     4.90508e+10 
           1485     4.89955e+10 
           1495     4.73764e+10 
           1505     4.59073e+10 
           1512      4.5437e+10 
           1517     4.54114e+10 
           1525     4.38233e+10 
           1535     3.85151e+10 
           1545      3.2458e+10 
           1555     3.27181e+10 
           1565     3.61436e+10 
           1575     3.75207e+10 
           1585     3.70592e+10 
           1595     3.73986e+10 
           1605     3.53283e+10 
           1615     3.36211e+10 
           1625     3.42272e+10 
           1635     3.40987e+10 
           1645     3.37773e+10 
           1655      3.4135e+10 
           1665     3.30726e+10 
           1672     3.09447e+10 
           1677     3.54824e+10 
           1685     3.39839e+10 
           1695     3.28301e+10 
           1705     3.22025e+10 
           1715      3.0952e+10 
           1725     2.94332e+10 
           1735     3.04665e+10 
           1745     3.02272e+10 
           1755     2.95975e+10 
           1765     2.89873e+10 
           1775     2.80219e+10 
           1785     2.83319e+10 
           1795     2.75658e+10 
           1805     2.73792e+10 
           1815     2.67249e+10 
           1825     2.61569e+10 
           1835     2.60627e+10 
           1845     2.49498e+10 
           1855     2.50429e+10 
           1865     2.49678e+10 
           1875     2.41782e+10 
           1885     2.32724e+10 
           1895     2.29813e+10 
           1905     2.32628e+10 
           1915     2.25736e+10 
           1925     2.12143e+10 
           1935     2.22593e+10 
           1945     2.23228e+10 
           1955     2.05455e+10 
           1967     2.11778e+10 
           1976     2.14146e+10 
           1984     2.07982e+10 
           1995      2.0259e+10 
           2005     2.04829e+10 
           2015     2.02996e+10 
           2025     2.00739e+10 
           2035     1.94286e+10 
           2045     1.90994e+10 
           2055     1.51378e+10 
           2065     1.45056e+10 
           2074     1.47592e+10 
           2078      1.4678e+10 
           2085     1.52382e+10 
           2095     1.61103e+10 
           2105     1.72091e+10 
           2115      1.7467e+10 
           2125     1.69459e+10 
           2135     1.68958e+10 
           2145     1.66133e+10 
           2155      1.6509e+10 
           2165     1.56713e+10 
           2175     1.60841e+10 
           2185     1.54646e+10 
           2195     1.57978e+10 
           2205     1.55472e+10 
           2215     1.47667e+10 
           2225      1.5049e+10 
           2235       1.484e+10 
           2245     1.45683e+10 
           2255     1.39311e+10 
           2265     1.41741e+10 
           2275     1.40228e+10 
           2285     1.35021e+10 
           2295     1.25171e+10 
           2305     1.28611e+10 
           2315     1.29168e+10 
           2325     1.28854e+10 
           2335     1.27262e+10 
           2345     1.25377e+10 
           2355     1.22698e+10 
           2365     1.20558e+10 
           2375     1.17695e+10 
           2385     1.11531e+10 
           2395     1.13209e+10 
           2405     1.13396e+10 
           2415     1.11393e+10 
           2425     1.10835e+10 
           2435     1.08694e+10 
           2445     1.07504e+10 
           2455      1.0573e+10 
           2465     1.04694e+10 
           2475     1.03229e+10 
           2485      9.99349e+9 
           2495      7.54485e+9 
           2505      9.48814e+9 
           2513      9.08362e+9 
           2518      9.27099e+9 
           2525      9.59133e+9 
           2535      9.53222e+9 
           2545      9.30856e+9 
           2555      9.21506e+9 
           2565      9.07177e+9 
           2575      9.00543e+9 
           2585      8.89868e+9 
           2595      8.69372e+9 
           2605      8.67485e+9 
           2615      8.48853e+9 
           2625      8.43819e+9 
           2635      8.34063e+9 
           2645      8.19906e+9 
           2655      8.11603e+9 
           2665      7.93324e+9 
           2675      7.71715e+9 
           2685      7.75749e+9 
           2695      7.61081e+9 
           2705      7.55773e+9 
           2715      7.44287e+9 
           2725      7.32899e+9 
           2735      7.10627e+9 
           2745      7.20758e+9 
           2755      7.09877e+9 
           2765      6.98789e+9 
           2775      6.96012e+9 
           2785      6.82086e+9 
           2795      6.58117e+9 
           2805      6.63823e+9 
           2815      6.60351e+9 
           2825      6.50586e+9 
           2835      6.38927e+9 
           2845      6.38027e+9 
           2855       6.2728e+9 
           2865      6.17034e+9 
           2875       6.0974e+9 
           2885      6.03529e+9 
           2895      5.94198e+9 
           2910      5.78745e+9 
           2930      5.72319e+9 
           2950      5.55971e+9 
           2970       5.4317e+9 
           2990      5.25983e+9 
           3010      5.09161e+9 
           3030      4.95158e+9 
           3050        4.899e+9 
           3070      4.81459e+9 
           3090       4.6629e+9 
           3110      4.61053e+9 
           3130      4.47565e+9 
           3150      4.40192e+9 
           3170      4.29069e+9 
           3190      4.20596e+9 
           3210      4.07035e+9 
           3230      4.01504e+9 
           3250      3.94973e+9 
           3270      3.81701e+9 
           3290      3.76273e+9 
           3310      3.67442e+9 
           3330      3.58455e+9 
           3350      3.49152e+9 
           3370      3.42732e+9 
           3390      3.38142e+9 
           3410      3.30591e+9 
           3430      3.25434e+9 
           3450      3.15601e+9 
           3470      3.10957e+9 
           3490      3.04916e+9 
           3510      2.98828e+9 
           3530      2.93598e+9 
           3550      2.87047e+9 
           3570      2.81747e+9 
           3590      2.75027e+9 
           3610      2.69875e+9 
           3630      2.64141e+9 
           3640      2.60432e+9 
           3650      2.46369e+9 
           3670      2.42422e+9 
           3690      2.37684e+9 
           3710      2.29164e+9 
           3730      2.27171e+9 
           3750      2.24441e+9 
           3770      2.18504e+9 
           3790      2.23437e+9 
           3810      2.27619e+9 
           3830      2.07258e+9 
           3850      2.26414e+9 
           3870      2.20329e+9 
           3890      1.92887e+9 
           3910       2.2147e+9 
           3930      2.16253e+9 
           3950      2.08426e+9 
           3970       1.7712e+9 
           3990      2.04621e+9 
           4010      2.01982e+9 
           4030      1.93293e+9 
           4050      1.96274e+9 
           4070      1.87242e+9 
           4090       1.7461e+9 
           4110      1.60591e+9 
           4130      1.78997e+9 
           4150      1.77007e+9 
           4170      1.76584e+9 
           4190      1.72579e+9 
           4210      1.68815e+9 
           4230      1.67705e+9 
           4250       1.6257e+9 
           4270      1.59327e+9 
           4290      1.55974e+9 
           4310      1.51531e+9 
           4330      1.41299e+9 
           4350      1.31929e+9 
           4370       1.4509e+9 
           4390      1.41969e+9 
           4410      1.40709e+9 
           4430      1.39781e+9 
           4450      1.37051e+9 
           4470      1.31793e+9 
           4490      1.32942e+9 
           4510      1.30215e+9 
           4530      1.28875e+9 
           4550      1.25434e+9 
           4570      1.25129e+9 
           4590      1.22592e+9 
           4610      1.20033e+9 
           4630      1.17118e+9 
           4650      1.11427e+9 
           4670      1.13883e+9 
           4690      1.10927e+9 
           4710      1.09685e+9 
           4730      1.10783e+9 
           4750       1.0881e+9 
           4770      1.07597e+9 
           4790      1.05853e+9 
           4810      1.03763e+9 
           4830      1.01436e+9 
           4850      9.51701e+8 
           4870      8.68354e+8 
           4890      9.65783e+8 
           4910      9.55446e+8 
           4930      9.29156e+8 
           4950      9.25799e+8 
           4970       9.2091e+8 
           4990      9.06855e+8 
           5010      8.76005e+8 
           5030      8.73058e+8 
           5050      8.60794e+8 
           5070      8.53752e+8 
           5090      8.39989e+8 
           5110      8.27324e+8 
           5130      8.14659e+8 
           5150      8.02903e+8 
           5170      7.90023e+8 
           5190      7.79792e+8 
           5210      7.68973e+8 
           5230      7.58337e+8 
           5250      7.45272e+8 
           5270      7.33644e+8 
           5290      7.26222e+8 
           5310      7.15364e+8 
           5330      7.05457e+8 
           5350      6.95586e+8 
           5370      6.85724e+8 
           5390      6.75302e+8 
           5410      6.56571e+8 
           5430       6.5725e+8 
           5450      6.48022e+8 
           5470      6.38859e+8 
           5490      6.30163e+8 
           5510      6.21006e+8 
           5530      6.12863e+8 
           5550      6.04895e+8 
           5570      5.96358e+8 
           5590      5.86383e+8 
           5610      5.80582e+8 
           5630      5.72804e+8 
           5650      5.64814e+8 
           5670      5.56536e+8 
           5690      5.42169e+8 
           5710      5.26766e+8 
           5730      5.20479e+8 
           5750      5.12762e+8 
           5770      5.07426e+8 
           5790      5.00667e+8 
           5810      4.93164e+8 
           5830       4.8665e+8 
           5850       4.8215e+8 
           5870      4.66133e+8 
           5890      4.69716e+8 
           5910      4.65528e+8 
           5930      4.60711e+8 
           5950      4.55959e+8 
           5970      4.52074e+8 
           5990      4.47066e+8 
           6010       4.4299e+8 
           6030      4.38056e+8 
           6050      4.33971e+8 
           6070      4.29122e+8 
           6090      4.23941e+8 
           6110      4.18385e+8 
           6130      4.13404e+8 
           6150      4.07403e+8 
           6170       4.0249e+8 
           6190      3.98271e+8 
           6210      3.93619e+8 
           6230      3.88572e+8 
           6250      3.83466e+8 
           6270      3.79145e+8 
           6290      3.74557e+8 
           6310      3.69367e+8 
           6330      3.65627e+8 
           6350      3.60823e+8 
           6370      3.56983e+8 
           6390      3.52694e+8 
           6410      3.48094e+8 
           6430      3.44365e+8 
           6450       3.4005e+8 
           6470      3.35404e+8 
           6490      3.31319e+8 
           6510      3.26646e+8 
           6530        3.216e+8 
           6550      3.09928e+8 
           6570      2.80211e+8 
           6590      3.09759e+8 
           6610      3.08664e+8 
           6630      3.05947e+8 
           6650      3.02227e+8 
           6670      2.95099e+8 
           6690      2.91519e+8 
           6710      2.91081e+8 
           6730      2.87773e+8 
           6750      2.85136e+8 
           6770      2.82352e+8 
           6790      2.78722e+8 
           6810      2.76072e+8 
           6830      2.72818e+8 
           6850      2.69822e+8 
           6870      2.66657e+8 
           6890       2.6235e+8 
           6910      2.59902e+8 
           6930      2.58177e+8 
           6950      2.55313e+8 
           6970      2.52508e+8 
           6990      2.49639e+8 
           7010      2.46537e+8 
           7030      2.43665e+8 
           7050      2.41064e+8 
           7070      2.35723e+8 
           7090      2.36381e+8 
           7110      2.33637e+8 
           7130      2.31194e+8 
           7150      2.28856e+8 
           7170      2.25713e+8 
           7190      2.23541e+8 
           7210      2.21592e+8 
           7230      2.18126e+8 
           7250      2.16566e+8 
           7270      2.14606e+8 
           7290      2.11049e+8 
           7310      2.09952e+8 
           7330      2.07868e+8 
           7350      2.05678e+8 
           7370      2.03509e+8 
           7390       2.0145e+8 
           7410      1.99294e+8 
           7430      1.97288e+8 
           7450      1.95083e+8 
           7470      1.92703e+8 
           7490      1.90533e+8 
           7510      1.89166e+8 
           7530      1.87199e+8 
           7550      1.85409e+8 
           7570      1.83484e+8 
           7590      1.80491e+8 
           7610      1.79342e+8 
           7630      1.77846e+8 
           7650      1.76003e+8 
           7670      1.74382e+8 
           7690      1.72018e+8 
           7710      1.70676e+8 
           7730      1.68344e+8 
           7750      1.67476e+8 
           7770      1.65892e+8 
           7790      1.64271e+8 
           7810      1.62615e+8 
           7830       1.6103e+8 
           7850      1.59318e+8 
           7870      1.57493e+8 
           7890      1.56006e+8 
           7910      1.54821e+8 
           7930      1.53304e+8 
           7950      1.51908e+8 
           7970      1.50257e+8 
           7990       1.4888e+8 
           8010      1.47486e+8 
           8030      1.45969e+8 
           8050      1.44704e+8 
           8070      1.43305e+8 
           8090      1.41872e+8 
           8110      1.39879e+8 
           8130      1.39225e+8 
           8150      1.37823e+8 
           8170       1.3655e+8 
           8190      1.34593e+8 
           8210      1.32054e+8 
           8230      1.30323e+8 
           8250      1.29631e+8 
           8270      1.27942e+8 
           8290      1.27352e+8 
           8310      1.26364e+8 
           8330      1.24884e+8 
           8350      1.23459e+8 
           8370       1.2265e+8 
           8390      1.21814e+8 
           8410      1.20607e+8 
           8430      1.19611e+8 
           8450      1.18159e+8 
           8470      1.17486e+8 
           8490      1.16332e+8 
           8510      1.14975e+8 
           8530      1.14239e+8 
           8550      1.13237e+8 
           8570      1.12432e+8 
