# Kurucz ODFNEW /NOVER (2003)
# teff = 26000 K (value for the effective temperature for the model. Temperatures are given in K)
# logg = 4 log(cm/s2) (value for Log(G) for the model.)
# meta = -0.5  (value for the Metallicity for the model.)
# lh = 1.25  (l/Hp where l is the  mixing length of the convective element and Hp is the pressure scale height)
# vtur = 2 km/s (Microturbulence velocity)
# alpha = 0  (Alpha)
#
# column 1: WAVELENGTH (ANGSTROM), Wavelength in Angstrom
# column 2: FLUX (ERG/CM2/S/A), Flux in erg/cm2/s/A
          147.2     3.52408e-13 
            151     1.46766e-12 
          155.2     6.60147e-12 
          158.8      2.2621e-11 
            162     6.48496e-11 
            166     2.29447e-10 
          170.3       8.385e-10 
          173.4      2.05658e-9 
          176.8      5.31344e-9 
          180.2      1.32619e-8 
          181.7       1.9645e-8 
          186.1      6.00873e-8 
            191      1.96704e-7 
          193.9      3.85926e-7 
          198.4      1.05642e-6 
          201.8      2.19461e-6 
            205      4.27127e-6 
          210.5       1.2799e-5 
          216.2      3.76049e-5 
          219.8      7.21323e-5 
            223       0.0001264 
          226.8      0.00024114 
            230       0.0351783 
            234       0.0810757 
            240        0.176494 
          246.5        0.397913 
          252.4        0.809747 
          256.8         1.23417 
            260         1.96501 
            264          2.9606 
          268.5         4.74646 
          273.5         7.79323 
          278.5         12.5353 
            284         21.8384 
            290         36.6852 
            296          60.614 
            301         89.1043 
            308         149.685 
            318         339.218 
            328         655.207 
            338         1283.88 
            348         2346.69 
            357          5385.1 
            366         9213.22 
            375         13850.5 
            385         22415.7 
            395         36136.1 
            405         54052.4 
            414         78110.5 
            422          103179 
            430          140325 
            441          205023 
            451          282360 
            460          368130 
            470          502403 
            480          664950 
            490          879344 
            500      1.14205e+6 
            506      6.74678e+6 
            512      2.93529e+7 
            520      3.28008e+7 
            530      3.81745e+7 
            540      3.99739e+7 
            550      5.34445e+7 
            560      6.16414e+7 
            570      7.18499e+7 
            580      7.01373e+7 
            590      8.77365e+7 
            600      9.64302e+7 
            610      1.10184e+8 
            620      1.21241e+8 
            630      1.30702e+8 
            640       1.2997e+8 
            650      1.25921e+8 
            658      1.54202e+8 
            665      1.72194e+8 
            675       1.7959e+8 
            685      1.86685e+8 
            695      2.24739e+8 
            705      2.29536e+8 
            716      2.56304e+8 
            726      2.66832e+8 
            735      2.77694e+8 
            745       3.0775e+8 
            755      3.25645e+8 
            765      3.46722e+8 
            775      3.68974e+8 
            785      3.93557e+8 
            795      4.08419e+8 
            805      4.25339e+8 
            815      4.37261e+8 
            825       4.7007e+8 
            835      4.45618e+8 
            845      4.93493e+8 
            855      5.08969e+8 
            865      5.37534e+8 
            875      5.68618e+8 
            885      6.03556e+8 
            895      6.27816e+8 
            905      6.34349e+8 
            915      8.73039e+8 
            925      5.71638e+9 
            935       1.357e+10 
            945     2.67323e+10 
            955     3.20967e+10 
            965     3.85579e+10 
            975     1.00342e+10 
            985     3.52242e+10 
            995     3.29318e+10 
           1005     3.60782e+10 
           1015     3.55727e+10 
           1025     1.85402e+10 
           1035     2.99175e+10 
           1045     4.00007e+10 
           1055     3.74047e+10 
           1065     3.20326e+10 
           1075     3.52141e+10 
           1085     3.17538e+10 
           1095     3.48789e+10 
           1105     3.23931e+10 
           1115     3.19571e+10 
           1125      2.7312e+10 
           1135     3.18088e+10 
           1145     2.91636e+10 
           1155      2.9734e+10 
           1165     2.93756e+10 
           1175     2.01923e+10 
           1185     2.75339e+10 
           1195     2.58918e+10 
           1205      2.0589e+10 
           1215     1.31748e+10 
           1225     2.33847e+10 
           1235     2.56953e+10 
           1245     2.50752e+10 
           1255      2.4682e+10 
           1265     2.47029e+10 
           1275     2.50724e+10 
           1285     2.46153e+10 
           1295     2.01957e+10 
           1305     2.10596e+10 
           1315      2.3518e+10 
           1325     2.22352e+10 
           1335     2.14785e+10 
           1345     2.14435e+10 
           1355     2.13477e+10 
           1365     2.00995e+10 
           1375     1.96239e+10 
           1385     1.93029e+10 
           1395      1.5569e+10 
           1405     1.63194e+10 
           1415      1.7544e+10 
           1425     1.68675e+10 
           1435     1.72307e+10 
           1442     1.74742e+10 
           1447     1.71206e+10 
           1455     1.66636e+10 
           1465     1.57867e+10 
           1475     1.57843e+10 
           1485     1.55304e+10 
           1495     1.51917e+10 
           1505     1.41581e+10 
           1512     1.29655e+10 
           1517     1.32755e+10 
           1525     1.34154e+10 
           1535     1.17536e+10 
           1545     1.15977e+10 
           1555     1.11041e+10 
           1565     1.18094e+10 
           1575     1.23061e+10 
           1585     1.21696e+10 
           1595     1.20884e+10 
           1605     1.18147e+10 
           1615     1.14832e+10 
           1625     1.14373e+10 
           1635     1.17839e+10 
           1645     1.15659e+10 
           1655     1.15212e+10 
           1665     1.14961e+10 
           1672     1.10754e+10 
           1677     1.17994e+10 
           1685     1.14058e+10 
           1695     1.09219e+10 
           1705     1.05765e+10 
           1715     1.01238e+10 
           1725      9.94091e+9 
           1735     1.01334e+10 
           1745       9.9306e+9 
           1755      9.93041e+9 
           1765      9.69763e+9 
           1775      9.27121e+9 
           1785      9.33611e+9 
           1795      9.41957e+9 
           1805      9.41458e+9 
           1815      8.69575e+9 
           1825      8.86799e+9 
           1835      8.64339e+9 
           1845      7.93284e+9 
           1855      7.98034e+9 
           1865      8.08681e+9 
           1875      8.22978e+9 
           1885      7.44547e+9 
           1895      6.95544e+9 
           1905      7.40477e+9 
           1915      7.07257e+9 
           1925      6.74217e+9 
           1935      7.06516e+9 
           1945      7.20243e+9 
           1955      6.54206e+9 
           1967      6.94913e+9 
           1976      7.23052e+9 
           1984      6.72547e+9 
           1995      6.58468e+9 
           2005      6.71474e+9 
           2015      6.68955e+9 
           2025       6.8049e+9 
           2035      6.29416e+9 
           2045      6.32158e+9 
           2055      6.05217e+9 
           2065      6.05174e+9 
           2074      6.29772e+9 
           2078      5.84652e+9 
           2085      6.01618e+9 
           2095      5.77202e+9 
           2105      5.94109e+9 
           2115      5.90837e+9 
           2125       5.9636e+9 
           2135      5.84315e+9 
           2145      5.57804e+9 
           2155      5.72514e+9 
           2165      5.67221e+9 
           2175      5.58163e+9 
           2185      5.46334e+9 
           2195      5.47045e+9 
           2205      5.41296e+9 
           2215      5.33955e+9 
           2225      5.21838e+9 
           2235      5.12435e+9 
           2245      5.13157e+9 
           2255      5.00807e+9 
           2265      5.00463e+9 
           2275      4.93649e+9 
           2285      4.89936e+9 
           2295      4.61672e+9 
           2305      4.74579e+9 
           2315      4.63957e+9 
           2325      4.58219e+9 
           2335      4.48332e+9 
           2345      4.48257e+9 
           2355      4.44472e+9 
           2365      4.39105e+9 
           2375      4.30893e+9 
           2385      4.26433e+9 
           2395      4.20653e+9 
           2405      4.14909e+9 
           2415      4.09167e+9 
           2425      4.07068e+9 
           2435      3.98096e+9 
           2445      3.95634e+9 
           2455      3.93098e+9 
           2465      3.87479e+9 
           2475      3.81888e+9 
           2485       3.7624e+9 
           2495      3.43164e+9 
           2505      3.65465e+9 
           2513      3.52076e+9 
           2518      3.60204e+9 
           2525      3.57884e+9 
           2535      3.53689e+9 
           2545      3.44092e+9 
           2555      3.43995e+9 
           2565      3.40161e+9 
           2575       3.3786e+9 
           2585      3.33599e+9 
           2595      3.29852e+9 
           2605      3.27308e+9 
           2615      3.23184e+9 
           2625      3.20076e+9 
           2635      3.16338e+9 
           2645      3.12357e+9 
           2655      3.09324e+9 
           2665      3.02223e+9 
           2675      3.00162e+9 
           2685      2.98939e+9 
           2695      2.90438e+9 
           2705      2.88408e+9 
           2715      2.86369e+9 
           2725      2.82566e+9 
           2735      2.80882e+9 
           2745      2.75719e+9 
           2755      2.73825e+9 
           2765      2.69478e+9 
           2775      2.69526e+9 
           2785      2.65704e+9 
           2795      2.57672e+9 
           2805      2.58361e+9 
           2815      2.57604e+9 
           2825      2.52781e+9 
           2835      2.46745e+9 
           2845      2.48764e+9 
           2855      2.45162e+9 
           2865      2.43266e+9 
           2875       2.4061e+9 
           2885      2.38094e+9 
           2895      2.35045e+9 
           2910      2.30715e+9 
           2930      2.26229e+9 
           2950      2.19726e+9 
           2970      2.16593e+9 
           2990      2.11682e+9 
           3010      2.05897e+9 
           3030      2.03242e+9 
           3050      1.99273e+9 
           3070       1.9539e+9 
           3090      1.89294e+9 
           3110      1.87151e+9 
           3130      1.83068e+9 
           3150      1.79547e+9 
           3170       1.7556e+9 
           3190      1.71122e+9 
           3210      1.68931e+9 
           3230       1.6526e+9 
           3250      1.62258e+9 
           3270      1.58997e+9 
           3290      1.55716e+9 
           3310      1.52963e+9 
           3330      1.49864e+9 
           3350      1.46868e+9 
           3370      1.44168e+9 
           3390      1.41584e+9 
           3410      1.38923e+9 
           3430      1.35688e+9 
           3450      1.32682e+9 
           3470      1.30481e+9 
           3490      1.27982e+9 
           3510      1.25977e+9 
           3530      1.24021e+9 
           3550      1.21743e+9 
           3570      1.20093e+9 
           3590      1.16914e+9 
           3610      1.14989e+9 
           3630      1.12937e+9 
           3640      1.12749e+9 
           3650      1.10433e+9 
           3670      1.09059e+9 
           3690      1.06721e+9 
           3710      1.03031e+9 
           3730      9.91856e+8 
           3750      1.03309e+9 
           3770      1.02738e+9 
           3790      1.06857e+9 
           3810      1.10459e+9 
           3830      9.78209e+8 
           3850      1.12021e+9 
           3870       1.1141e+9 
           3890      9.27328e+8 
           3910       1.0978e+9 
           3930      1.06966e+9 
           3950      1.05745e+9 
           3970       8.6062e+8 
           3990      1.01771e+9 
           4010      1.00929e+9 
           4030      9.58009e+8 
           4050      9.81299e+8 
           4070      9.48345e+8 
           4090      8.89637e+8 
           4110      7.94758e+8 
           4130      8.97755e+8 
           4150      8.90589e+8 
           4170      8.83301e+8 
           4190      8.70769e+8 
           4210      8.59794e+8 
           4230      8.43493e+8 
           4250      8.25311e+8 
           4270      8.04808e+8 
           4290       7.9636e+8 
           4310      7.77183e+8 
           4330      7.18701e+8 
           4350      6.59866e+8 
           4370      7.38845e+8 
           4390      7.21123e+8 
           4410        7.219e+8 
           4430      7.12209e+8 
           4450      7.02074e+8 
           4470      6.67769e+8 
           4490      6.79231e+8 
           4510      6.71664e+8 
           4530      6.60624e+8 
           4550      6.49698e+8 
           4570      6.38955e+8 
           4590      6.29018e+8 
           4610      6.17952e+8 
           4630      6.08654e+8 
           4650       5.9247e+8 
           4670      5.90032e+8 
           4690      5.83075e+8 
           4710      5.64412e+8 
           4730      5.63842e+8 
           4750      5.54629e+8 
           4770      5.50567e+8 
           4790      5.41809e+8 
           4810      5.32265e+8 
           4830      5.21746e+8 
           4850      4.90097e+8 
           4870      4.41968e+8 
           4890       4.9919e+8 
           4910      4.94209e+8 
           4930      4.77606e+8 
           4950      4.79812e+8 
           4970      4.74692e+8 
           4990      4.67506e+8 
           5010      4.52269e+8 
           5030       4.5398e+8 
           5050      4.44335e+8 
           5070      4.41466e+8 
           5090      4.34979e+8 
           5110      4.28623e+8 
           5130      4.21437e+8 
           5150      4.15755e+8 
           5170       4.1098e+8 
           5190      4.05483e+8 
           5210      3.99503e+8 
           5230      3.94264e+8 
           5250      3.88901e+8 
           5270       3.8335e+8 
           5290      3.78357e+8 
           5310      3.73067e+8 
           5330      3.68098e+8 
           5350      3.62929e+8 
           5370      3.58349e+8 
           5390        3.534e+8 
           5410      3.48797e+8 
           5430      3.44034e+8 
           5450      3.39396e+8 
           5470      3.34916e+8 
           5490      3.30543e+8 
           5510      3.26386e+8 
           5530      3.21911e+8 
           5550      3.17919e+8 
           5570      3.13685e+8 
           5590      3.09721e+8 
           5610      3.05625e+8 
           5630      3.01781e+8 
           5650      2.97454e+8 
           5670      2.93004e+8 
           5690      2.88737e+8 
           5710      2.86232e+8 
           5730        2.827e+8 
           5750      2.78674e+8 
           5770      2.75829e+8 
           5790      2.72309e+8 
           5810      2.68919e+8 
           5830      2.65315e+8 
           5850      2.62172e+8 
           5870      2.51948e+8 
           5890      2.54573e+8 
           5910      2.52324e+8 
           5930      2.49029e+8 
           5950        2.459e+8 
           5970      2.43494e+8 
           5990      2.40138e+8 
           6010      2.37489e+8 
           6030      2.34455e+8 
           6050      2.31735e+8 
           6070      2.29055e+8 
           6090      2.26313e+8 
           6110      2.23623e+8 
           6130      2.20993e+8 
           6150      2.17985e+8 
           6170      2.15564e+8 
           6190      2.13171e+8 
           6210      2.10696e+8 
           6230      2.08249e+8 
           6250      2.05674e+8 
           6270      2.03348e+8 
           6290      2.01019e+8 
           6310       1.9863e+8 
           6330      1.96399e+8 
           6350      1.93912e+8 
           6370      1.91842e+8 
           6390      1.89647e+8 
           6410      1.87493e+8 
           6430      1.85399e+8 
           6450      1.83273e+8 
           6470      1.80936e+8 
           6490      1.78955e+8 
           6510      1.77084e+8 
           6530      1.74472e+8 
           6550      1.68149e+8 
           6570      1.50264e+8 
           6590      1.67319e+8 
           6610      1.67179e+8 
           6630      1.65555e+8 
           6650       1.6376e+8 
           6670      1.60544e+8 
           6690      1.58819e+8 
           6710      1.58485e+8 
           6730      1.56604e+8 
           6750      1.55066e+8 
           6770      1.53378e+8 
           6790      1.51242e+8 
           6810      1.49998e+8 
           6830      1.48378e+8 
           6850      1.46838e+8 
           6870      1.45266e+8 
           6890      1.43654e+8 
           6910       1.4209e+8 
           6930      1.40651e+8 
           6950      1.39172e+8 
           6970        1.377e+8 
           6990      1.36235e+8 
           7010      1.34807e+8 
           7030      1.33385e+8 
           7050      1.31985e+8 
           7070      1.28617e+8 
           7090      1.29256e+8 
           7110      1.27747e+8 
           7130      1.26491e+8 
           7150      1.25268e+8 
           7170      1.23962e+8 
           7190      1.22712e+8 
           7210      1.21453e+8 
           7230      1.19138e+8 
           7250      1.18905e+8 
           7270       1.1776e+8 
           7290      1.15654e+8 
           7310      1.15368e+8 
           7330      1.14213e+8 
           7350      1.13069e+8 
           7370      1.11936e+8 
           7390      1.10814e+8 
           7410      1.09709e+8 
           7430        1.086e+8 
           7450      1.07536e+8 
           7470      1.06326e+8 
           7490       1.0541e+8 
           7510      1.04335e+8 
           7530      1.03323e+8 
           7550      1.02334e+8 
           7570      1.01334e+8 
           7590      1.00342e+8 
           7610      9.93213e+7 
           7630      9.83871e+7 
           7650      9.74421e+7 
           7670      9.64927e+7 
           7690      9.55582e+7 
           7710      9.46385e+7 
           7730      9.37207e+7 
           7750      9.28299e+7 
           7770      9.18097e+7 
           7790       9.1072e+7 
           7810      9.01491e+7 
           7830       8.9345e+7 
           7850      8.85541e+7 
           7870       8.7691e+7 
           7890      8.67689e+7 
           7910      8.60778e+7 
           7930      8.52428e+7 
           7950      8.43972e+7 
           7970      8.34759e+7 
           7990      8.26986e+7 
           8010       8.1928e+7 
           8030      8.11698e+7 
           8050      8.04647e+7 
           8070      7.97771e+7 
           8090      7.88939e+7 
           8110      7.81386e+7 
           8130      7.76236e+7 
           8150       7.6795e+7 
           8170      7.62332e+7 
           8190      7.53727e+7 
           8210      7.45029e+7 
           8230      7.39522e+7 
           8250      7.34003e+7 
           8270      7.22801e+7 
           8290      7.20085e+7 
           8310       7.1395e+7 
           8330      7.07376e+7 
           8350       6.9767e+7 
           8370      6.93426e+7 
           8390      6.88358e+7 
           8410      6.82051e+7 
           8430      6.75373e+7 
           8450      6.64741e+7 
           8470      6.62445e+7 
           8490      6.56296e+7 
           8510       6.4869e+7 
           8530      6.45599e+7 
           8550      6.30936e+7 
           8570      6.41331e+7 
           8590      6.16037e+7 
