# Kurucz ODFNEW /NOVER (2003)
# teff = 20000 K (value for the effective temperature for the model. Temperatures are given in K)
# logg = 3 log(cm/s2) (value for Log(G) for the model.)
# meta = -1  (value for the Metallicity for the model.)
# lh = 1.25  (l/Hp where l is the  mixing length of the convective element and Hp is the pressure scale height)
# vtur = 2 km/s (Microturbulence velocity)
# alpha = 0  (Alpha)
#
# column 1: WAVELENGTH (ANGSTROM), Wavelength in Angstrom
# column 2: FLUX (ERG/CM2/S/A), Flux in erg/cm2/s/A
          147.2     5.29421e-20 
            151     3.47666e-19 
          155.2     2.51403e-18 
          158.8     1.26622e-17 
            162     5.03095e-17 
            166     2.62532e-16 
          170.3     1.42523e-15 
          173.4     4.58728e-15 
          176.8     1.57835e-14 
          180.2     5.18664e-14 
          181.7     8.64432e-14 
          186.1     3.69047e-13 
            191     1.71764e-12 
          193.9     4.11347e-12 
          198.4     1.51629e-11 
          201.8     3.90807e-11 
            205     9.25396e-11 
          210.5     3.82534e-10 
          216.2      1.54093e-9 
          219.8      3.57617e-9 
            223        7.383e-9 
          226.8        1.699e-8 
            230       1.6262e-7 
            234      4.15355e-7 
            240      1.24785e-6 
          246.5      3.86189e-6 
          252.4      1.03375e-5 
          256.8      2.02034e-5 
            260      3.39647e-5 
            264      6.16964e-5 
          268.5     0.000117985 
          273.5     0.000236214 
          278.5     0.000462306 
            284     0.000941543 
            290      0.00197633 
            296      0.00401672 
            301      0.00709374 
            308       0.0149466 
            318       0.0430137 
            328        0.112643 
            338        0.280532 
            348        0.658461 
            357         1.36915 
            366          2.7364 
            375         5.22773 
            385         10.3977 
            395          19.878 
            405         36.7623 
            414         62.3091 
            422         97.2032 
            430         148.952 
            441         262.245 
            451         426.717 
            460          647.01 
            470         1009.36 
            480         1539.72 
            490         2309.33 
            500          3399.3 
            506         28078.6 
            512          103508 
            520          133157 
            530          193957 
            540          218738 
            550          333328 
            560          411147 
            570          527966 
            580          531240 
            590          734325 
            600          949996 
            610      1.17615e+6 
            620      1.38745e+6 
            630      1.65831e+6 
            640      1.87252e+6 
            650      2.12181e+6 
            658      2.59095e+6 
            665      2.84806e+6 
            675      3.18466e+6 
            685      3.62804e+6 
            695      4.35447e+6 
            705      4.88253e+6 
            716      5.65326e+6 
            726       6.2894e+6 
            735      6.96861e+6 
            745      7.99852e+6 
            755      8.96114e+6 
            765      9.98754e+6 
            775      1.11603e+7 
            785      1.24043e+7 
            795      1.35426e+7 
            805      1.48407e+7 
            815      1.60776e+7 
            825      1.78201e+7 
            835      1.87861e+7 
            845       2.0684e+7 
            855       2.2368e+7 
            865      2.43945e+7 
            875      2.66831e+7 
            885      2.90576e+7 
            895      3.12276e+7 
            905      3.26963e+7 
            915      6.47377e+7 
            925      9.08466e+8 
            935      2.71098e+9 
            945      5.54363e+9 
            955       6.7921e+9 
            965      7.89606e+9 
            975      2.18538e+9 
            985      7.75106e+9 
            995      7.45601e+9 
           1005      8.24495e+9 
           1015      8.04379e+9 
           1025      4.03793e+9 
           1035      6.30177e+9 
           1045      9.19033e+9 
           1055      8.66932e+9 
           1065      7.64868e+9 
           1075      8.59033e+9 
           1085      7.74404e+9 
           1095      8.66397e+9 
           1105       7.9849e+9 
           1115      7.98261e+9 
           1125      7.20522e+9 
           1135      8.27666e+9 
           1145      7.72783e+9 
           1155      7.99956e+9 
           1165      8.11402e+9 
           1175      6.31064e+9 
           1185      7.99483e+9 
           1195      7.16354e+9 
           1205       5.0375e+9 
           1215      3.01771e+9 
           1225      6.61814e+9 
           1235      7.42628e+9 
           1245       7.5019e+9 
           1255      7.30365e+9 
           1265      7.14979e+9 
           1275      7.37526e+9 
           1285      7.22852e+9 
           1295      5.84585e+9 
           1305      6.06364e+9 
           1315      7.00551e+9 
           1325      6.68752e+9 
           1335       6.2886e+9 
           1345      6.57799e+9 
           1355      6.58057e+9 
           1365      6.24612e+9 
           1375      6.16038e+9 
           1385      6.16817e+9 
           1395      5.44954e+9 
           1405      5.67644e+9 
           1415      5.80704e+9 
           1425      5.73825e+9 
           1435      5.79138e+9 
           1442      5.85414e+9 
           1447      5.74754e+9 
           1455      5.65123e+9 
           1465      5.43883e+9 
           1475      5.39772e+9 
           1485       5.3104e+9 
           1495       5.2342e+9 
           1505      4.99273e+9 
           1512      4.63813e+9 
           1517      4.76099e+9 
           1525      4.80367e+9 
           1535      4.41048e+9 
           1545      4.49814e+9 
           1555      4.28934e+9 
           1565      4.44635e+9 
           1575      4.55819e+9 
           1585       4.4995e+9 
           1595      4.50827e+9 
           1605      4.39143e+9 
           1615      4.33201e+9 
           1625      4.28343e+9 
           1635      4.37677e+9 
           1645      4.31341e+9 
           1655       4.2294e+9 
           1665      4.29181e+9 
           1672      4.16081e+9 
           1677      4.28218e+9 
           1685      4.22251e+9 
           1695      4.07383e+9 
           1705      3.94066e+9 
           1715      3.79352e+9 
           1725       3.7641e+9 
           1735      3.82033e+9 
           1745      3.73732e+9 
           1755      3.77778e+9 
           1765      3.61574e+9 
           1775      3.55921e+9 
           1785      3.56591e+9 
           1795      3.61234e+9 
           1805      3.60388e+9 
           1815      3.37181e+9 
           1825      3.43958e+9 
           1835      3.36337e+9 
           1845      3.13677e+9 
           1855      3.07852e+9 
           1865      3.12574e+9 
           1875      3.22987e+9 
           1885      2.95777e+9 
           1895      2.78564e+9 
           1905      2.96388e+9 
           1915      2.83418e+9 
           1925      2.74412e+9 
           1935       2.8419e+9 
           1945      2.87997e+9 
           1955      2.66774e+9 
           1967      2.81591e+9 
           1976      2.90359e+9 
           1984      2.73274e+9 
           1995      2.66728e+9 
           2005       2.7189e+9 
           2015        2.711e+9 
           2025      2.76045e+9 
           2035      2.58811e+9 
           2045      2.59475e+9 
           2055      2.52861e+9 
           2065      2.54606e+9 
           2074      2.64049e+9 
           2078      2.46911e+9 
           2085      2.52249e+9 
           2095      2.41487e+9 
           2105      2.46016e+9 
           2115      2.44655e+9 
           2125      2.47881e+9 
           2135      2.43242e+9 
           2145      2.33127e+9 
           2155      2.39129e+9 
           2165      2.36901e+9 
           2175      2.33637e+9 
           2185      2.29641e+9 
           2195      2.30048e+9 
           2205      2.27098e+9 
           2215      2.24131e+9 
           2225      2.19465e+9 
           2235      2.17799e+9 
           2245       2.1768e+9 
           2255      2.12538e+9 
           2265      2.13148e+9 
           2275      2.10499e+9 
           2285      2.09851e+9 
           2295      2.02533e+9 
           2305      2.04297e+9 
           2315       1.9985e+9 
           2325      1.97953e+9 
           2335      1.92959e+9 
           2345      1.91097e+9 
           2355      1.92052e+9 
           2365      1.88559e+9 
           2375      1.86774e+9 
           2385      1.84032e+9 
           2395      1.83248e+9 
           2405      1.80587e+9 
           2415      1.78093e+9 
           2425      1.78652e+9 
           2435      1.74919e+9 
           2445      1.74109e+9 
           2455      1.73544e+9 
           2465       1.7052e+9 
           2475      1.68893e+9 
           2485      1.67109e+9 
           2495      1.60919e+9 
           2505      1.63677e+9 
           2513      1.58389e+9 
           2518      1.61213e+9 
           2525      1.59215e+9 
           2535      1.56801e+9 
           2545      1.54129e+9 
           2555      1.55256e+9 
           2565      1.52754e+9 
           2575      1.52695e+9 
           2585      1.51019e+9 
           2595      1.49466e+9 
           2605      1.48798e+9 
           2615      1.47216e+9 
           2625      1.45741e+9 
           2635      1.43948e+9 
           2645      1.43971e+9 
           2655      1.42659e+9 
           2665      1.40232e+9 
           2675      1.39433e+9 
           2685      1.38799e+9 
           2695      1.35851e+9 
           2705      1.35549e+9 
           2715      1.34108e+9 
           2725      1.31832e+9 
           2735      1.31766e+9 
           2745      1.28263e+9 
           2755      1.27715e+9 
           2765      1.26532e+9 
           2775       1.2683e+9 
           2785      1.25241e+9 
           2795      1.21491e+9 
           2805      1.22169e+9 
           2815      1.21963e+9 
           2825       1.1985e+9 
           2835      1.17394e+9 
           2845      1.18059e+9 
           2855       1.1697e+9 
           2865      1.16206e+9 
           2875      1.14979e+9 
           2885      1.13966e+9 
           2895      1.12794e+9 
           2910       1.1114e+9 
           2930      1.08851e+9 
           2950      1.06246e+9 
           2970      1.04987e+9 
           2990      1.02799e+9 
           3010      1.00843e+9 
           3030      9.93598e+8 
           3050      9.75345e+8 
           3070      9.57562e+8 
           3090      9.37079e+8 
           3110      9.22495e+8 
           3130      9.06629e+8 
           3150      8.90217e+8 
           3170      8.73246e+8 
           3190       8.5189e+8 
           3210      8.43063e+8 
           3230      8.27924e+8 
           3250      8.13593e+8 
           3270      7.99972e+8 
           3290       7.8495e+8 
           3310      7.72811e+8 
           3330      7.59411e+8 
           3350      7.44999e+8 
           3370      7.33529e+8 
           3390      7.21195e+8 
           3410      7.09034e+8 
           3430      6.93585e+8 
           3450      6.79616e+8 
           3470      6.70303e+8 
           3490      6.59921e+8 
           3510      6.52422e+8 
           3530      6.42329e+8 
           3550      6.31943e+8 
           3570      6.23907e+8 
           3590      6.10544e+8 
           3610      6.00589e+8 
           3630      5.91101e+8 
           3640      5.89621e+8 
           3650      5.79014e+8 
           3670      5.71462e+8 
           3690      5.51505e+8 
           3710      5.54032e+8 
           3730      5.59182e+8 
           3750        6.231e+8 
           3770      6.25121e+8 
           3790      6.40939e+8 
           3810      6.63866e+8 
           3830      5.92616e+8 
           3850      6.70501e+8 
           3870      6.60318e+8 
           3890       5.6885e+8 
           3910      6.49686e+8 
           3930      6.31822e+8 
           3950      6.28748e+8 
           3970       5.2873e+8 
           3990      6.06881e+8 
           4010      5.97679e+8 
           4030      5.73274e+8 
           4050      5.82578e+8 
           4070      5.70181e+8 
           4090      5.46308e+8 
           4110      4.87948e+8 
           4130      5.38627e+8 
           4150      5.32748e+8 
           4170      5.27498e+8 
           4190      5.21101e+8 
           4210      5.13632e+8 
           4230      5.05228e+8 
           4250      4.96876e+8 
           4270      4.86034e+8 
           4290      4.81635e+8 
           4310      4.73221e+8 
           4330      4.46777e+8 
           4350      4.10266e+8 
           4370      4.51478e+8 
           4390      4.39261e+8 
           4410       4.3918e+8 
           4430      4.31365e+8 
           4450      4.26925e+8 
           4470      4.09312e+8 
           4490      4.13242e+8 
           4510      4.08585e+8 
           4530      4.02249e+8 
           4550       3.9621e+8 
           4570      3.90296e+8 
           4590      3.84935e+8 
           4610      3.79121e+8 
           4630       3.7355e+8 
           4650      3.67034e+8 
           4670      3.63033e+8 
           4690      3.58385e+8 
           4710      3.48606e+8 
           4730      3.46741e+8 
           4750       3.4149e+8 
           4770      3.38666e+8 
           4790      3.33791e+8 
           4810      3.28725e+8 
           4830      3.23747e+8 
           4850      3.09295e+8 
           4870       2.7955e+8 
           4890      3.10385e+8 
           4910      3.06877e+8 
           4930      2.97727e+8 
           4950      2.98493e+8 
           4970      2.94662e+8 
           4990      2.90565e+8 
           5010      2.82696e+8 
           5030      2.82686e+8 
           5050      2.76684e+8 
           5070      2.75224e+8 
           5090      2.71553e+8 
           5110      2.67873e+8 
           5130      2.63971e+8 
           5150      2.60518e+8 
           5170      2.57478e+8 
           5190      2.54098e+8 
           5210      2.50403e+8 
           5230      2.47499e+8 
           5250      2.44292e+8 
           5270      2.41084e+8 
           5290      2.38026e+8 
           5310      2.34927e+8 
           5330      2.31894e+8 
           5350      2.28808e+8 
           5370      2.26088e+8 
           5390      2.23194e+8 
           5410      2.20376e+8 
           5430      2.17427e+8 
           5450      2.14756e+8 
           5470      2.12068e+8 
           5490      2.09463e+8 
           5510      2.06853e+8 
           5530      2.04275e+8 
           5550      2.01778e+8 
           5570      1.99251e+8 
           5590      1.96827e+8 
           5610      1.94349e+8 
           5630      1.92044e+8 
           5650      1.89412e+8 
           5670      1.87047e+8 
           5690      1.84722e+8 
           5710      1.82806e+8 
           5730      1.80614e+8 
           5750       1.7838e+8 
           5770      1.76342e+8 
           5790      1.74227e+8 
           5810      1.72159e+8 
           5830      1.70082e+8 
           5850      1.68096e+8 
           5870      1.62218e+8 
           5890       1.6379e+8 
           5910      1.62187e+8 
           5930      1.60248e+8 
           5950      1.58322e+8 
           5970      1.56607e+8 
           5990      1.54723e+8 
           6010      1.52986e+8 
           6030      1.51206e+8 
           6050      1.49488e+8 
           6070      1.47778e+8 
           6090      1.46078e+8 
           6110      1.44427e+8 
           6130      1.42784e+8 
           6150       1.4105e+8 
           6170      1.39533e+8 
           6190      1.37984e+8 
           6210      1.36433e+8 
           6230      1.34898e+8 
           6250      1.33361e+8 
           6270      1.31898e+8 
           6290      1.30432e+8 
           6310      1.28963e+8 
           6330      1.27567e+8 
           6350       1.2598e+8 
           6370      1.24689e+8 
           6390      1.23383e+8 
           6410      1.22037e+8 
           6430      1.20723e+8 
           6450      1.19405e+8 
           6470      1.18056e+8 
           6490      1.16802e+8 
           6510      1.15561e+8 
           6530      1.14183e+8 
           6550      1.10957e+8 
           6570      9.97661e+7 
           6590       1.0984e+8 
           6610      1.09478e+8 
           6630      1.08356e+8 
           6650      1.07279e+8 
           6670      1.05367e+8 
           6690      1.04275e+8 
           6710      1.03922e+8 
           6730      1.02822e+8 
           6750      1.01768e+8 
           6770      1.00707e+8 
           6790      9.95343e+7 
           6810      9.86094e+7 
           6830      9.75966e+7 
           6850       9.6594e+7 
           6870      9.56014e+7 
           6890      9.46107e+7 
           6910      9.36456e+7 
           6930      9.26745e+7 
           6950      9.17519e+7 
           6970      9.08228e+7 
           6990      8.98875e+7 
           7010       8.8992e+7 
           7030        8.809e+7 
           7050      8.71967e+7 
           7070      8.50611e+7 
           7090      8.54737e+7 
           7110      8.46134e+7 
           7130      8.37689e+7 
           7150      8.29398e+7 
           7170       8.2104e+7 
           7190      8.13126e+7 
           7210      8.05071e+7 
           7230      7.92191e+7 
           7250      7.89259e+7 
           7270      7.81644e+7 
           7290      7.68145e+7 
           7310      7.66345e+7 
           7330      7.59013e+7 
           7350      7.51681e+7 
           7370      7.44416e+7 
           7390      7.37219e+7 
           7410      7.30157e+7 
           7430      7.23093e+7 
           7450      7.16297e+7 
           7470      7.09293e+7 
           7490       7.0269e+7 
           7510      6.95746e+7 
           7530      6.89397e+7 
           7550      6.82908e+7 
           7570      6.76477e+7 
           7590      6.70105e+7 
           7610       6.6379e+7 
           7630      6.57597e+7 
           7650      6.51459e+7 
           7670      6.45377e+7 
           7690      6.39285e+7 
           7710      6.33361e+7 
           7730      6.27553e+7 
           7750      6.21684e+7 
           7770      6.15143e+7 
           7790      6.10375e+7 
           7810      6.04263e+7 
           7830      5.99238e+7 
           7850      5.94245e+7 
           7870      5.88862e+7 
           7890      5.82867e+7 
           7910      5.77798e+7 
           7930      5.71772e+7 
           7950      5.66306e+7 
           7970      5.60935e+7 
           7990       5.5607e+7 
           8010      5.51054e+7 
           8030      5.46478e+7 
           8050      5.41964e+7 
           8070      5.37424e+7 
           8090      5.31535e+7 
           8110      5.27227e+7 
           8130      5.23525e+7 
           8150      5.17742e+7 
           8170      5.14466e+7 
           8190      5.09328e+7 
           8210      5.02898e+7 
           8230          5.0e+7 
           8250      4.95813e+7 
           8270      4.88912e+7 
           8290       4.8649e+7 
           8310      4.82444e+7 
           8330      4.78208e+7 
           8350      4.71894e+7 
           8370      4.68169e+7 
           8390      4.64719e+7 
           8410      4.60253e+7 
           8430       4.5602e+7 
           8450      4.50128e+7 
           8470      4.44314e+7 
           8490      4.47684e+7 
           8510      4.34456e+7 
           8530      4.43112e+7 
           8550      4.20299e+7 
           8570      4.43274e+7 
           8590      4.19896e+7 
