# Kurucz ODFNEW /NOVER (2003)
# teff = 9750 K (value for the effective temperature for the model. Temperatures are given in K)
# logg = 2 log(cm/s2) (value for Log(G) for the model.)
# meta = -1  (value for the Metallicity for the model.)
# lh = 1.25  (l/Hp where l is the  mixing length of the convective element and Hp is the pressure scale height)
# vtur = 2 km/s (Microturbulence velocity)
# alpha = 0.4  (Alpha)
#
# column 1: WAVELENGTH (ANGSTROM), Wavelength in Angstrom
# column 2: FLUX (ERG/CM2/S/A), Flux in erg/cm2/s/A
          273.5     2.07885e-23 
          278.5     1.30278e-22 
            284     6.18043e-22 
            290     3.09214e-21 
            296      1.4424e-20 
            301     4.96936e-20 
            308     2.62163e-19 
            318     2.48173e-18 
            328     2.04739e-17 
            338     1.48583e-16 
            348     9.61204e-16 
            357      4.7144e-15 
            366     2.13465e-14 
            375     8.96355e-14 
            385     4.07165e-13 
            395     1.70974e-12 
            405     6.67812e-12 
            414     2.14747e-11 
            422     5.80482e-11 
            430     1.50977e-10 
            441     5.30727e-10 
            451      1.57429e-9 
            460       4.0153e-9 
            470      1.08714e-8 
            480       2.8186e-8 
            490      7.02025e-8 
            500      1.68293e-7 
            506      4.20318e-7 
            512      7.84316e-7 
            520      1.45843e-6 
            530      3.10691e-6 
            540      6.32727e-6 
            550      1.27727e-5 
            560      2.48935e-5 
            570       4.7348e-5 
            580      8.70588e-5 
            590     0.000159804 
            600     0.000284567 
            610     0.000497038 
            620     0.000851336 
            630       0.0014325 
            640      0.00236744 
            650      0.00385432 
            658      0.00562513 
            665      0.00776741 
            675       0.0121678 
            685       0.0188025 
            695       0.0286799 
            705       0.0431686 
            716       0.0667604 
            726       0.0980284 
            735        0.137156 
            745         0.19718 
            755        0.280585 
            765        0.395253 
            775        0.551673 
            785        0.762843 
            795          1.0452 
            805         1.42128 
            815         1.91647 
            825         2.56367 
            835         3.39704 
            845         4.48308 
            855         5.86513 
            865         7.62245 
            875         9.83667 
            885         12.6247 
            895         16.0968 
            905         20.3777 
            915         528.539 
            925         3536.42 
            935         5997.25 
            945         14988.2 
            955          327985 
            965          494525 
            975         39827.8 
            985      2.38624e+6 
            995      3.30319e+6 
           1005      3.08239e+6 
           1015          884645 
           1025         28537.7 
           1035          614000 
           1045      4.88081e+6 
           1055      7.73716e+6 
           1065      7.64536e+6 
           1075      9.59896e+6 
           1085      9.89166e+6 
           1095      1.03166e+7 
           1105      1.86229e+7 
           1115      3.51207e+7 
           1125      3.99553e+7 
           1135      4.32549e+7 
           1145      3.98734e+7 
           1155      3.92734e+7 
           1165      3.89574e+7 
           1175      3.03539e+7 
           1185      2.47311e+7 
           1195          176445 
           1205          131498 
           1215         34829.4 
           1225          137685 
           1235          482093 
           1245      1.92433e+7 
           1255      3.61631e+7 
           1265      2.73208e+7 
           1275       6.0374e+7 
           1285      7.83837e+7 
           1295      6.87291e+7 
           1305      3.86745e+7 
           1315      8.01138e+7 
           1325       9.1415e+7 
           1335      8.29672e+7 
           1345      1.03894e+8 
           1355      9.94318e+7 
           1365      8.68314e+7 
           1375      9.68432e+7 
           1385      1.02088e+8 
           1395      1.04805e+8 
           1405      1.06168e+8 
           1415      9.82717e+7 
           1425      1.02344e+8 
           1435      9.64863e+7 
           1442      1.05308e+8 
           1447      1.12916e+8 
           1455      1.13354e+8 
           1465      1.07093e+8 
           1475      1.01954e+8 
           1485       1.0651e+8 
           1495      1.11307e+8 
           1505      1.12259e+8 
           1512      1.08706e+8 
           1517      1.13586e+8 
           1525      1.04703e+8 
           1535      9.88692e+7 
           1545      1.13728e+8 
           1555       1.0416e+8 
           1565      9.82114e+7 
           1575      1.01843e+8 
           1585      1.09924e+8 
           1595       1.1511e+8 
           1605      1.08597e+8 
           1615      1.08777e+8 
           1625      1.00971e+8 
           1635       1.0448e+8 
           1645      1.06772e+8 
           1655      9.55445e+7 
           1665      1.06227e+8 
           1672      8.45935e+7 
           1677      1.01183e+8 
           1685      1.08897e+8 
           1695      1.03544e+8 
           1705       9.9281e+7 
           1715       9.8712e+7 
           1725      9.80785e+7 
           1735      1.02075e+8 
           1745      1.00427e+8 
           1755      1.07215e+8 
           1765      9.68131e+7 
           1775      1.04522e+8 
           1785       1.0326e+8 
           1795      1.09584e+8 
           1805      1.05456e+8 
           1815      1.04678e+8 
           1825      1.01489e+8 
           1835      9.92913e+7 
           1845      9.46077e+7 
           1855      9.58874e+7 
           1865      9.56601e+7 
           1875      1.01133e+8 
           1885      1.00465e+8 
           1895      9.74129e+7 
           1905      9.52821e+7 
           1915      9.67016e+7 
           1925       9.7498e+7 
           1935      9.76047e+7 
           1945      1.00321e+8 
           1955      9.86074e+7 
           1967      1.00904e+8 
           1976      1.00044e+8 
           1984      9.79662e+7 
           1995      9.52892e+7 
           2005      9.58592e+7 
           2015      9.08944e+7 
           2025      9.32768e+7 
           2035      9.30719e+7 
           2045      9.47763e+7 
           2055       8.9824e+7 
           2065      9.02813e+7 
           2074      9.27487e+7 
           2078      9.42852e+7 
           2085      9.46238e+7 
           2095      9.17227e+7 
           2105      9.10488e+7 
           2115      9.03836e+7 
           2125      9.07279e+7 
           2135      8.13928e+7 
           2145      8.80532e+7 
           2155      8.86818e+7 
           2165      8.54372e+7 
           2175       8.4287e+7 
           2185      8.35568e+7 
           2195      8.80047e+7 
           2205      8.48373e+7 
           2215       7.9343e+7 
           2225      7.74214e+7 
           2235      8.43398e+7 
           2245      7.77001e+7 
           2255      7.67235e+7 
           2265      7.71123e+7 
           2275      8.14074e+7 
           2285      8.28538e+7 
           2295      7.87931e+7 
           2305      7.73947e+7 
           2315      7.55606e+7 
           2325      7.59853e+7 
           2335      7.25167e+7 
           2345      6.79555e+7 
           2355      7.42179e+7 
           2365      6.84525e+7 
           2375      7.16976e+7 
           2385      6.44143e+7 
           2395      6.96053e+7 
           2405      6.66959e+7 
           2415      6.80761e+7 
           2425      7.10072e+7 
           2435      6.81442e+7 
           2445      7.20245e+7 
           2455       6.9545e+7 
           2465       6.9391e+7 
           2475      6.69372e+7 
           2485      7.08958e+7 
           2495      6.88398e+7 
           2505      7.29381e+7 
           2513      6.83046e+7 
           2518      6.94775e+7 
           2525      6.52875e+7 
           2535      6.47792e+7 
           2545      6.49342e+7 
           2555      6.76818e+7 
           2565      6.70348e+7 
           2575      7.05662e+7 
           2585      7.02693e+7 
           2595      6.96952e+7 
           2605      6.70794e+7 
           2615      6.67601e+7 
           2625      6.85706e+7 
           2635      6.89572e+7 
           2645       7.3784e+7 
           2655      7.27536e+7 
           2665      6.89464e+7 
           2675      7.09116e+7 
           2685      7.08651e+7 
           2695      6.85196e+7 
           2705       6.9435e+7 
           2715      6.70896e+7 
           2725      6.74149e+7 
           2735      7.07706e+7 
           2745      6.34413e+7 
           2755      6.34531e+7 
           2765      6.52519e+7 
           2775      6.81972e+7 
           2785      6.75432e+7 
           2795      5.46285e+7 
           2805       5.9837e+7 
           2815      6.85929e+7 
           2825      6.83913e+7 
           2835      6.64051e+7 
           2845      6.46126e+7 
           2855      6.36431e+7 
           2865      6.55862e+7 
           2875      6.43377e+7 
           2885      6.56577e+7 
           2895      6.44182e+7 
           2910       6.7871e+7 
           2930      6.56267e+7 
           2950      6.54845e+7 
           2970      6.56519e+7 
           2990      6.55097e+7 
           3010      6.62263e+7 
           3030      6.57694e+7 
           3050      6.48529e+7 
           3070      6.37949e+7 
           3090      6.42777e+7 
           3110      6.30953e+7 
           3130      6.25876e+7 
           3150        6.268e+7 
           3170      6.20941e+7 
           3190      6.05923e+7 
           3210      6.11156e+7 
           3230      6.00902e+7 
           3250      6.01626e+7 
           3270      6.01511e+7 
           3290      6.01425e+7 
           3310      6.00024e+7 
           3330      5.89713e+7 
           3350      5.80981e+7 
           3370      5.81071e+7 
           3390      5.74989e+7 
           3410      5.79182e+7 
           3430       5.7549e+7 
           3450      5.72319e+7 
           3470      5.65959e+7 
           3490       5.6277e+7 
           3510      5.62001e+7 
           3530      5.60609e+7 
           3550      5.57449e+7 
           3570      5.52432e+7 
           3590      5.48604e+7 
           3610      5.45375e+7 
           3630       5.4104e+7 
           3640      5.39208e+7 
           3650      5.49153e+7 
           3670      5.37869e+7 
           3690      5.51422e+7 
           3710      6.98603e+7 
           3730      9.11761e+7 
           3750      1.21665e+8 
           3770      1.21178e+8 
           3790      1.31196e+8 
           3810      1.41719e+8 
           3830      1.20544e+8 
           3850      1.43799e+8 
           3870      1.45903e+8 
           3890      1.14497e+8 
           3910      1.42308e+8 
           3930      1.39843e+8 
           3950      1.40003e+8 
           3970      1.07787e+8 
           3990      1.36168e+8 
           4010      1.35191e+8 
           4030      1.32843e+8 
           4050      1.32141e+8 
           4070      1.29979e+8 
           4090       1.2356e+8 
           4110      1.03098e+8 
           4130      1.24078e+8 
           4150      1.24005e+8 
           4170      1.22013e+8 
           4190      1.20913e+8 
           4210      1.19618e+8 
           4230      1.17881e+8 
           4250      1.16397e+8 
           4270      1.14984e+8 
           4290      1.13471e+8 
           4310      1.11236e+8 
           4330      1.03365e+8 
           4350      9.07714e+7 
           4370      1.08007e+8 
           4390      1.06024e+8 
           4410      1.05411e+8 
           4430      1.04306e+8 
           4450      1.03049e+8 
           4470      1.01441e+8 
           4490      9.95207e+7 
           4510      9.89753e+7 
           4530      9.77471e+7 
           4550      9.59561e+7 
           4570      9.56845e+7 
           4590      9.42105e+7 
           4610      9.39001e+7 
           4630      9.21152e+7 
           4650        9.168e+7 
           4670      9.05181e+7 
           4690      8.95388e+7 
           4710      8.81177e+7 
           4730      8.74364e+7 
           4750      8.64144e+7 
           4770      8.54876e+7 
           4790      8.44895e+7 
           4810      8.34302e+7 
           4830       8.2232e+7 
           4850      7.68642e+7 
           4870      6.53057e+7 
           4890      7.93567e+7 
           4910      7.87975e+7 
           4930      7.75519e+7 
           4950       7.7051e+7 
           4970      7.62155e+7 
           4990      7.53047e+7 
           5010      7.39077e+7 
           5030      7.35192e+7 
           5050      7.22245e+7 
           5070       7.1968e+7 
           5090      7.11767e+7 
           5110      7.03364e+7 
           5130      6.96072e+7 
           5150      6.87793e+7 
           5170      6.76182e+7 
           5190      6.70421e+7 
           5210      6.65062e+7 
           5230      6.55798e+7 
           5250       6.5118e+7 
           5270      6.41119e+7 
           5290      6.37371e+7 
           5310      6.27956e+7 
           5330      6.22974e+7 
           5350      6.17219e+7 
           5370      6.10487e+7 
           5390      6.04007e+7 
           5410      5.97117e+7 
           5430      5.90567e+7 
           5450       5.8496e+7 
           5470      5.78436e+7 
           5490      5.72642e+7 
           5510      5.66408e+7 
           5530      5.60556e+7 
           5550       5.5497e+7 
           5570      5.49086e+7 
           5590      5.43452e+7 
           5610      5.37884e+7 
           5630      5.32334e+7 
           5650      5.26318e+7 
           5670      5.21064e+7 
           5690         5.16e+7 
           5710      5.10716e+7 
           5730      5.05493e+7 
           5750      5.00297e+7 
           5770      4.95216e+7 
           5790      4.90037e+7 
           5810      4.85095e+7 
           5830      4.80188e+7 
           5850      4.75391e+7 
           5870      4.68953e+7 
           5890      4.65546e+7 
           5910      4.61138e+7 
           5930      4.56598e+7 
           5950      4.51373e+7 
           5970      4.47424e+7 
           5990      4.42309e+7 
           6010      4.38682e+7 
           6030      4.34357e+7 
           6050      4.30008e+7 
           6070      4.25799e+7 
           6090      4.21636e+7 
           6110      4.17528e+7 
           6130      4.13464e+7 
           6150       4.0807e+7 
           6170      4.05429e+7 
           6190      4.01535e+7 
           6210      3.97663e+7 
           6230      3.93755e+7 
           6250      3.89117e+7 
           6270      3.86294e+7 
           6290      3.82584e+7 
           6310      3.78744e+7 
           6330      3.75292e+7 
           6350      3.69363e+7 
           6370      3.66583e+7 
           6390       3.6467e+7 
           6410      3.61123e+7 
           6430      3.57851e+7 
           6450       3.5386e+7 
           6470      3.51217e+7 
           6490      3.47696e+7 
           6510      3.44158e+7 
           6530      3.39694e+7 
           6550      3.22493e+7 
           6570      2.68743e+7 
           6590      3.28575e+7 
           6610      3.28167e+7 
           6630      3.25891e+7 
           6650      3.22979e+7 
           6670      3.19809e+7 
           6690      3.16931e+7 
           6710      3.14208e+7 
           6730      3.11237e+7 
           6750      3.08519e+7 
           6770      3.05746e+7 
           6790      3.02958e+7 
           6810      3.00231e+7 
           6830      2.97474e+7 
           6850       2.9484e+7 
           6870      2.92216e+7 
           6890      2.89609e+7 
           6910       2.8702e+7 
           6930      2.84424e+7 
           6950      2.81947e+7 
           6970      2.79463e+7 
           6990      2.77003e+7 
           7010      2.74405e+7 
           7030      2.72152e+7 
           7050      2.69663e+7 
           7070       2.6722e+7 
           7090      2.65077e+7 
           7110      2.62694e+7 
           7130      2.60451e+7 
           7150      2.58163e+7 
           7170       2.5597e+7 
           7190      2.53761e+7 
           7210       2.5158e+7 
           7230      2.49354e+7 
           7250      2.47221e+7 
           7270      2.45149e+7 
           7290      2.43005e+7 
           7310       2.4093e+7 
           7330      2.38923e+7 
           7350      2.36913e+7 
           7370      2.34921e+7 
           7390       2.3292e+7 
           7410      2.30944e+7 
           7430      2.28877e+7 
           7450      2.27025e+7 
           7470      2.25055e+7 
           7490       2.2325e+7 
           7510      2.21362e+7 
           7530      2.19596e+7 
           7550       2.1778e+7 
           7570       2.1596e+7 
           7590      2.14169e+7 
           7610      2.12421e+7 
           7630      2.10661e+7 
           7650      2.08905e+7 
           7670      2.07215e+7 
           7690      2.05514e+7 
           7710       2.0379e+7 
           7730      2.02182e+7 
           7750      2.00538e+7 
           7770      1.96274e+7 
           7790      1.97298e+7 
           7810      1.95714e+7 
           7830      1.94126e+7 
           7850      1.92453e+7 
           7870      1.90558e+7 
           7890       1.8874e+7 
           7910      1.87961e+7 
           7930      1.86475e+7 
           7950      1.84763e+7 
           7970      1.83523e+7 
           7990       1.8133e+7 
           8010       1.8062e+7 
           8030      1.79195e+7 
           8050      1.77771e+7 
           8070      1.76376e+7 
           8090      1.74993e+7 
           8110      1.73604e+7 
           8130      1.72266e+7 
           8150      1.70923e+7 
           8170       1.6959e+7 
           8190      1.68185e+7 
           8210      1.67517e+7 
           8230      1.66164e+7 
           8250      1.65315e+7 
           8270      1.64274e+7 
           8290      1.62874e+7 
           8310      1.61404e+7 
           8330      1.59538e+7 
           8350      1.58327e+7 
           8370      1.55178e+7 
           8390      1.54664e+7 
           8410      1.53103e+7 
           8430      1.55696e+7 
           8450      1.53789e+7 
           8470      1.47854e+7 
           8490      1.60361e+7 
           8510       1.4575e+7 
           8530      1.61915e+7 
           8550      1.42029e+7 
           8570      1.63526e+7 
           8590      1.53744e+7 
           8610      1.49249e+7 
           8630      1.65706e+7 
           8650      1.63073e+7 
           8670      1.36571e+7 
           8690      1.63286e+7 
           8710      1.63555e+7 
           8730      1.61007e+7 
           8750      1.33253e+7 
           8770      1.56412e+7 
           8790      1.58739e+7 
           8810      1.57883e+7 
           8830      1.56086e+7 
           8850      1.50033e+7 
           8870      1.28777e+7 
           8890      1.51965e+7 
           8910      1.51739e+7 
           8930      1.50574e+7 
           8950      1.49836e+7 
           8970      1.48597e+7 
           8990      1.46576e+7 
           9010      1.25558e+7 
           9030      1.36839e+7 
           9050      1.43719e+7 
           9070      1.42829e+7 
           9090      1.41636e+7 
           9110      1.40965e+7 
           9130      1.39946e+7 
           9150      1.39037e+7 
           9170      1.37939e+7 
           9190      1.36576e+7 
           9210      1.33914e+7 
