# Kurucz ODFNEW /NOVER (2003)
# teff = 26000 K (value for the effective temperature for the model. Temperatures are given in K)
# logg = 3 log(cm/s2) (value for Log(G) for the model.)
# meta = 0.2  (value for the Metallicity for the model.)
# lh = 1.25  (l/Hp where l is the  mixing length of the convective element and Hp is the pressure scale height)
# vtur = 2 km/s (Microturbulence velocity)
# alpha = 0  (Alpha)
#
# column 1: WAVELENGTH (ANGSTROM), Wavelength in Angstrom
# column 2: FLUX (ERG/CM2/S/A), Flux in erg/cm2/s/A
          147.2     1.94695e-12 
            151     7.52748e-12 
          155.2     3.11774e-11 
          158.8     9.96552e-11 
            162     2.68853e-10 
            166     8.83091e-10 
          170.3      2.97946e-9 
          173.4      6.93241e-9 
          176.8      1.69044e-8 
          180.2      3.99143e-8 
          181.7       5.7722e-8 
          186.1      1.65112e-7 
            191      5.04203e-7 
          193.9      9.51212e-7 
          198.4      2.45825e-6 
          201.8      4.90172e-6 
            205       9.1948e-6 
          210.5      2.59875e-5 
          216.2      7.21495e-5 
          219.8     0.000134014 
            223     0.000228466 
          226.8     0.000431408 
            230       0.0775322 
            234        0.176132 
            240        0.363747 
          246.5        0.802225 
          252.4         1.60104 
          256.8          2.4909 
            260         4.50298 
            264         7.36746 
          268.5         12.0728 
          273.5         19.4801 
          278.5         29.9821 
            284         69.1701 
            290         115.671 
            296          183.85 
            301          264.93 
            308         628.491 
            318         1508.94 
            328          2750.6 
            338         5505.65 
            348         10010.8 
            357         50652.7 
            366          129578 
            375          176107 
            385          296885 
            395          787142 
            405      1.07639e+6 
            414      1.68235e+6 
            422      2.12709e+6 
            430       2.8598e+6 
            441       3.9391e+6 
            451      4.67335e+6 
            460      5.52258e+6 
            470      7.48684e+6 
            480      9.65369e+6 
            490      1.19684e+7 
            500      1.49625e+7 
            506      4.20318e+7 
            512       4.9803e+8 
            520      4.96004e+8 
            530      4.57413e+8 
            540      4.45086e+8 
            550      6.22332e+8 
            560      8.71331e+8 
            570      9.69919e+8 
            580      8.50396e+8 
            590      9.87224e+8 
            600       7.5034e+8 
            610      1.07339e+9 
            620      1.32845e+9 
            630      1.30636e+9 
            640      1.15613e+9 
            650      7.62402e+8 
            658      9.16146e+8 
            665      1.26421e+9 
            675      1.46739e+9 
            685      1.07007e+9 
            695      1.73209e+9 
            705      1.26641e+9 
            716      1.94723e+9 
            726      1.84549e+9 
            735      1.92101e+9 
            745      1.89232e+9 
            755       1.9486e+9 
            765      2.04901e+9 
            775      2.24974e+9 
            785      2.39454e+9 
            795      2.41747e+9 
            805      2.30529e+9 
            815      2.26948e+9 
            825       2.5505e+9 
            835       1.7907e+9 
            845      2.42702e+9 
            855      2.39851e+9 
            865      2.53083e+9 
            875      2.62856e+9 
            885      2.78175e+9 
            895      2.85026e+9 
            905      2.75018e+9 
            915      5.44423e+9 
            925     1.92146e+10 
            935     2.68624e+10 
            945      2.8237e+10 
            955     2.79937e+10 
            965      2.7461e+10 
            975      7.43056e+9 
            985      1.7986e+10 
            995     2.10872e+10 
           1005     2.48781e+10 
           1015     2.63664e+10 
           1025     2.44757e+10 
           1035     2.39477e+10 
           1045     3.02639e+10 
           1055     2.82554e+10 
           1065     2.38947e+10 
           1075      2.5964e+10 
           1085     2.43586e+10 
           1095     2.61657e+10 
           1105     2.49756e+10 
           1115     2.43281e+10 
           1125     1.82923e+10 
           1135     2.41366e+10 
           1145     2.32114e+10 
           1155     2.28033e+10 
           1165     2.21087e+10 
           1175     1.18665e+10 
           1185     2.01397e+10 
           1195     2.02074e+10 
           1205     1.77099e+10 
           1215     1.76801e+10 
           1225     1.95479e+10 
           1235     2.09366e+10 
           1245     1.96407e+10 
           1255     2.00525e+10 
           1265     2.06113e+10 
           1275     2.12688e+10 
           1285     2.12254e+10 
           1295     1.83963e+10 
           1305     1.91368e+10 
           1315     2.09921e+10 
           1325     2.00821e+10 
           1335     1.94135e+10 
           1345     1.96219e+10 
           1355     1.92946e+10 
           1365      1.8598e+10 
           1375     1.79328e+10 
           1385     1.70119e+10 
           1395     1.06639e+10 
           1405     1.22525e+10 
           1415     1.61625e+10 
           1425     1.51239e+10 
           1435     1.60339e+10 
           1442     1.61317e+10 
           1447     1.59869e+10 
           1455     1.53043e+10 
           1465     1.45928e+10 
           1475     1.50065e+10 
           1485     1.49192e+10 
           1495     1.45335e+10 
           1505     1.38508e+10 
           1512     1.30227e+10 
           1517     1.33821e+10 
           1525     1.31023e+10 
           1535     1.12007e+10 
           1545      9.85136e+9 
           1555      9.77274e+9 
           1565     1.12132e+10 
           1575      1.2044e+10 
           1585     1.21231e+10 
           1595     1.19738e+10 
           1605     1.15252e+10 
           1615     1.10889e+10 
           1625      1.1256e+10 
           1635     1.17027e+10 
           1645     1.18142e+10 
           1655       1.163e+10 
           1665     1.16073e+10 
           1672     1.07679e+10 
           1677     1.25577e+10 
           1685     1.18479e+10 
           1695     1.12791e+10 
           1705     1.12301e+10 
           1715     1.05552e+10 
           1725     1.03783e+10 
           1735     1.07334e+10 
           1745      1.0569e+10 
           1755     1.05393e+10 
           1765     1.05455e+10 
           1775     1.00138e+10 
           1785     1.02055e+10 
           1795     1.01424e+10 
           1805     1.02276e+10 
           1815      9.56889e+9 
           1825        9.723e+9 
           1835      9.63085e+9 
           1845      8.88584e+9 
           1855      9.15848e+9 
           1865      9.23306e+9 
           1875      9.22785e+9 
           1885      8.48844e+9 
           1895      8.06338e+9 
           1905      8.54596e+9 
           1915      8.23772e+9 
           1925      7.75647e+9 
           1935      8.28664e+9 
           1945      8.47451e+9 
           1955      7.58875e+9 
           1967      8.14239e+9 
           1976      8.47815e+9 
           1984      7.98967e+9 
           1995      7.82125e+9 
           2005      8.05624e+9 
           2015      8.05136e+9 
           2025      8.17755e+9 
           2035      7.59604e+9 
           2045      7.62309e+9 
           2055      6.90705e+9 
           2065      6.83873e+9 
           2074      7.36288e+9 
           2078      6.97137e+9 
           2085      7.37708e+9 
           2095      7.01216e+9 
           2105      7.20518e+9 
           2115      7.26328e+9 
           2125      7.27559e+9 
           2135      7.18668e+9 
           2145      6.89343e+9 
           2155      7.06202e+9 
           2165      6.94999e+9 
           2175      6.89372e+9 
           2185      6.77994e+9 
           2195       6.8191e+9 
           2205      6.75467e+9 
           2215      6.65934e+9 
           2225      6.52596e+9 
           2235      6.40479e+9 
           2245      6.40422e+9 
           2255      6.28939e+9 
           2265      6.26562e+9 
           2275      6.21263e+9 
           2285      6.12807e+9 
           2295      5.32218e+9 
           2305      5.92064e+9 
           2315      5.81984e+9 
           2325      5.77817e+9 
           2335      5.67296e+9 
           2345      5.69024e+9 
           2355      5.60425e+9 
           2365      5.53837e+9 
           2375      5.43111e+9 
           2385        5.335e+9 
           2395      5.28345e+9 
           2405      5.25002e+9 
           2415      5.18093e+9 
           2425      5.15539e+9 
           2435      5.05068e+9 
           2445      5.02255e+9 
           2455      4.98228e+9 
           2465      4.90394e+9 
           2475      4.81857e+9 
           2485      4.61838e+9 
           2495      3.16857e+9 
           2505      4.34339e+9 
           2513      4.42023e+9 
           2518      4.50751e+9 
           2525      4.55943e+9 
           2535      4.53654e+9 
           2545      4.41383e+9 
           2555       4.4037e+9 
           2565      4.36771e+9 
           2575      4.32743e+9 
           2585      4.27665e+9 
           2595      4.22731e+9 
           2605      4.19897e+9 
           2615      4.11987e+9 
           2625      4.09297e+9 
           2635      4.06022e+9 
           2645      3.99722e+9 
           2655      3.96262e+9 
           2665      3.85846e+9 
           2675      3.81466e+9 
           2685      3.82487e+9 
           2695      3.72231e+9 
           2705      3.67723e+9 
           2715      3.65106e+9 
           2725      3.63781e+9 
           2735       3.5832e+9 
           2745      3.56244e+9 
           2755      3.53062e+9 
           2765      3.48133e+9 
           2775        3.476e+9 
           2785      3.41587e+9 
           2795      3.31301e+9 
           2805      3.33444e+9 
           2815      3.32386e+9 
           2825      3.28786e+9 
           2835      3.20424e+9 
           2845      3.21327e+9 
           2855      3.16191e+9 
           2865      3.13437e+9 
           2875      3.10271e+9 
           2885      3.07441e+9 
           2895      3.03819e+9 
           2910       2.9714e+9 
           2930      2.93444e+9 
           2950      2.85457e+9 
           2970      2.80263e+9 
           2990      2.73345e+9 
           3010      2.64772e+9 
           3030      2.60882e+9 
           3050      2.57484e+9 
           3070      2.53405e+9 
           3090      2.44481e+9 
           3110      2.43232e+9 
           3130      2.37199e+9 
           3150      2.33316e+9 
           3170      2.27982e+9 
           3190      2.23803e+9 
           3210      2.19272e+9 
           3230      2.14268e+9 
           3250      2.11593e+9 
           3270      2.06077e+9 
           3290      2.02567e+9 
           3310      1.98617e+9 
           3330       1.9406e+9 
           3350      1.90283e+9 
           3370      1.86668e+9 
           3390       1.8438e+9 
           3410      1.80915e+9 
           3430      1.77706e+9 
           3450      1.73734e+9 
           3470      1.70689e+9 
           3490      1.67399e+9 
           3510      1.64439e+9 
           3530      1.62039e+9 
           3550      1.58823e+9 
           3570      1.55954e+9 
           3590      1.52301e+9 
           3610      1.49465e+9 
           3630      1.47082e+9 
           3640      1.45985e+9 
           3650      1.41128e+9 
           3670      1.39138e+9 
           3690      1.35913e+9 
           3710       1.3273e+9 
           3730      1.31007e+9 
           3750      1.34104e+9 
           3770      1.31555e+9 
           3790      1.31125e+9 
           3810      1.32425e+9 
           3830      1.24474e+9 
           3850      1.29215e+9 
           3870      1.25207e+9 
           3890      1.19133e+9 
           3910       1.2306e+9 
           3930      1.19386e+9 
           3950      1.17897e+9 
           3970      1.10326e+9 
           3990        1.148e+9 
           4010      1.12824e+9 
           4030      1.10169e+9 
           4050      1.09269e+9 
           4070      1.05603e+9 
           4090      1.02798e+9 
           4110      9.81337e+8 
           4130      1.01018e+9 
           4150      9.99085e+8 
           4170      9.89524e+8 
           4190      9.73577e+8 
           4210       9.6065e+8 
           4230      9.45419e+8 
           4250      9.23777e+8 
           4270      9.03366e+8 
           4290      8.91708e+8 
           4310      8.72521e+8 
           4330      8.52041e+8 
           4350      8.06795e+8 
           4370      8.34285e+8 
           4390      8.25196e+8 
           4410      8.11161e+8 
           4430      8.05408e+8 
           4450      7.90747e+8 
           4470      7.73147e+8 
           4490      7.68535e+8 
           4510      7.55363e+8 
           4530      7.46193e+8 
           4550      7.33442e+8 
           4570      7.23898e+8 
           4590      7.11666e+8 
           4610       7.0008e+8 
           4630      6.88509e+8 
           4650      6.59253e+8 
           4670      6.67593e+8 
           4690      6.59085e+8 
           4710      6.44737e+8 
           4730       6.4455e+8 
           4750      6.33874e+8 
           4770      6.29315e+8 
           4790      6.19933e+8 
           4810      6.09626e+8 
           4830       5.9963e+8 
           4850      5.89682e+8 
           4870      5.52969e+8 
           4890      5.75805e+8 
           4910      5.67264e+8 
           4930      5.54812e+8 
           4950      5.49169e+8 
           4970      5.45292e+8 
           4990       5.3748e+8 
           5010      5.21791e+8 
           5030      5.21476e+8 
           5050      5.13292e+8 
           5070      5.08297e+8 
           5090      5.00937e+8 
           5110      4.93922e+8 
           5130      4.85998e+8 
           5150      4.79575e+8 
           5170      4.73588e+8 
           5190      4.67749e+8 
           5210      4.61681e+8 
           5230       4.5536e+8 
           5250      4.48508e+8 
           5270      4.42248e+8 
           5290      4.37335e+8 
           5310      4.31375e+8 
           5330      4.25942e+8 
           5350      4.20329e+8 
           5370      4.14839e+8 
           5390      4.08874e+8 
           5410      4.02961e+8 
           5430      3.98873e+8 
           5450      3.93554e+8 
           5470      3.88365e+8 
           5490      3.83365e+8 
           5510      3.78552e+8 
           5530      3.73491e+8 
           5550      3.69128e+8 
           5570      3.64114e+8 
           5590      3.59211e+8 
           5610      3.55218e+8 
           5630      3.50749e+8 
           5650      3.46064e+8 
           5670      3.40709e+8 
           5690      3.33582e+8 
           5710      3.29296e+8 
           5730      3.25441e+8 
           5750      3.20549e+8 
           5770      3.17867e+8 
           5790      3.13966e+8 
           5810      3.10045e+8 
           5830      3.06126e+8 
           5850      3.03409e+8 
           5870       2.9519e+8 
           5890      2.95577e+8 
           5910      2.93106e+8 
           5930      2.89782e+8 
           5950      2.86528e+8 
           5970      2.84125e+8 
           5990      2.79963e+8 
           6010      2.77029e+8 
           6030      2.73329e+8 
           6050      2.70311e+8 
           6070      2.67397e+8 
           6090      2.64354e+8 
           6110      2.61112e+8 
           6130      2.58118e+8 
           6150      2.54549e+8 
           6170      2.51645e+8 
           6190      2.49156e+8 
           6210      2.46392e+8 
           6230      2.43405e+8 
           6250      2.40519e+8 
           6270      2.37865e+8 
           6290      2.35251e+8 
           6310      2.32248e+8 
           6330      2.29908e+8 
           6350      2.27089e+8 
           6370      2.24718e+8 
           6390      2.22114e+8 
           6410      2.19465e+8 
           6430      2.17191e+8 
           6450       2.1465e+8 
           6470      2.11786e+8 
           6490       2.0949e+8 
           6510       2.0737e+8 
           6530      2.04891e+8 
           6550      2.02096e+8 
           6570      1.87139e+8 
           6590       1.9749e+8 
           6610      1.96099e+8 
           6630      1.94154e+8 
           6650       1.9183e+8 
           6670      1.88657e+8 
           6690      1.86605e+8 
           6710      1.85653e+8 
           6730      1.83204e+8 
           6750       1.8169e+8 
           6770      1.79887e+8 
           6790      1.77276e+8 
           6810      1.75976e+8 
           6830      1.74059e+8 
           6850      1.72297e+8 
           6870      1.70401e+8 
           6890      1.68271e+8 
           6910      1.66454e+8 
           6930      1.65149e+8 
           6950      1.63413e+8 
           6970      1.61701e+8 
           6990      1.59982e+8 
           7010      1.58251e+8 
           7030      1.56452e+8 
           7050      1.54936e+8 
           7070      1.51581e+8 
           7090      1.51837e+8 
           7110      1.49694e+8 
           7130       1.4827e+8 
           7150      1.47206e+8 
           7170      1.45558e+8 
           7190      1.44188e+8 
           7210      1.42737e+8 
           7230      1.39873e+8 
           7250      1.39518e+8 
           7270      1.38424e+8 
           7290       1.3624e+8 
           7310      1.35601e+8 
           7330      1.34238e+8 
           7350      1.32923e+8 
           7370      1.31606e+8 
           7390      1.30295e+8 
           7410      1.28995e+8 
           7430      1.27715e+8 
           7450      1.26426e+8 
           7470      1.24791e+8 
           7490      1.23777e+8 
           7510      1.22711e+8 
           7530      1.21462e+8 
           7550       1.2035e+8 
           7570      1.19163e+8 
           7590      1.17823e+8 
           7610      1.16671e+8 
           7630      1.15672e+8 
           7650      1.14572e+8 
           7670      1.13508e+8 
           7690      1.12319e+8 
           7710      1.11243e+8 
           7730      1.10119e+8 
           7750      1.09188e+8 
           7770      1.08134e+8 
           7790      1.07145e+8 
           7810      1.06096e+8 
           7830      1.05119e+8 
           7850      1.04131e+8 
           7870      1.03019e+8 
           7890      1.01989e+8 
           7910      1.01167e+8 
           7930      1.00178e+8 
           7950      9.93287e+7 
           7970      9.83444e+7 
           7990      9.74809e+7 
           8010      9.65015e+7 
           8030      9.56008e+7 
           8050      9.47891e+7 
           8070      9.39265e+7 
           8090      9.29907e+7 
           8110      9.17078e+7 
           8130      9.13939e+7 
           8150      9.04468e+7 
           8170       8.9728e+7 
           8190      8.86163e+7 
           8210      8.74473e+7 
           8230      8.65167e+7 
           8250        8.607e+7 
           8270      8.47454e+7 
           8290      8.44466e+7 
           8310      8.37624e+7 
           8330      8.29426e+7 
           8350       8.1973e+7 
           8370      8.13344e+7 
           8390      8.07544e+7 
           8410      7.99606e+7 
           8430      7.93007e+7 
           8450      7.83823e+7 
           8470      7.75872e+7 
           8490      7.74834e+7 
           8510      7.57619e+7 
           8530      7.63494e+7 
           8550      7.39673e+7 
           8570      7.55306e+7 
           8590       7.3229e+7 
