# Kurucz ODFNEW /NOVER (2003)
# teff = 9750 K (value for the effective temperature for the model. Temperatures are given in K)
# logg = 5 log(cm/s2) (value for Log(G) for the model.)
# meta = -0.5  (value for the Metallicity for the model.)
# lh = 1.25  (l/Hp where l is the  mixing length of the convective element and Hp is the pressure scale height)
# vtur = 2 km/s (Microturbulence velocity)
# alpha = 0  (Alpha)
#
# column 1: WAVELENGTH (ANGSTROM), Wavelength in Angstrom
# column 2: FLUX (ERG/CM2/S/A), Flux in erg/cm2/s/A
          268.5     4.23884e-23 
          273.5     2.06943e-22 
          278.5     8.50919e-22 
            284     3.72713e-21 
            290     1.75249e-20 
            296     7.74089e-20 
            301     2.55878e-19 
            308     1.28057e-18 
            318     1.13026e-17 
            328     8.77077e-17 
            338     6.03623e-16 
            348     3.71335e-15 
            357     1.74739e-14 
            366     7.62593e-14 
            375     3.09367e-13 
            385     1.35628e-12 
            395     5.51868e-12 
            405     2.09055e-11 
            414     6.54984e-11 
            422     1.73411e-10 
            430     4.42418e-10 
            441      1.51367e-9 
            451      4.38664e-9 
            460      1.09796e-8 
            470      2.91424e-8 
            480      7.41245e-8 
            490      1.81273e-7 
            500      4.26955e-7 
            506      7.22321e-7 
            512      1.18436e-6 
            520      2.21203e-6 
            530      4.69859e-6 
            540      9.67921e-6 
            550      1.94293e-5 
            560      3.79793e-5 
            570      7.24123e-5 
            580     0.000134823 
            590     0.000245745 
            600     0.000438314 
            610     0.000766195 
            620      0.00131404 
            630      0.00221311 
            640      0.00366299 
            650      0.00596276 
            658      0.00870639 
            665       0.0120279 
            675        0.018847 
            685       0.0291163 
            695        0.044387 
            705       0.0667952 
            716        0.103218 
            726        0.151435 
            735        0.211759 
            745          0.3042 
            755        0.432447 
            765        0.608631 
            775         0.84839 
            785         1.17165 
            795         1.60378 
            805         2.17657 
            815         2.92972 
            825         3.91228 
            835          5.1846 
            845         6.82046 
            855         8.90875 
            865         11.5573 
            875          14.894 
            885          19.073 
            895         24.2745 
            905          30.711 
            915         154.917 
            925          1086.3 
            935         1938.28 
            945         3479.19 
            955         5062.99 
            965         6770.59 
            975         5403.11 
            985         9842.39 
            995         11045.1 
           1005         13550.4 
           1015         14827.1 
           1025         9817.47 
           1035         18865.9 
           1045         23357.7 
           1055           26758 
           1065         29695.3 
           1075         34607.8 
           1085         39147.4 
           1095         42978.9 
           1105         64542.5 
           1115          812837 
           1125      1.56824e+6 
           1135      2.29206e+6 
           1145      1.73528e+6 
           1155      1.35165e+6 
           1165          808071 
           1175          397133 
           1185          300101 
           1195          162379 
           1205          128498 
           1215         35380.6 
           1225          136327 
           1235          272490 
           1245          427933 
           1255          947358 
           1265      2.27023e+6 
           1275      6.82974e+6 
           1285      1.88373e+7 
           1295      2.77342e+7 
           1305      2.28645e+7 
           1315      4.01669e+7 
           1325      4.98865e+7 
           1335      5.51621e+7 
           1345      6.84976e+7 
           1355      6.34912e+7 
           1365      6.20609e+7 
           1375         6.21e+7 
           1385      4.98607e+7 
           1395      5.08172e+7 
           1405      6.97036e+7 
           1415      8.54809e+7 
           1425      9.53389e+7 
           1435      8.47466e+7 
           1442      1.00422e+8 
           1447      1.03781e+8 
           1455      1.07165e+8 
           1465      9.75462e+7 
           1475       9.7286e+7 
           1485       9.9308e+7 
           1495       1.0696e+8 
           1505      1.09315e+8 
           1512      1.01486e+8 
           1517      1.08835e+8 
           1525      1.02253e+8 
           1535      1.03356e+8 
           1545      1.12642e+8 
           1555      8.67715e+7 
           1565      7.08891e+7 
           1575      9.53948e+7 
           1585      1.06941e+8 
           1595      1.12613e+8 
           1605      1.10466e+8 
           1615      1.13237e+8 
           1625      1.02369e+8 
           1635      1.08842e+8 
           1645      1.28181e+8 
           1655      9.88744e+7 
           1665      1.27162e+8 
           1672      9.96447e+7 
           1677       1.2001e+8 
           1685      1.31873e+8 
           1695      1.14048e+8 
           1705        1.164e+8 
           1715      1.21728e+8 
           1725      1.19354e+8 
           1735      1.25888e+8 
           1745       1.2135e+8 
           1755      1.29934e+8 
           1765      1.12171e+8 
           1775      1.25874e+8 
           1785      1.24539e+8 
           1795      1.32755e+8 
           1805      1.25159e+8 
           1815      1.24287e+8 
           1825        1.188e+8 
           1835      1.17464e+8 
           1845      1.08791e+8 
           1855      1.13894e+8 
           1865      1.15676e+8 
           1875      1.18239e+8 
           1885      1.17815e+8 
           1895      1.17172e+8 
           1905      1.11772e+8 
           1915      1.15786e+8 
           1925      1.16589e+8 
           1935      1.10668e+8 
           1945      1.18455e+8 
           1955       1.1699e+8 
           1967      1.18654e+8 
           1976      1.15173e+8 
           1984       1.1304e+8 
           1995      1.10727e+8 
           2005      1.07864e+8 
           2015      1.05432e+8 
           2025      1.03061e+8 
           2035      1.07354e+8 
           2045      1.09739e+8 
           2055      1.05462e+8 
           2065      1.04249e+8 
           2074      1.07603e+8 
           2078       1.0978e+8 
           2085       1.0855e+8 
           2095      1.04941e+8 
           2105      1.02824e+8 
           2115      1.02898e+8 
           2125      1.03501e+8 
           2135      9.25826e+7 
           2145      1.00818e+8 
           2155      9.99577e+7 
           2165      9.54357e+7 
           2175      9.43451e+7 
           2185      9.51406e+7 
           2195      9.92643e+7 
           2205      9.54061e+7 
           2215      8.88952e+7 
           2225      8.90187e+7 
           2235      9.65274e+7 
           2245      8.89645e+7 
           2255      8.69103e+7 
           2265      8.61006e+7 
           2275      9.06953e+7 
           2285      9.27172e+7 
           2295      8.73619e+7 
           2305       8.7031e+7 
           2315      8.54512e+7 
           2325      8.52683e+7 
           2335      8.33441e+7 
           2345      7.70377e+7 
           2355      8.44954e+7 
           2365      7.77205e+7 
           2375      8.10279e+7 
           2385      7.31507e+7 
           2395      7.85966e+7 
           2405      7.57168e+7 
           2415      7.67253e+7 
           2425      7.96877e+7 
           2435      7.59911e+7 
           2445      7.99901e+7 
           2455      7.75333e+7 
           2465      7.69613e+7 
           2475      7.40159e+7 
           2485      7.69415e+7 
           2495      7.45588e+7 
           2505      8.03886e+7 
           2513      7.48368e+7 
           2518      7.48489e+7 
           2525      7.07532e+7 
           2535      6.99088e+7 
           2545      6.96048e+7 
           2555      7.36836e+7 
           2565      7.35682e+7 
           2575       7.7333e+7 
           2585      7.76943e+7 
           2595      7.72477e+7 
           2605      7.43352e+7 
           2615      7.36631e+7 
           2625      7.60443e+7 
           2635      7.61953e+7 
           2645      8.17052e+7 
           2655      8.08183e+7 
           2665      7.64362e+7 
           2675      7.83244e+7 
           2685      7.88238e+7 
           2695      7.56153e+7 
           2705      7.62363e+7 
           2715      7.33606e+7 
           2725      7.34522e+7 
           2735      7.69955e+7 
           2745       6.9236e+7 
           2755      6.96972e+7 
           2765      7.19387e+7 
           2775      7.46157e+7 
           2785      7.30706e+7 
           2795      5.97837e+7 
           2805      6.56114e+7 
           2815      7.55957e+7 
           2825      7.54297e+7 
           2835      7.33001e+7 
           2845      7.11474e+7 
           2855      6.93187e+7 
           2865      7.23055e+7 
           2875      7.09146e+7 
           2885      7.21166e+7 
           2895      7.08596e+7 
           2910      7.47311e+7 
           2930      7.20512e+7 
           2950      7.16706e+7 
           2970      7.17379e+7 
           2990      7.15609e+7 
           3010      7.19645e+7 
           3030      7.13582e+7 
           3050       7.0713e+7 
           3070      6.99705e+7 
           3090       6.9987e+7 
           3110      6.89534e+7 
           3130      6.84826e+7 
           3150      6.85801e+7 
           3170      6.80212e+7 
           3190      6.59788e+7 
           3210      6.65741e+7 
           3230       6.5402e+7 
           3250      6.56695e+7 
           3270      6.57847e+7 
           3290      6.56973e+7 
           3310      6.55144e+7 
           3330      6.43901e+7 
           3350      6.33785e+7 
           3370      6.32322e+7 
           3390      6.25735e+7 
           3410      6.28881e+7 
           3430      6.24707e+7 
           3450       6.1989e+7 
           3470      6.13829e+7 
           3490      6.10618e+7 
           3510      6.10254e+7 
           3530      6.07289e+7 
           3550      6.04232e+7 
           3570      5.95264e+7 
           3590      5.91427e+7 
           3610      5.87551e+7 
           3630      5.84554e+7 
           3640      5.82285e+7 
           3650      5.85829e+7 
           3670       5.8458e+7 
           3690       5.7292e+7 
           3710      5.58986e+7 
           3730      5.30994e+7 
           3750      5.96177e+7 
           3770      6.15447e+7 
           3790      7.33888e+7 
           3810      8.63596e+7 
           3830      6.95037e+7 
           3850      9.73486e+7 
           3870      1.13135e+8 
           3890      6.09131e+7 
           3910        1.148e+8 
           3930      1.28418e+8 
           3950      1.15022e+8 
           3970      5.87507e+7 
           3990      1.08349e+8 
           4010      1.34806e+8 
           4030      1.38598e+8 
           4050      1.35703e+8 
           4070      1.23079e+8 
           4090      8.46668e+7 
           4110      6.44799e+7 
           4130      1.13145e+8 
           4150      1.26799e+8 
           4170      1.29049e+8 
           4190      1.28434e+8 
           4210      1.27164e+8 
           4230      1.24555e+8 
           4250      1.23123e+8 
           4270      1.19689e+8 
           4290      1.15974e+8 
           4310      1.03389e+8 
           4330      7.00014e+7 
           4350       5.9781e+7 
           4370      9.79202e+7 
           4390      1.07455e+8 
           4410      1.09553e+8 
           4430      1.09378e+8 
           4450      1.09321e+8 
           4470      1.08072e+8 
           4490      1.05738e+8 
           4510      1.05663e+8 
           4530      1.04182e+8 
           4550      1.02303e+8 
           4570      1.01985e+8 
           4590       1.0036e+8 
           4610      9.98172e+7 
           4630      9.79691e+7 
           4650      9.72623e+7 
           4670      9.60216e+7 
           4690      9.39952e+7 
           4710      9.11507e+7 
           4730      9.21495e+7 
           4750      9.08191e+7 
           4770      8.91783e+7 
           4790      8.70953e+7 
           4810      8.35279e+7 
           4830      7.56175e+7 
           4850      5.47721e+7 
           4870      4.49116e+7 
           4890        6.974e+7 
           4910      7.77177e+7 
           4930      7.91592e+7 
           4950      7.98093e+7 
           4970      7.95816e+7 
           4990      7.87392e+7 
           5010      7.74303e+7 
           5030      7.71345e+7 
           5050      7.59959e+7 
           5070      7.56364e+7 
           5090      7.47858e+7 
           5110       7.3975e+7 
           5130      7.30772e+7 
           5150      7.21613e+7 
           5170      7.05484e+7 
           5190      6.99834e+7 
           5210      6.97413e+7 
           5230      6.86608e+7 
           5250      6.83163e+7 
           5270       6.7031e+7 
           5290      6.67702e+7 
           5310      6.58379e+7 
           5330      6.50185e+7 
           5350      6.45938e+7 
           5370      6.37805e+7 
           5390        6.312e+7 
           5410      6.22796e+7 
           5430      6.17424e+7 
           5450       6.1124e+7 
           5470      6.04663e+7 
           5490      5.98378e+7 
           5510      5.92156e+7 
           5530       5.8501e+7 
           5550      5.79529e+7 
           5570      5.73068e+7 
           5590      5.66792e+7 
           5610       5.6119e+7 
           5630      5.55558e+7 
           5650      5.49519e+7 
           5670      5.43517e+7 
           5690       5.3805e+7 
           5710      5.32462e+7 
           5730      5.27225e+7 
           5750      5.21445e+7 
           5770      5.16161e+7 
           5790      5.10748e+7 
           5810      5.05597e+7 
           5830      5.00438e+7 
           5850       4.9525e+7 
           5870      4.89792e+7 
           5890      4.82367e+7 
           5910      4.80219e+7 
           5930       4.7541e+7 
           5950      4.70389e+7 
           5970      4.65784e+7 
           5990      4.60852e+7 
           6010      4.56131e+7 
           6030      4.51867e+7 
           6050       4.4733e+7 
           6070      4.43048e+7 
           6090      4.38609e+7 
           6110      4.34168e+7 
           6130      4.29665e+7 
           6150      4.24027e+7 
           6170      4.21025e+7 
           6190      4.17502e+7 
           6210      4.13401e+7 
           6230      4.09246e+7 
           6250      4.04452e+7 
           6270      4.01512e+7 
           6290      3.97629e+7 
           6310      3.93523e+7 
           6330      3.89846e+7 
           6350       3.8419e+7 
           6370      3.80741e+7 
           6390      3.77817e+7 
           6410      3.73639e+7 
           6430      3.69778e+7 
           6450      3.64518e+7 
           6470      3.60432e+7 
           6490      3.53831e+7 
           6510      3.44123e+7 
           6530      3.23721e+7 
           6550          2.7e+7 
           6570      2.21229e+7 
           6590      2.99107e+7 
           6610      3.23434e+7 
           6630      3.29876e+7 
           6650      3.30621e+7 
           6670      3.29318e+7 
           6690      3.27335e+7 
           6710      3.24918e+7 
           6730      3.22183e+7 
           6750      3.19508e+7 
           6770      3.17294e+7 
           6790       3.1448e+7 
           6810      3.11644e+7 
           6830      3.08748e+7 
           6850      3.06016e+7 
           6870      3.03311e+7 
           6890      3.00616e+7 
           6910      2.97932e+7 
           6930      2.95234e+7 
           6950      2.92633e+7 
           6970      2.90025e+7 
           6990      2.87504e+7 
           7010      2.84708e+7 
           7030      2.82336e+7 
           7050      2.79903e+7 
           7070      2.77507e+7 
           7090      2.75112e+7 
           7110       2.7151e+7 
           7130      2.70137e+7 
           7150       2.6781e+7 
           7170      2.65585e+7 
           7190      2.63271e+7 
           7210       2.6103e+7 
           7230      2.58781e+7 
           7250       2.5643e+7 
           7270      2.54408e+7 
           7290      2.52135e+7 
           7310      2.50024e+7 
           7330      2.47905e+7 
           7350      2.45867e+7 
           7370      2.43792e+7 
           7390      2.41674e+7 
           7410      2.39528e+7 
           7430      2.37332e+7 
           7450      2.35483e+7 
           7470      2.33204e+7 
           7490       2.3143e+7 
           7510      2.29698e+7 
           7530      2.27835e+7 
           7550      2.26008e+7 
           7570      2.24125e+7 
           7590      2.22278e+7 
           7610      2.20448e+7 
           7630      2.18614e+7 
           7650      2.16797e+7 
           7670      2.14931e+7 
           7690      2.13222e+7 
           7710      2.11477e+7 
           7730       2.0983e+7 
           7750      2.08102e+7 
           7770      2.03457e+7 
           7790      2.04772e+7 
           7810       2.0312e+7 
           7830      2.01395e+7 
           7850      1.99679e+7 
           7870      1.97735e+7 
           7890      1.95941e+7 
           7910      1.94897e+7 
           7930      1.93412e+7 
           7950        1.916e+7 
           7970      1.90479e+7 
           7990       1.8814e+7 
           8010      1.87437e+7 
           8030      1.85926e+7 
           8050      1.84503e+7 
           8070      1.83023e+7 
           8090      1.81595e+7 
           8110      1.80208e+7 
           8130      1.78821e+7 
           8150      1.77428e+7 
           8170      1.76047e+7 
           8190      1.74155e+7 
           8210      1.73319e+7 
           8230      1.71965e+7 
           8250      1.70745e+7 
           8270      1.70097e+7 
           8290      1.68838e+7 
           8310      1.67661e+7 
           8330      1.65896e+7 
           8350      1.65297e+7 
           8370      1.64137e+7 
           8390      1.62879e+7 
           8410      1.61684e+7 
           8430      1.60351e+7 
           8450      1.57867e+7 
           8470      1.57411e+7 
           8490      1.56556e+7 
           8510      1.53105e+7 
           8530      1.54294e+7 
           8550      1.47419e+7 
           8570      1.53031e+7 
           8590      1.46938e+7 
           8610      1.44904e+7 
           8630      1.51209e+7 
           8650      1.45511e+7 
           8670      1.31028e+7 
           8690      1.46319e+7 
           8710      1.50113e+7 
           8730      1.43341e+7 
           8750      1.20553e+7 
           8770      1.36359e+7 
           8790      1.47807e+7 
           8810      1.49272e+7 
           8830      1.44205e+7 
           8850      1.26844e+7 
           8870      1.11405e+7 
           8890      1.35253e+7 
           8910      1.44346e+7 
           8930      1.46936e+7 
           8950      1.46755e+7 
           8970       1.4214e+7 
           8990      1.31291e+7 
           9010      1.06336e+7 
           9030      1.13923e+7 
           9050      1.32118e+7 
           9070      1.37805e+7 
           9090      1.39197e+7 
           9110      1.41273e+7 
           9130      1.41103e+7 
           9150      1.39334e+7 
           9170      1.35838e+7 
           9190      1.29288e+7 
