# Kurucz ODFNEW /NOVER (2003)
# teff = 18000 K (value for the effective temperature for the model. Temperatures are given in K)
# logg = 4.5 log(cm/s2) (value for Log(G) for the model.)
# meta = -1  (value for the Metallicity for the model.)
# lh = 1.25  (l/Hp where l is the  mixing length of the convective element and Hp is the pressure scale height)
# vtur = 2 km/s (Microturbulence velocity)
# alpha = 0.4  (Alpha)
#
# column 1: WAVELENGTH (ANGSTROM), Wavelength in Angstrom
# column 2: FLUX (ERG/CM2/S/A), Flux in erg/cm2/s/A
          147.2     4.99551e-23 
            151     5.71893e-22 
          155.2     4.77625e-21 
          158.8     2.63543e-20 
            162     1.12756e-19 
            166     6.41914e-19 
          170.3     3.80378e-18 
          173.4     1.29905e-17 
          176.8     4.75759e-17 
          180.2     1.66031e-16 
          181.7     2.83903e-16 
          186.1     1.30489e-15 
            191     6.56759e-15 
          193.9      1.6395e-14 
          198.4     6.44093e-14 
          201.8     1.74603e-13 
            205     4.34227e-13 
          210.5      1.9372e-12 
          216.2     8.43769e-12 
          219.8     2.05629e-11 
            223     4.42039e-11 
          226.8     1.06893e-10 
            230      2.5948e-10 
            234     6.71606e-10 
            240      2.37222e-9 
          246.5       8.6218e-9 
          252.4      2.62871e-8 
          256.8      5.79322e-8 
            260      1.02519e-7 
            264      2.03327e-7 
          268.5      4.27861e-7 
          273.5      9.49602e-7 
          278.5      2.05189e-6 
            284      4.63546e-6 
            290      1.08714e-5 
            296      2.45758e-5 
            301      4.73651e-5 
            308     0.000113852 
            318     0.000375597 
            328      0.00114408 
            338      0.00325851 
            348      0.00871675 
            357       0.0201195 
            366       0.0445334 
            375       0.0945219 
            385        0.209009 
            395        0.442586 
            405         0.90167 
            414         1.65857 
            422         2.78373 
            430         4.57271 
            441         8.79231 
            451         15.4486 
            460         25.0785 
            470         41.9723 
            480         68.6141 
            490         109.787 
            500         172.045 
            506         1798.48 
            512         4586.24 
            520         6034.08 
            530         8912.08 
            540         11132.1 
            550         16573.6 
            560         21890.2 
            570           29082 
            580         33257.2 
            590         46914.2 
            600         61489.6 
            610         78487.5 
            620         97115.6 
            630          121334 
            640          146737 
            650          180973 
            658          213214 
            665          240993 
            675          286748 
            685          342828 
            695          412556 
            705          485145 
            716          577290 
            726          672404 
            735          771625 
            745          896779 
            755      1.03675e+6 
            765      1.18286e+6 
            775      1.36008e+6 
            785      1.54849e+6 
            795      1.74737e+6 
            805      1.97676e+6 
            815      2.21679e+6 
            825      2.49376e+6 
            835      2.74691e+6 
            845      3.08686e+6 
            855      3.41921e+6 
            865      3.80634e+6 
            875      4.19614e+6 
            885      4.65399e+6 
            895      5.11179e+6 
            905      5.50128e+6 
            915      9.05618e+6 
            925      2.83455e+7 
            935      6.59452e+7 
            945      3.74922e+8 
            955      1.45846e+9 
            965      2.20987e+9 
            975      4.98779e+8 
            985      4.69172e+9 
            995      5.35475e+9 
           1005      5.72018e+9 
           1015      3.64119e+9 
           1025      2.45374e+8 
           1035      2.50756e+9 
           1045      6.21037e+9 
           1055      6.51629e+9 
           1065      5.77836e+9 
           1075      6.52253e+9 
           1085      6.08348e+9 
           1095       6.4781e+9 
           1105      5.81743e+9 
           1115      5.68689e+9 
           1125       5.5148e+9 
           1135      5.96959e+9 
           1145      5.41233e+9 
           1155      5.64575e+9 
           1165      5.77713e+9 
           1175      5.05571e+9 
           1185       5.4947e+9 
           1195      3.65194e+9 
           1205      2.01443e+9 
           1215      2.44525e+8 
           1225      1.71737e+9 
           1235      4.25753e+9 
           1245      4.90956e+9 
           1255      4.86153e+9 
           1265      4.50105e+9 
           1275      4.86918e+9 
           1285      4.93492e+9 
           1295      4.00873e+9 
           1305      3.57943e+9 
           1315      4.67768e+9 
           1325      4.52258e+9 
           1335      4.26758e+9 
           1345      4.43968e+9 
           1355      4.33828e+9 
           1365      4.15121e+9 
           1375      4.13428e+9 
           1385        4.162e+9 
           1395       3.9318e+9 
           1405      3.98805e+9 
           1415       3.9221e+9 
           1425      3.89749e+9 
           1435      3.86348e+9 
           1442      3.91918e+9 
           1447      3.87721e+9 
           1455      3.79394e+9 
           1465      3.70037e+9 
           1475       3.6166e+9 
           1485      3.51288e+9 
           1495      3.50784e+9 
           1505      3.38321e+9 
           1512      3.28126e+9 
           1517      3.35773e+9 
           1525      3.29538e+9 
           1535      3.14338e+9 
           1545      3.22197e+9 
           1555      3.06865e+9 
           1565      2.99848e+9 
           1575      3.07048e+9 
           1585      3.04836e+9 
           1595      3.06356e+9 
           1605       2.9458e+9 
           1615      2.91406e+9 
           1625      2.83365e+9 
           1635       2.8346e+9 
           1645      2.80066e+9 
           1655      2.66679e+9 
           1665      2.77795e+9 
           1672      2.65798e+9 
           1677      2.69922e+9 
           1685      2.70603e+9 
           1695      2.63249e+9 
           1705      2.54339e+9 
           1715      2.46847e+9 
           1725      2.44133e+9 
           1735      2.46846e+9 
           1745      2.40659e+9 
           1755      2.42805e+9 
           1765      2.26771e+9 
           1775      2.34196e+9 
           1785      2.30515e+9 
           1795      2.32315e+9 
           1805      2.27932e+9 
           1815       2.2202e+9 
           1825      2.22534e+9 
           1835      2.17419e+9 
           1845      2.08395e+9 
           1855      2.03428e+9 
           1865      2.02292e+9 
           1875      2.06462e+9 
           1885      1.97354e+9 
           1895      1.91091e+9 
           1905      1.96585e+9 
           1915      1.89976e+9 
           1925      1.87113e+9 
           1935      1.87408e+9 
           1945      1.88433e+9 
           1955      1.80764e+9 
           1967      1.84699e+9 
           1976       1.8577e+9 
           1984      1.79509e+9 
           1995      1.74071e+9 
           2005      1.75609e+9 
           2015      1.72358e+9 
           2025      1.74721e+9 
           2035      1.70024e+9 
           2045      1.68482e+9 
           2055      1.61646e+9 
           2065      1.63335e+9 
           2074      1.63427e+9 
           2078      1.61402e+9 
           2085      1.61846e+9 
           2095      1.57395e+9 
           2105      1.57884e+9 
           2115      1.56352e+9 
           2125      1.56561e+9 
           2135      1.53412e+9 
           2145      1.51395e+9 
           2155      1.50861e+9 
           2165      1.47429e+9 
           2175      1.45838e+9 
           2185      1.44309e+9 
           2195       1.4442e+9 
           2205      1.41153e+9 
           2215      1.38568e+9 
           2225      1.35499e+9 
           2235      1.37223e+9 
           2245      1.34949e+9 
           2255      1.32184e+9 
           2265      1.32048e+9 
           2275      1.30795e+9 
           2285      1.30374e+9 
           2295      1.27316e+9 
           2305      1.25959e+9 
           2315      1.24247e+9 
           2325      1.23432e+9 
           2335      1.20069e+9 
           2345       1.1643e+9 
           2355      1.17862e+9 
           2365      1.14503e+9 
           2375      1.14997e+9 
           2385      1.11723e+9 
           2395      1.13012e+9 
           2405      1.10836e+9 
           2415      1.09856e+9 
           2425      1.10239e+9 
           2435      1.07385e+9 
           2445      1.07271e+9 
           2455       1.0693e+9 
           2465      1.04539e+9 
           2475      1.03665e+9 
           2485      1.03913e+9 
           2495      1.01278e+9 
           2505      1.02176e+9 
           2513      1.00023e+9 
           2518      1.00476e+9 
           2525      9.81055e+8 
           2535      9.64888e+8 
           2545      9.56332e+8 
           2555      9.68366e+8 
           2565      9.52528e+8 
           2575      9.55996e+8 
           2585      9.50587e+8 
           2595      9.40533e+8 
           2605      9.28108e+8 
           2615      9.19976e+8 
           2625      9.10356e+8 
           2635        9.027e+8 
           2645       9.1328e+8 
           2655      9.03421e+8 
           2665       8.8509e+8 
           2675       8.8475e+8 
           2685       8.7791e+8 
           2695      8.64146e+8 
           2705      8.59313e+8 
           2715      8.46146e+8 
           2725      8.34011e+8 
           2735      8.35075e+8 
           2745      8.07853e+8 
           2755       8.0319e+8 
           2765      8.03255e+8 
           2775      8.06772e+8 
           2785      7.96811e+8 
           2795      7.64596e+8 
           2805      7.77014e+8 
           2815      7.79918e+8 
           2825       7.6742e+8 
           2835      7.54656e+8 
           2845      7.50617e+8 
           2855      7.47541e+8 
           2865      7.45085e+8 
           2875      7.35854e+8 
           2885      7.30717e+8 
           2895      7.25318e+8 
           2910      7.16525e+8 
           2930      6.99185e+8 
           2950      6.86403e+8 
           2970       6.7877e+8 
           2990      6.65632e+8 
           3010       6.5665e+8 
           3030      6.45876e+8 
           3050      6.34436e+8 
           3070      6.23559e+8 
           3090      6.13185e+8 
           3110      6.02247e+8 
           3130       5.9296e+8 
           3150      5.82834e+8 
           3170      5.73329e+8 
           3190      5.59943e+8 
           3210      5.54047e+8 
           3230      5.45293e+8 
           3250      5.36641e+8 
           3270      5.28441e+8 
           3290      5.19773e+8 
           3310       5.1186e+8 
           3330       5.0359e+8 
           3350      4.95077e+8 
           3370      4.87693e+8 
           3390      4.80119e+8 
           3410      4.72722e+8 
           3430      4.64856e+8 
           3450       4.5714e+8 
           3470      4.50508e+8 
           3490      4.43782e+8 
           3510      4.37394e+8 
           3530      4.30728e+8 
           3550      4.24185e+8 
           3570      4.18529e+8 
           3590      4.11219e+8 
           3610      4.05577e+8 
           3630       3.9909e+8 
           3640      3.97156e+8 
           3650      3.93654e+8 
           3670      3.89151e+8 
           3690      3.81624e+8 
           3710      3.69966e+8 
           3730      3.53987e+8 
           3750      3.80868e+8 
           3770      3.87229e+8 
           3790      4.27214e+8 
           3810      4.60839e+8 
           3830      3.89316e+8 
           3850      4.85218e+8 
           3870      5.10375e+8 
           3890      3.58628e+8 
           3910      5.04964e+8 
           3930      5.08618e+8 
           3950      4.91626e+8 
           3970      3.37316e+8 
           3990      4.68471e+8 
           4010      4.81639e+8 
           4030      4.53164e+8 
           4050      4.73366e+8 
           4070      4.60311e+8 
           4090      3.96253e+8 
           4110      3.31052e+8 
           4130      4.28503e+8 
           4150      4.32279e+8 
           4170      4.29984e+8 
           4190      4.25524e+8 
           4210      4.19216e+8 
           4230      4.12546e+8 
           4250      4.05919e+8 
           4270      3.97146e+8 
           4290      3.91322e+8 
           4310      3.79993e+8 
           4330      3.19465e+8 
           4350      2.85536e+8 
           4370      3.60437e+8 
           4390      3.51745e+8 
           4410      3.57705e+8 
           4430      3.51718e+8 
           4450      3.48012e+8 
           4470      3.26654e+8 
           4490      3.34944e+8 
           4510      3.33035e+8 
           4530      3.27825e+8 
           4550      3.22966e+8 
           4570      3.18413e+8 
           4590      3.13803e+8 
           4610      3.09278e+8 
           4630      3.04608e+8 
           4650      3.00112e+8 
           4670      2.95992e+8 
           4690      2.91863e+8 
           4710      2.83904e+8 
           4730      2.83091e+8 
           4750      2.78842e+8 
           4770      2.75631e+8 
           4790       2.7097e+8 
           4810      2.65888e+8 
           4830      2.58555e+8 
           4850      2.24092e+8 
           4870      1.94918e+8 
           4890      2.45585e+8 
           4910      2.47386e+8 
           4930      2.39679e+8 
           4950      2.42773e+8 
           4970      2.39771e+8 
           4990      2.36431e+8 
           5010      2.30149e+8 
           5030      2.29886e+8 
           5050      2.24331e+8 
           5070      2.24001e+8 
           5090      2.20979e+8 
           5110       2.1794e+8 
           5130      2.15142e+8 
           5150      2.12253e+8 
           5170      2.09528e+8 
           5190      2.06742e+8 
           5210      2.03464e+8 
           5230      2.01429e+8 
           5250      1.98831e+8 
           5270      1.96172e+8 
           5290      1.93776e+8 
           5310       1.9125e+8 
           5330      1.88743e+8 
           5350       1.8619e+8 
           5370      1.84048e+8 
           5390      1.81712e+8 
           5410      1.79354e+8 
           5430      1.76885e+8 
           5450      1.74803e+8 
           5470      1.72558e+8 
           5490      1.70578e+8 
           5510      1.68398e+8 
           5530      1.66333e+8 
           5550      1.64304e+8 
           5570      1.62252e+8 
           5590      1.60298e+8 
           5610      1.58247e+8 
           5630      1.56435e+8 
           5650       1.5415e+8 
           5670      1.52408e+8 
           5690      1.50756e+8 
           5710      1.48986e+8 
           5730      1.47213e+8 
           5750      1.45439e+8 
           5770       1.4372e+8 
           5790      1.41998e+8 
           5810      1.40297e+8 
           5830      1.38648e+8 
           5850       1.3702e+8 
           5870      1.31911e+8 
           5890       1.3359e+8 
           5910      1.32256e+8 
           5930      1.30744e+8 
           5950      1.29058e+8 
           5970      1.27708e+8 
           5990      1.26133e+8 
           6010      1.24804e+8 
           6030      1.23367e+8 
           6050      1.21966e+8 
           6070       1.2057e+8 
           6090       1.1918e+8 
           6110      1.17856e+8 
           6130      1.16527e+8 
           6150      1.15103e+8 
           6170      1.13913e+8 
           6190      1.12647e+8 
           6210      1.11385e+8 
           6230      1.10137e+8 
           6250      1.08845e+8 
           6270      1.07711e+8 
           6290      1.06523e+8 
           6310      1.05319e+8 
           6330      1.04193e+8 
           6350      1.02604e+8 
           6370      1.01645e+8 
           6390      1.00807e+8 
           6410      9.96834e+7 
           6430      9.86633e+7 
           6450      9.75725e+7 
           6470      9.65292e+7 
           6490       9.5318e+7 
           6510      9.40043e+7 
           6530      9.21572e+7 
           6550      8.49936e+7 
           6570      7.38493e+7 
           6590      8.79363e+7 
           6610      8.89311e+7 
           6630      8.83697e+7 
           6650      8.76771e+7 
           6670       8.6102e+7 
           6690      8.52513e+7 
           6710      8.50032e+7 
           6730      8.41245e+7 
           6750      8.32629e+7 
           6770      8.24018e+7 
           6790      8.15395e+7 
           6810      8.07128e+7 
           6830      7.98718e+7 
           6850      7.90704e+7 
           6870      7.82659e+7 
           6890      7.74709e+7 
           6910      7.66846e+7 
           6930      7.58857e+7 
           6950      7.51454e+7 
           6970       7.4393e+7 
           6990      7.36425e+7 
           7010      7.29001e+7 
           7030      7.21742e+7 
           7050      7.14423e+7 
           7070      6.99911e+7 
           7090      7.00554e+7 
           7110        6.936e+7 
           7130      6.86773e+7 
           7150      6.79944e+7 
           7170      6.73379e+7 
           7190       6.6681e+7 
           7210      6.60312e+7 
           7230      6.52973e+7 
           7250      6.47448e+7 
           7270      6.41274e+7 
           7290      6.32295e+7 
           7310      6.28939e+7 
           7330      6.22924e+7 
           7350      6.16965e+7 
           7370      6.11069e+7 
           7390      6.05241e+7 
           7410      5.99488e+7 
           7430      5.93631e+7 
           7450      5.88147e+7 
           7470      5.82517e+7 
           7490      5.77073e+7 
           7510      5.71659e+7 
           7530      5.66354e+7 
           7550      5.61078e+7 
           7570      5.55855e+7 
           7590      5.50654e+7 
           7610      5.45571e+7 
           7630      5.40514e+7 
           7650      5.35523e+7 
           7670      5.30588e+7 
           7690       5.2571e+7 
           7710      5.20889e+7 
           7730       5.1611e+7 
           7750      5.11411e+7 
           7770      5.04389e+7 
           7790       5.0215e+7 
           7810      4.97537e+7 
           7830        4.931e+7 
           7850      4.88304e+7 
           7870      4.83848e+7 
           7890      4.79081e+7 
           7910      4.75728e+7 
           7930       4.7148e+7 
           7950      4.66876e+7 
           7970      4.63082e+7 
           7990      4.58312e+7 
           8010       4.5494e+7 
           8030      4.50918e+7 
           8050      4.46913e+7 
           8070      4.43011e+7 
           8090      4.39045e+7 
           8110      4.35238e+7 
           8130       4.3143e+7 
           8150       4.2767e+7 
           8170      4.23987e+7 
           8190      4.20195e+7 
           8210      4.15909e+7 
           8230      4.12482e+7 
           8250      4.09544e+7 
           8270      4.05583e+7 
           8290      4.02707e+7 
           8310      3.99429e+7 
           8330      3.96091e+7 
           8350       3.9218e+7 
           8370      3.89238e+7 
           8390      3.86234e+7 
           8410      3.82748e+7 
           8430      3.79206e+7 
           8450      3.74479e+7 
           8470      3.71694e+7 
           8490      3.69004e+7 
           8510      3.63687e+7 
           8530       3.6333e+7 
           8550      3.52444e+7 
           8570       3.6048e+7 
