# Kurucz ODFNEW /NOVER (2003)
# teff = 29000 K (value for the effective temperature for the model. Temperatures are given in K)
# logg = 4 log(cm/s2) (value for Log(G) for the model.)
# meta = 0.2  (value for the Metallicity for the model.)
# lh = 1.25  (l/Hp where l is the  mixing length of the convective element and Hp is the pressure scale height)
# vtur = 2 km/s (Microturbulence velocity)
# alpha = 0.4  (Alpha)
#
# column 1: WAVELENGTH (ANGSTROM), Wavelength in Angstrom
# column 2: FLUX (ERG/CM2/S/A), Flux in erg/cm2/s/A
          147.2     3.74524e-10 
            151      1.25176e-9 
          155.2      4.45265e-9 
          158.8      1.25706e-8 
            162      3.05199e-8 
            166      8.84185e-8 
          170.3      2.62237e-7 
          173.4      5.61068e-7 
          176.8      1.24776e-6 
          180.2      2.69704e-6 
          181.7      3.75327e-6 
          186.1      9.64525e-6 
            191      2.63321e-5 
          193.9      4.66087e-5 
          198.4     0.000109566 
          201.8     0.000204021 
            205     0.000359679 
          210.5     0.000918395 
          216.2      0.00230846 
          219.8      0.00404193 
            223      0.00654953 
          226.8       0.0119936 
            230        0.759227 
            234         1.62227 
            240          3.2128 
          246.5         6.63096 
          252.4         12.5273 
          256.8         19.0175 
            260          29.561 
            264         42.5664 
          268.5         67.7611 
          273.5         106.836 
          278.5         160.523 
            284         329.311 
            290         529.571 
            296         823.021 
            301         1165.48 
            308         2426.24 
            318         5214.84 
            328         9189.57 
            338         17428.1 
            348           30324 
            357          146510 
            366          360795 
            375          491965 
            385          813873 
            395      2.31012e+6 
            405      3.09928e+6 
            414       5.2218e+6 
            422      6.32945e+6 
            430      8.18658e+6 
            441      1.09555e+7 
            451      1.33768e+7 
            460      1.54893e+7 
            470      2.02435e+7 
            480      2.52428e+7 
            490      3.09543e+7 
            500      3.82184e+7 
            506       8.7617e+7 
            512      7.66137e+8 
            520      7.40084e+8 
            530      7.20359e+8 
            540      7.02647e+8 
            550      9.75424e+8 
            560      1.22533e+9 
            570      1.30945e+9 
            580       1.1667e+9 
            590      1.38462e+9 
            600      1.15332e+9 
            610      1.51319e+9 
            620      1.71949e+9 
            630      1.70672e+9 
            640      1.51584e+9 
            650      1.33625e+9 
            658      1.38801e+9 
            665      1.73744e+9 
            675      1.89934e+9 
            685      1.62655e+9 
            695      2.30729e+9 
            705      1.84429e+9 
            716      2.54474e+9 
            726      2.43145e+9 
            735      2.55365e+9 
            745      2.63441e+9 
            755      2.67995e+9 
            765      2.87221e+9 
            775      3.04012e+9 
            785      3.19192e+9 
            795      3.17972e+9 
            805      3.12121e+9 
            815      3.10447e+9 
            825      3.39171e+9 
            835      2.53516e+9 
            845      3.28498e+9 
            855      3.26867e+9 
            865      3.42414e+9 
            875      3.52429e+9 
            885      3.70859e+9 
            895      3.79497e+9 
            905      3.67905e+9 
            915      4.66488e+9 
            925     2.25287e+10 
            935     3.91646e+10 
            945     5.38923e+10 
            955     5.89161e+10 
            965     6.50642e+10 
            975      1.7397e+10 
            985     4.85558e+10 
            995      4.6485e+10 
           1005      5.1081e+10 
           1015     5.48113e+10 
           1025     4.08992e+10 
           1035     4.95061e+10 
           1045     6.34871e+10 
           1055      5.8715e+10 
           1065     4.64674e+10 
           1075     5.15824e+10 
           1085     4.80694e+10 
           1095     5.20655e+10 
           1105     4.80883e+10 
           1115     4.62993e+10 
           1125     3.21119e+10 
           1135     4.57173e+10 
           1145     4.29164e+10 
           1155     4.15694e+10 
           1165     4.15194e+10 
           1175     2.36907e+10 
           1185     3.76669e+10 
           1195     3.59944e+10 
           1205     2.96008e+10 
           1215     2.60659e+10 
           1225     3.41878e+10 
           1235     3.72771e+10 
           1245     3.54728e+10 
           1255     3.53953e+10 
           1265      3.6321e+10 
           1275     3.77141e+10 
           1285     3.75195e+10 
           1295      2.9783e+10 
           1305     3.17505e+10 
           1315     3.68271e+10 
           1325     3.48206e+10 
           1335     3.38464e+10 
           1345     3.33783e+10 
           1355     3.32158e+10 
           1365     3.10244e+10 
           1375     2.96581e+10 
           1385     2.77035e+10 
           1395      1.5919e+10 
           1405     1.88341e+10 
           1415     2.60407e+10 
           1425     2.43277e+10 
           1435     2.60206e+10 
           1442     2.62777e+10 
           1447      2.6001e+10 
           1455      2.4666e+10 
           1465      2.3214e+10 
           1475     2.38994e+10 
           1485     2.36094e+10 
           1495     2.28968e+10 
           1505     2.11332e+10 
           1512     1.98652e+10 
           1517     2.03271e+10 
           1525     2.01533e+10 
           1535      1.6908e+10 
           1545     1.51847e+10 
           1555     1.49219e+10 
           1565     1.67675e+10 
           1575     1.79554e+10 
           1585     1.79005e+10 
           1595     1.78752e+10 
           1605     1.74894e+10 
           1615     1.66755e+10 
           1625      1.6819e+10 
           1635     1.74876e+10 
           1645     1.76251e+10 
           1655     1.73398e+10 
           1665     1.72327e+10 
           1672     1.59864e+10 
           1677     1.87512e+10 
           1685      1.7731e+10 
           1695     1.68196e+10 
           1705      1.6562e+10 
           1715     1.56418e+10 
           1725     1.50407e+10 
           1735     1.56262e+10 
           1745     1.54835e+10 
           1755     1.53687e+10 
           1765     1.52471e+10 
           1775     1.43201e+10 
           1785     1.46176e+10 
           1795     1.46025e+10 
           1805     1.46701e+10 
           1815     1.36169e+10 
           1825      1.3812e+10 
           1835     1.35522e+10 
           1845     1.23941e+10 
           1855     1.28148e+10 
           1865     1.29399e+10 
           1875     1.28697e+10 
           1885     1.17804e+10 
           1895      1.1135e+10 
           1905     1.18458e+10 
           1915     1.12745e+10 
           1925     1.05639e+10 
           1935     1.13394e+10 
           1945     1.16265e+10 
           1955     1.03142e+10 
           1967     1.10981e+10 
           1976     1.16533e+10 
           1984     1.08446e+10 
           1995     1.06761e+10 
           2005     1.09532e+10 
           2015     1.09125e+10 
           2025     1.10255e+10 
           2035     1.02178e+10 
           2045     1.02659e+10 
           2055      9.09391e+9 
           2065      8.94597e+9 
           2074      9.38698e+9 
           2078      8.87626e+9 
           2085      9.37572e+9 
           2095      9.23922e+9 
           2105       9.5912e+9 
           2115      9.65231e+9 
           2125      9.60923e+9 
           2135      9.45579e+9 
           2145      9.09517e+9 
           2155      9.34112e+9 
           2165      9.10553e+9 
           2175      9.07615e+9 
           2185      8.84097e+9 
           2195      8.94435e+9 
           2205       8.8665e+9 
           2215      8.65532e+9 
           2225      8.51149e+9 
           2235      8.35404e+9 
           2245      8.34556e+9 
           2255      8.10057e+9 
           2265      8.13274e+9 
           2275      8.02646e+9 
           2285      7.84236e+9 
           2295      6.87029e+9 
           2305      7.55795e+9 
           2315      7.41969e+9 
           2325      7.38527e+9 
           2335      7.22542e+9 
           2345      7.26258e+9 
           2355      7.13854e+9 
           2365      7.05001e+9 
           2375      6.87388e+9 
           2385      6.73357e+9 
           2395       6.6663e+9 
           2405      6.63051e+9 
           2415      6.49433e+9 
           2425      6.47163e+9 
           2435      6.32143e+9 
           2445       6.2842e+9 
           2455       6.2271e+9 
           2465      6.13719e+9 
           2475      6.01162e+9 
           2485      5.73694e+9 
           2495      3.92239e+9 
           2505      5.36226e+9 
           2513      5.40847e+9 
           2518      5.51785e+9 
           2525      5.63573e+9 
           2535      5.62073e+9 
           2545      5.38435e+9 
           2555      5.42239e+9 
           2565       5.3219e+9 
           2575      5.32542e+9 
           2585       5.2649e+9 
           2595      5.19621e+9 
           2605      5.16216e+9 
           2615      5.05621e+9 
           2625      5.02207e+9 
           2635      4.95929e+9 
           2645      4.88486e+9 
           2655      4.83125e+9 
           2665      4.65555e+9 
           2675      4.61802e+9 
           2685      4.64122e+9 
           2695      4.48344e+9 
           2705       4.4051e+9 
           2715      4.39131e+9 
           2725      4.36492e+9 
           2735        4.304e+9 
           2745       4.2703e+9 
           2755      4.23157e+9 
           2765      4.16213e+9 
           2775      4.18322e+9 
           2785      4.09606e+9 
           2795      3.93071e+9 
           2805      3.98222e+9 
           2815      3.98469e+9 
           2825      3.92887e+9 
           2835      3.80956e+9 
           2845      3.84059e+9 
           2855      3.75873e+9 
           2865      3.73272e+9 
           2875      3.67977e+9 
           2885      3.64136e+9 
           2895      3.58955e+9 
           2910      3.48444e+9 
           2930      3.46582e+9 
           2950      3.36171e+9 
           2970      3.29993e+9 
           2990      3.20423e+9 
           3010      3.06811e+9 
           3030      3.02725e+9 
           3050      2.99966e+9 
           3070      2.96554e+9 
           3090       2.8267e+9 
           3110      2.83335e+9 
           3130       2.7423e+9 
           3150      2.70459e+9 
           3170       2.6329e+9 
           3190      2.58555e+9 
           3210      2.53661e+9 
           3230      2.46586e+9 
           3250      2.43753e+9 
           3270      2.36768e+9 
           3290      2.32575e+9 
           3310      2.27645e+9 
           3330      2.21919e+9 
           3350      2.17793e+9 
           3370      2.12834e+9 
           3390      2.10602e+9 
           3410       2.0627e+9 
           3430       2.0284e+9 
           3450      1.97501e+9 
           3470      1.93851e+9 
           3490      1.89718e+9 
           3510      1.86421e+9 
           3530      1.84258e+9 
           3550      1.80128e+9 
           3570      1.76856e+9 
           3590      1.72117e+9 
           3610       1.6955e+9 
           3630      1.66163e+9 
           3640      1.65291e+9 
           3650      1.61785e+9 
           3670      1.59775e+9 
           3690      1.56454e+9 
           3710      1.49905e+9 
           3730      1.45242e+9 
           3750      1.48549e+9 
           3770      1.45686e+9 
           3790      1.51184e+9 
           3810      1.54921e+9 
           3830      1.38709e+9 
           3850      1.53963e+9 
           3870      1.48786e+9 
           3890      1.31329e+9 
           3910      1.50437e+9 
           3930      1.44907e+9 
           3950      1.41657e+9 
           3970      1.21111e+9 
           3990      1.38897e+9 
           4010      1.37203e+9 
           4030        1.315e+9 
           4050      1.32359e+9 
           4070      1.25244e+9 
           4090      1.18293e+9 
           4110      1.08645e+9 
           4130      1.20419e+9 
           4150      1.19337e+9 
           4170      1.19352e+9 
           4190      1.17376e+9 
           4210       1.1603e+9 
           4230      1.13535e+9 
           4250      1.09797e+9 
           4270       1.0703e+9 
           4290      1.04599e+9 
           4310      1.01422e+9 
           4330      9.61028e+8 
           4350      8.93121e+8 
           4370      9.72416e+8 
           4390      9.68756e+8 
           4410      9.54545e+8 
           4430      9.50726e+8 
           4450      9.30081e+8 
           4470      9.00565e+8 
           4490      9.06557e+8 
           4510      8.93774e+8 
           4530      8.85037e+8 
           4550      8.70285e+8 
           4570      8.56858e+8 
           4590      8.39734e+8 
           4610      8.18636e+8 
           4630      8.05692e+8 
           4650      7.68687e+8 
           4670      7.81032e+8 
           4690      7.73289e+8 
           4710      7.45644e+8 
           4730      7.56695e+8 
           4750      7.42272e+8 
           4770      7.41441e+8 
           4790      7.28728e+8 
           4810      7.13024e+8 
           4830       6.9804e+8 
           4850      6.65356e+8 
           4870      6.03735e+8 
           4890      6.68506e+8 
           4910      6.60524e+8 
           4930      6.41241e+8 
           4950      6.36654e+8 
           4970      6.36543e+8 
           4990      6.26291e+8 
           5010      6.00423e+8 
           5030      6.03877e+8 
           5050      5.93653e+8 
           5070      5.90796e+8 
           5090      5.79924e+8 
           5110      5.70632e+8 
           5130      5.60494e+8 
           5150      5.53692e+8 
           5170      5.46273e+8 
           5190      5.40029e+8 
           5210      5.32046e+8 
           5230      5.25286e+8 
           5250      5.17409e+8 
           5270      5.08783e+8 
           5290      5.03677e+8 
           5310      4.96149e+8 
           5330      4.89767e+8 
           5350      4.82611e+8 
           5370      4.76371e+8 
           5390      4.68589e+8 
           5410      4.62106e+8 
           5430       4.5706e+8 
           5450      4.50135e+8 
           5470      4.44129e+8 
           5490      4.38262e+8 
           5510      4.33014e+8 
           5530      4.26463e+8 
           5550      4.21683e+8 
           5570      4.15794e+8 
           5590      4.09931e+8 
           5610      4.04882e+8 
           5630      3.99871e+8 
           5650      3.93576e+8 
           5670       3.8689e+8 
           5690      3.78916e+8 
           5710      3.75735e+8 
           5730      3.71957e+8 
           5750      3.65443e+8 
           5770      3.63073e+8 
           5790      3.58007e+8 
           5810      3.53403e+8 
           5830      3.47979e+8 
           5850      3.44547e+8 
           5870      3.32472e+8 
           5890      3.33867e+8 
           5910      3.30845e+8 
           5930       3.2685e+8 
           5950      3.22783e+8 
           5970      3.20698e+8 
           5990      3.15295e+8 
           6010      3.12407e+8 
           6030      3.07883e+8 
           6050       3.0441e+8 
           6070      3.01129e+8 
           6090      2.97539e+8 
           6110      2.93768e+8 
           6130       2.9039e+8 
           6150      2.85477e+8 
           6170      2.82342e+8 
           6190      2.79734e+8 
           6210      2.76646e+8 
           6230      2.73349e+8 
           6250      2.69442e+8 
           6270      2.66566e+8 
           6290      2.63607e+8 
           6310      2.60018e+8 
           6330      2.57475e+8 
           6350      2.53819e+8 
           6370      2.51522e+8 
           6390      2.48437e+8 
           6410      2.45486e+8 
           6430       2.4285e+8 
           6450      2.39924e+8 
           6470      2.36004e+8 
           6490       2.3347e+8 
           6510      2.30668e+8 
           6530       2.2742e+8 
           6550      2.21195e+8 
           6570      1.98494e+8 
           6590      2.18804e+8 
           6610      2.18206e+8 
           6630       2.1612e+8 
           6650      2.13263e+8 
           6670      2.09251e+8 
           6690      2.06975e+8 
           6710      2.06379e+8 
           6730      2.03408e+8 
           6750      2.02088e+8 
           6770      1.99959e+8 
           6790      1.96397e+8 
           6810      1.95294e+8 
           6830      1.92819e+8 
           6850      1.91133e+8 
           6870      1.88952e+8 
           6890      1.86404e+8 
           6910      1.83788e+8 
           6930      1.83019e+8 
           6950      1.81078e+8 
           6970      1.79141e+8 
           6990       1.7713e+8 
           7010      1.75132e+8 
           7030      1.73146e+8 
           7050      1.71384e+8 
           7070      1.67122e+8 
           7090      1.67845e+8 
           7110      1.64964e+8 
           7130      1.63388e+8 
           7150      1.62563e+8 
           7170      1.60844e+8 
           7190      1.59237e+8 
           7210      1.57572e+8 
           7230      1.53991e+8 
           7250      1.53738e+8 
           7270      1.52679e+8 
           7290      1.49943e+8 
           7310      1.49483e+8 
           7330      1.47911e+8 
           7350       1.4641e+8 
           7370      1.44971e+8 
           7390      1.43491e+8 
           7410      1.42018e+8 
           7430      1.40544e+8 
           7450      1.39085e+8 
           7470      1.36586e+8 
           7490      1.36039e+8 
           7510      1.34881e+8 
           7530      1.33355e+8 
           7550      1.32259e+8 
           7570      1.30937e+8 
           7590      1.29515e+8 
           7610      1.27918e+8 
           7630       1.2699e+8 
           7650      1.25689e+8 
           7670      1.24561e+8 
           7690      1.23206e+8 
           7710      1.22042e+8 
           7730      1.20623e+8 
           7750      1.19707e+8 
           7770      1.18349e+8 
           7790      1.17425e+8 
           7810      1.16238e+8 
           7830      1.15159e+8 
           7850      1.14072e+8 
           7870       1.1258e+8 
           7890      1.11363e+8 
           7910       1.1068e+8 
           7930      1.09571e+8 
           7950      1.08592e+8 
           7970      1.07472e+8 
           7990       1.0648e+8 
           8010       1.0545e+8 
           8030       1.0444e+8 
           8050       1.0355e+8 
           8070      1.02598e+8 
           8090      1.01516e+8 
           8110      9.97153e+7 
           8130      9.97325e+7 
           8150      9.87275e+7 
           8170      9.79569e+7 
           8190      9.61929e+7 
           8210      9.54677e+7 
           8230      9.44703e+7 
           8250      9.41623e+7 
           8270      9.20824e+7 
           8290      9.22472e+7 
           8310      9.15964e+7 
           8330      9.07444e+7 
           8350      8.94835e+7 
           8370      8.88144e+7 
           8390      8.82952e+7 
           8410      8.73537e+7 
           8430      8.66588e+7 
           8450      8.53204e+7 
           8470      8.50125e+7 
           8490      8.41629e+7 
           8510      8.30812e+7 
           8530      8.27697e+7 
           8550      8.10997e+7 
           8570      8.19886e+7 
