# Kurucz ODFNEW /NOVER (2003)
# teff = 30000 K (value for the effective temperature for the model. Temperatures are given in K)
# logg = 3.5 log(cm/s2) (value for Log(G) for the model.)
# meta = 0.5  (value for the Metallicity for the model.)
# lh = 1.25  (l/Hp where l is the  mixing length of the convective element and Hp is the pressure scale height)
# vtur = 2 km/s (Microturbulence velocity)
# alpha = 0  (Alpha)
#
# column 1: WAVELENGTH (ANGSTROM), Wavelength in Angstrom
# column 2: FLUX (ERG/CM2/S/A), Flux in erg/cm2/s/A
          147.2      1.28266e-8 
            151      3.95301e-8 
          155.2      1.28659e-7 
          158.8      3.36925e-7 
            162      7.65416e-7 
            166      2.04497e-6 
          170.3      5.56194e-6 
          173.4      1.11765e-5 
          176.8      2.34668e-5 
          180.2       4.7525e-5 
          181.7      6.51049e-5 
          186.1     0.000153952 
            191     0.000384681 
          193.9     0.000646019 
          198.4      0.00141216 
          201.8      0.00247796 
            205      0.00413735 
          210.5      0.00966262 
          216.2       0.0220457 
          219.8       0.0368229 
            223       0.0569272 
          226.8        0.098514 
            230         23.4498 
            234         49.6396 
            240         86.6674 
          246.5         160.829 
          252.4         284.432 
          256.8         424.937 
            260         826.576 
            264         1560.84 
          268.5         2456.95 
          273.5         3536.77 
          278.5         4653.08 
            284         11741.5 
            290         17865.8 
            296         24835.5 
            301         42350.4 
            308          155360 
            318          358408 
            328          543958 
            338      1.08484e+6 
            348      1.78441e+6 
            357      4.87284e+6 
            366      1.21822e+7 
            375      1.44353e+7 
            385      2.26912e+7 
            395      5.23763e+7 
            405      6.74679e+7 
            414      9.76992e+7 
            422      1.16784e+8 
            430      1.36083e+8 
            441      1.73152e+8 
            451      1.82668e+8 
            460      1.83433e+8 
            470      2.38504e+8 
            480      2.92047e+8 
            490      2.96974e+8 
            500      3.83043e+8 
            506       5.3029e+8 
            512      4.47171e+9 
            520      4.33267e+9 
            530      3.91965e+9 
            540      3.59973e+9 
            550      4.11812e+9 
            560      6.41137e+9 
            570      7.87827e+9 
            580      7.14733e+9 
            590      7.58383e+9 
            600      4.57486e+9 
            610      6.79176e+9 
            620      9.48253e+9 
            630      8.95352e+9 
            640      8.68382e+9 
            650      6.53565e+9 
            658      4.98821e+9 
            665      7.93634e+9 
            675     1.04331e+10 
            685      6.46034e+9 
            695     1.08099e+10 
            705       6.7795e+9 
            716     1.24588e+10 
            726     1.20479e+10 
            735     1.20608e+10 
            745     1.01943e+10 
            755     1.05222e+10 
            765     1.05785e+10 
            775     1.19418e+10 
            785     1.20791e+10 
            795      1.2794e+10 
            805     1.15195e+10 
            815     1.12135e+10 
            825      1.2704e+10 
            835      8.45828e+9 
            845     1.17056e+10 
            855     1.14551e+10 
            865     1.20628e+10 
            875     1.22094e+10 
            885      1.2605e+10 
            895     1.26579e+10 
            905     1.20711e+10 
            915     1.54724e+10 
            925     3.71651e+10 
            935     5.41592e+10 
            945     5.75161e+10 
            955     5.84369e+10 
            965     6.01812e+10 
            975     2.02452e+10 
            985     4.18539e+10 
            995     4.27139e+10 
           1005     4.68289e+10 
           1015     5.06024e+10 
           1025      4.6848e+10 
           1035     4.88977e+10 
           1045     5.76983e+10 
           1055     5.40068e+10 
           1065     4.63744e+10 
           1075     4.83192e+10 
           1085     4.52789e+10 
           1095     4.74248e+10 
           1105     4.57064e+10 
           1115     4.45236e+10 
           1125     3.40973e+10 
           1135     4.29098e+10 
           1145     4.24366e+10 
           1155     4.00416e+10 
           1165     3.85799e+10 
           1175     2.18786e+10 
           1185     3.46058e+10 
           1195     3.43878e+10 
           1205      3.2709e+10 
           1215     2.99373e+10 
           1225     3.26036e+10 
           1235     3.50121e+10 
           1245     3.29426e+10 
           1255     3.32904e+10 
           1265     3.45954e+10 
           1275     3.61892e+10 
           1285     3.63308e+10 
           1295     3.35704e+10 
           1305     3.35114e+10 
           1315     3.60646e+10 
           1325     3.48313e+10 
           1335     3.34723e+10 
           1345     3.38739e+10 
           1355     3.28444e+10 
           1365     3.18958e+10 
           1375     3.05727e+10 
           1385     2.92942e+10 
           1395     2.03849e+10 
           1405     2.19966e+10 
           1415     2.82835e+10 
           1425     2.54316e+10 
           1435     2.74476e+10 
           1442     2.69353e+10 
           1447     2.68377e+10 
           1455     2.53991e+10 
           1465     2.45164e+10 
           1475      2.5283e+10 
           1485     2.52545e+10 
           1495     2.44391e+10 
           1505     2.35466e+10 
           1512     2.28116e+10 
           1517     2.33147e+10 
           1525     2.22543e+10 
           1535     1.89594e+10 
           1545     1.50256e+10 
           1555      1.5334e+10 
           1565     1.84241e+10 
           1575     1.97596e+10 
           1585     2.00644e+10 
           1595     1.98255e+10 
           1605     1.88261e+10 
           1615     1.79047e+10 
           1625     1.84226e+10 
           1635      1.8942e+10 
           1645     1.91969e+10 
           1655     1.87964e+10 
           1665     1.87208e+10 
           1672     1.68731e+10 
           1677     2.05449e+10 
           1685     1.92821e+10 
           1695      1.8515e+10 
           1705     1.84799e+10 
           1715     1.71699e+10 
           1725     1.67549e+10 
           1735     1.74033e+10 
           1745     1.72329e+10 
           1755     1.70787e+10 
           1765     1.69957e+10 
           1775     1.62045e+10 
           1785     1.65674e+10 
           1795     1.61962e+10 
           1805     1.62034e+10 
           1815     1.55988e+10 
           1825     1.54735e+10 
           1835     1.54586e+10 
           1845     1.45688e+10 
           1855     1.50373e+10 
           1865       1.504e+10 
           1875     1.47343e+10 
           1885     1.38447e+10 
           1895     1.34891e+10 
           1905     1.40009e+10 
           1915     1.36116e+10 
           1925     1.26907e+10 
           1935     1.36285e+10 
           1945     1.38183e+10 
           1955     1.23486e+10 
           1967     1.31458e+10 
           1976     1.35222e+10 
           1984     1.29942e+10 
           1995     1.26582e+10 
           2005      1.2984e+10 
           2015     1.29649e+10 
           2025     1.30494e+10 
           2035     1.23338e+10 
           2045     1.22216e+10 
           2055     1.02349e+10 
           2065     1.00211e+10 
           2074     1.07366e+10 
           2078     1.05374e+10 
           2085     1.14261e+10 
           2095     1.11911e+10 
           2105     1.13435e+10 
           2115     1.15203e+10 
           2125     1.13762e+10 
           2135     1.12864e+10 
           2145     1.09784e+10 
           2155     1.10585e+10 
           2165     1.06809e+10 
           2175     1.07676e+10 
           2185     1.05683e+10 
           2195     1.06841e+10 
           2205     1.05185e+10 
           2215     1.02555e+10 
           2225     1.01704e+10 
           2235       9.9974e+9 
           2245      9.87265e+9 
           2255       9.6949e+9 
           2265      9.65354e+9 
           2275      9.59507e+9 
           2285       9.3583e+9 
           2295      8.00949e+9 
           2305      8.97963e+9 
           2315      8.86778e+9 
           2325      8.87599e+9 
           2335       8.7103e+9 
           2345      8.62384e+9 
           2355      8.42916e+9 
           2365      8.28462e+9 
           2375      8.09277e+9 
           2385      7.83232e+9 
           2395      7.83405e+9 
           2405      7.82114e+9 
           2415      7.74423e+9 
           2425      7.71957e+9 
           2435      7.57687e+9 
           2445      7.50431e+9 
           2455      7.41204e+9 
           2465      7.29189e+9 
           2475      7.17958e+9 
           2485      6.78454e+9 
           2495      4.48582e+9 
           2505      6.33623e+9 
           2513      6.50713e+9 
           2518      6.60728e+9 
           2525      6.74383e+9 
           2535      6.71945e+9 
           2545      6.57544e+9 
           2555      6.51829e+9 
           2565       6.4544e+9 
           2575      6.37652e+9 
           2585      6.30248e+9 
           2595      6.19134e+9 
           2605      6.17721e+9 
           2615      6.02868e+9 
           2625      6.00744e+9 
           2635      5.96953e+9 
           2645      5.85555e+9 
           2655      5.80244e+9 
           2665      5.65872e+9 
           2675      5.52909e+9 
           2685        5.581e+9 
           2695      5.44267e+9 
           2705      5.39529e+9 
           2715      5.32547e+9 
           2725      5.30827e+9 
           2735      5.19952e+9 
           2745       5.2037e+9 
           2755      5.13968e+9 
           2765      5.06562e+9 
           2775      5.05608e+9 
           2785      4.95087e+9 
           2795      4.79113e+9 
           2805      4.83455e+9 
           2815      4.81453e+9 
           2825      4.76398e+9 
           2835      4.65361e+9 
           2845      4.65171e+9 
           2855      4.58276e+9 
           2865      4.50773e+9 
           2875      4.46298e+9 
           2885      4.42305e+9 
           2895         4.38e+9 
           2910      4.27072e+9 
           2930      4.22161e+9 
           2950      4.10777e+9 
           2970      4.01445e+9 
           2990      3.89173e+9 
           3010       3.7737e+9 
           3030       3.6867e+9 
           3050      3.64961e+9 
           3070      3.58614e+9 
           3090      3.47982e+9 
           3110      3.45258e+9 
           3130      3.36149e+9 
           3150      3.31074e+9 
           3170      3.22838e+9 
           3190      3.17307e+9 
           3210      3.08514e+9 
           3230      3.02372e+9 
           3250      2.98555e+9 
           3270      2.89217e+9 
           3290      2.84998e+9 
           3310      2.78618e+9 
           3330      2.72064e+9 
           3350      2.65055e+9 
           3370      2.60406e+9 
           3390      2.57857e+9 
           3410      2.52395e+9 
           3430      2.48509e+9 
           3450      2.41911e+9 
           3470      2.38151e+9 
           3490      2.33508e+9 
           3510      2.29103e+9 
           3530      2.25223e+9 
           3550      2.20603e+9 
           3570       2.1627e+9 
           3590      2.11482e+9 
           3610      2.06812e+9 
           3630       2.0351e+9 
           3640      2.00892e+9 
           3650      1.90459e+9 
           3670      1.87437e+9 
           3690      1.83914e+9 
           3710        1.788e+9 
           3730      1.76882e+9 
           3750      1.80774e+9 
           3770      1.78233e+9 
           3790      1.79939e+9 
           3810      1.81743e+9 
           3830      1.69749e+9 
           3850      1.78006e+9 
           3870      1.71415e+9 
           3890       1.6114e+9 
           3910      1.70247e+9 
           3930      1.64369e+9 
           3950      1.61333e+9 
           3970      1.48432e+9 
           3990      1.57927e+9 
           4010      1.54833e+9 
           4030      1.50665e+9 
           4050      1.49525e+9 
           4070      1.44022e+9 
           4090      1.38831e+9 
           4110      1.31654e+9 
           4130      1.37445e+9 
           4150      1.35793e+9 
           4170      1.34814e+9 
           4190      1.32593e+9 
           4210      1.30214e+9 
           4230      1.28632e+9 
           4250      1.25311e+9 
           4270      1.22617e+9 
           4290      1.20629e+9 
           4310      1.17549e+9 
           4330      1.13934e+9 
           4350      1.07762e+9 
           4370      1.12445e+9 
           4390       1.1078e+9 
           4410      1.08737e+9 
           4430      1.08289e+9 
           4450       1.0619e+9 
           4470      1.03977e+9 
           4490      1.03325e+9 
           4510      1.00601e+9 
           4530      9.96674e+8 
           4550      9.77013e+8 
           4570      9.69869e+8 
           4590      9.50617e+8 
           4610      9.35987e+8 
           4630      9.16829e+8 
           4650      8.67196e+8 
           4670      8.89323e+8 
           4690      8.74184e+8 
           4710      8.62344e+8 
           4730       8.6458e+8 
           4750      8.50152e+8 
           4770      8.42558e+8 
           4790      8.29445e+8 
           4810      8.15055e+8 
           4830      8.01165e+8 
           4850      7.82639e+8 
           4870      7.25728e+8 
           4890      7.66485e+8 
           4910      7.54628e+8 
           4930      7.38396e+8 
           4950      7.30504e+8 
           4970      7.25704e+8 
           4990      7.15163e+8 
           5010      6.91994e+8 
           5030      6.90969e+8 
           5050      6.80824e+8 
           5070      6.74671e+8 
           5090      6.64567e+8 
           5110      6.54657e+8 
           5130      6.43808e+8 
           5150      6.35082e+8 
           5170      6.26442e+8 
           5190      6.18491e+8 
           5210      6.10351e+8 
           5230      6.01946e+8 
           5250      5.90862e+8 
           5270      5.82479e+8 
           5290      5.77208e+8 
           5310      5.69034e+8 
           5330       5.6139e+8 
           5350      5.54015e+8 
           5370      5.46303e+8 
           5390      5.38289e+8 
           5410      5.27726e+8 
           5430      5.24676e+8 
           5450      5.17496e+8 
           5470      5.10181e+8 
           5490      5.03446e+8 
           5510      4.96621e+8 
           5530      4.89956e+8 
           5550      4.84193e+8 
           5570      4.77091e+8 
           5590      4.69765e+8 
           5610      4.65356e+8 
           5630      4.59251e+8 
           5650       4.5296e+8 
           5670      4.45798e+8 
           5690       4.3321e+8 
           5710      4.22982e+8 
           5730      4.17992e+8 
           5750      4.11671e+8 
           5770      4.08052e+8 
           5790      4.02901e+8 
           5810      3.97029e+8 
           5830      3.92736e+8 
           5850      3.90308e+8 
           5870      3.80098e+8 
           5890        3.813e+8 
           5910      3.78422e+8 
           5930       3.7462e+8 
           5950      3.71393e+8 
           5970       3.6912e+8 
           5990      3.63604e+8 
           6010      3.59853e+8 
           6030      3.54714e+8 
           6050      3.50623e+8 
           6070        3.467e+8 
           6090      3.42883e+8 
           6110       3.3822e+8 
           6130      3.34362e+8 
           6150      3.29522e+8 
           6170      3.25469e+8 
           6190       3.2273e+8 
           6210      3.19131e+8 
           6230      3.14697e+8 
           6250      3.11095e+8 
           6270      3.07667e+8 
           6290      3.04171e+8 
           6310      2.99549e+8 
           6330      2.97142e+8 
           6350      2.93246e+8 
           6370      2.90275e+8 
           6390      2.86827e+8 
           6410      2.82812e+8 
           6430      2.80281e+8 
           6450      2.76626e+8 
           6470      2.72785e+8 
           6490      2.69846e+8 
           6510      2.66688e+8 
           6530      2.63272e+8 
           6550      2.59313e+8 
           6570      2.37943e+8 
           6590      2.54084e+8 
           6610       2.5223e+8 
           6630      2.49734e+8 
           6650        2.467e+8 
           6670      2.41988e+8 
           6690      2.38911e+8 
           6710      2.38133e+8 
           6730      2.34798e+8 
           6750      2.32822e+8 
           6770       2.3075e+8 
           6790      2.27513e+8 
           6810      2.25756e+8 
           6830      2.23249e+8 
           6850      2.20807e+8 
           6870       2.1819e+8 
           6890       2.1491e+8 
           6910      2.13005e+8 
           6930      2.11526e+8 
           6950      2.09195e+8 
           6970       2.0698e+8 
           6990      2.04718e+8 
           7010      2.02287e+8 
           7030      1.99658e+8 
           7050      1.97875e+8 
           7070      1.93577e+8 
           7090       1.9403e+8 
           7110      1.91159e+8 
           7130      1.89325e+8 
           7150      1.87965e+8 
           7170      1.85459e+8 
           7190      1.83853e+8 
           7210      1.82125e+8 
           7230      1.78495e+8 
           7250      1.77956e+8 
           7270      1.76479e+8 
           7290      1.73634e+8 
           7310      1.72706e+8 
           7330      1.71001e+8 
           7350       1.6929e+8 
           7370      1.67527e+8 
           7390      1.65862e+8 
           7410      1.64124e+8 
           7430      1.62505e+8 
           7450      1.60703e+8 
           7470      1.58696e+8 
           7490      1.56957e+8 
           7510      1.55908e+8 
           7530      1.54284e+8 
           7550       1.5286e+8 
           7570      1.51257e+8 
           7590      1.49029e+8 
           7610      1.47935e+8 
           7630      1.46681e+8 
           7650      1.45297e+8 
           7670      1.43977e+8 
           7690      1.42184e+8 
           7710      1.40896e+8 
           7730      1.39317e+8 
           7750      1.38266e+8 
           7770      1.37063e+8 
           7790      1.35689e+8 
           7810      1.34396e+8 
           7830      1.33114e+8 
           7850      1.31599e+8 
           7870      1.30256e+8 
           7890      1.29016e+8 
           7910      1.27961e+8 
           7930      1.26723e+8 
           7950      1.25657e+8 
           7970      1.24327e+8 
           7990      1.23245e+8 
           8010      1.22002e+8 
           8030      1.20759e+8 
           8050      1.19787e+8 
           8070      1.18674e+8 
           8090      1.17472e+8 
           8110      1.15816e+8 
           8130      1.15384e+8 
           8150      1.14194e+8 
           8170      1.13207e+8 
           8190      1.11672e+8 
           8210      1.09418e+8 
           8230      1.08025e+8 
           8250      1.07585e+8 
           8270      1.06002e+8 
           8290      1.05579e+8 
           8310      1.04766e+8 
           8330       1.0353e+8 
           8350      1.02284e+8 
           8370      1.01693e+8 
           8390      1.01065e+8 
           8410      1.00073e+8 
           8430      9.92703e+7 
           8450      9.81362e+7 
           8470      9.73792e+7 
           8490      9.68164e+7 
           8510      9.49365e+7 
           8530      9.53669e+7 
           8550      9.31433e+7 
           8570      9.42787e+7 
