# Kurucz ODFNEW /NOVER (2003)
# teff = 29000 K (value for the effective temperature for the model. Temperatures are given in K)
# logg = 4 log(cm/s2) (value for Log(G) for the model.)
# meta = 0.5  (value for the Metallicity for the model.)
# lh = 1.25  (l/Hp where l is the  mixing length of the convective element and Hp is the pressure scale height)
# vtur = 2 km/s (Microturbulence velocity)
# alpha = 0.4  (Alpha)
#
# column 1: WAVELENGTH (ANGSTROM), Wavelength in Angstrom
# column 2: FLUX (ERG/CM2/S/A), Flux in erg/cm2/s/A
          147.2     3.74802e-10 
            151      1.25214e-9 
          155.2      4.44764e-9 
          158.8       1.2531e-8 
            162      3.03505e-8 
            166       8.7616e-8 
          170.3      2.57794e-7 
          173.4      5.50481e-7 
          176.8      1.22016e-6 
          180.2      2.62894e-6 
          181.7      3.64852e-6 
          186.1      9.31794e-6 
            191      2.52891e-5 
          193.9      4.45766e-5 
          198.4      0.00010412 
          201.8      0.00019292 
            205     0.000338568 
          210.5      0.00085837 
          216.2      0.00213928 
          219.8      0.00373275 
            223      0.00602741 
          226.8       0.0116721 
            230        0.368881 
            234        0.783099 
            240         1.58011 
          246.5         3.32063 
          252.4         6.37189 
          256.8         9.90806 
            260         15.4532 
            264         22.5337 
          268.5         36.3141 
          273.5         57.9683 
          278.5         88.0936 
            284         185.838 
            290         302.839 
            296         476.286 
            301         681.931 
            308         1497.16 
            318         3240.71 
            328         5793.95 
            338         11168.3 
            348         19708.4 
            357          104448 
            366          277805 
            375          379449 
            385          643357 
            395        2.319e+6 
            405      3.11627e+6 
            414      6.21728e+6 
            422       7.7942e+6 
            430      1.01923e+7 
            441      1.36002e+7 
            451      1.61708e+7 
            460      1.82347e+7 
            470      2.44507e+7 
            480      3.08218e+7 
            490      3.74611e+7 
            500      4.61403e+7 
            506       8.2192e+7 
            512      8.68474e+8 
            520      8.43698e+8 
            530      8.11678e+8 
            540      8.07346e+8 
            550      1.14599e+9 
            560      1.54476e+9 
            570      1.65963e+9 
            580      1.45999e+9 
            590      1.72347e+9 
            600      1.27837e+9 
            610      1.84123e+9 
            620      2.13346e+9 
            630      2.07358e+9 
            640      1.72379e+9 
            650      1.34232e+9 
            658      1.39984e+9 
            665      1.95016e+9 
            675       2.2643e+9 
            685      1.79844e+9 
            695      2.82447e+9 
            705         2.05e+9 
            716      3.17238e+9 
            726      2.95586e+9 
            735      3.17757e+9 
            745      3.13418e+9 
            755       3.2127e+9 
            765      3.50378e+9 
            775      3.77843e+9 
            785      3.97659e+9 
            795      3.92725e+9 
            805      3.77674e+9 
            815      3.71747e+9 
            825      4.17149e+9 
            835      2.82234e+9 
            845      3.95737e+9 
            855      3.89255e+9 
            865      4.10013e+9 
            875      4.21597e+9 
            885      4.45351e+9 
            895      4.54544e+9 
            905      4.33667e+9 
            915      5.46943e+9 
            925     2.43176e+10 
            935     4.11016e+10 
            945     5.37362e+10 
            955     5.82386e+10 
            965     6.24103e+10 
            975     1.45877e+10 
            985     4.23315e+10 
            995     4.25085e+10 
           1005     4.78957e+10 
           1015     5.29829e+10 
           1025     4.14371e+10 
           1035     4.78216e+10 
           1045       6.298e+10 
           1055     5.75811e+10 
           1065     4.37172e+10 
           1075     4.94536e+10 
           1085     4.62549e+10 
           1095     5.02777e+10 
           1105     4.61816e+10 
           1115     4.39903e+10 
           1125     2.78371e+10 
           1135     4.33222e+10 
           1145     4.15774e+10 
           1155     3.95474e+10 
           1165      3.9457e+10 
           1175     2.02395e+10 
           1185     3.54858e+10 
           1195     3.42243e+10 
           1205     2.74966e+10 
           1215     2.59255e+10 
           1225     3.28221e+10 
           1235     3.62373e+10 
           1245     3.40607e+10 
           1255     3.40869e+10 
           1265     3.54429e+10 
           1275     3.72853e+10 
           1285     3.74237e+10 
           1295      2.8698e+10 
           1305     3.09785e+10 
           1315     3.71147e+10 
           1325     3.50201e+10 
           1335     3.39965e+10 
           1345     3.35616e+10 
           1355     3.34168e+10 
           1365     3.09637e+10 
           1375     2.91739e+10 
           1385     2.63444e+10 
           1395     1.33447e+10 
           1405     1.67497e+10 
           1415     2.51921e+10 
           1425     2.37489e+10 
           1435     2.58431e+10 
           1442     2.60077e+10 
           1447     2.57797e+10 
           1455     2.42602e+10 
           1465     2.25242e+10 
           1475     2.36449e+10 
           1485      2.3348e+10 
           1495     2.25816e+10 
           1505     2.05112e+10 
           1512     1.92703e+10 
           1517     1.98261e+10 
           1525     1.96365e+10 
           1535      1.6099e+10 
           1545     1.39573e+10 
           1555     1.38754e+10 
           1565     1.60276e+10 
           1575     1.73662e+10 
           1585     1.74582e+10 
           1595     1.74236e+10 
           1605     1.72759e+10 
           1615     1.63866e+10 
           1625     1.65451e+10 
           1635     1.74129e+10 
           1645     1.78144e+10 
           1655        1.73e+10 
           1665     1.73048e+10 
           1672     1.57749e+10 
           1677     1.92482e+10 
           1685     1.80495e+10 
           1695     1.70517e+10 
           1705     1.68859e+10 
           1715     1.57225e+10 
           1725      1.5066e+10 
           1735     1.58027e+10 
           1745     1.57112e+10 
           1755     1.56244e+10 
           1765      1.5576e+10 
           1775     1.44468e+10 
           1785     1.48884e+10 
           1795     1.48902e+10 
           1805     1.49685e+10 
           1815     1.37816e+10 
           1825     1.40133e+10 
           1835     1.37603e+10 
           1845     1.25657e+10 
           1855     1.31531e+10 
           1865     1.32648e+10 
           1875     1.32062e+10 
           1885     1.20221e+10 
           1895     1.13941e+10 
           1905     1.22133e+10 
           1915     1.15477e+10 
           1925     1.07429e+10 
           1935     1.16946e+10 
           1945     1.20158e+10 
           1955     1.04985e+10 
           1967     1.14934e+10 
           1976      1.2101e+10 
           1984     1.12543e+10 
           1995     1.11116e+10 
           2005     1.15024e+10 
           2015     1.14414e+10 
           2025     1.15703e+10 
           2035     1.06663e+10 
           2045     1.07559e+10 
           2055       9.3874e+9 
           2065      9.21101e+9 
           2074      9.72154e+9 
           2078      9.13538e+9 
           2085      9.78822e+9 
           2095      9.63148e+9 
           2105     1.00648e+10 
           2115     1.01913e+10 
           2125     1.01223e+10 
           2135      9.96242e+9 
           2145      9.55697e+9 
           2155      9.88707e+9 
           2165       9.5942e+9 
           2175      9.61608e+9 
           2185      9.32152e+9 
           2195      9.49951e+9 
           2205      9.44531e+9 
           2215      9.19205e+9 
           2225       9.0358e+9 
           2235      8.86613e+9 
           2245      8.86954e+9 
           2255      8.57991e+9 
           2265      8.65485e+9 
           2275       8.5389e+9 
           2285      8.29187e+9 
           2295      6.97908e+9 
           2305      7.98127e+9 
           2315      7.81264e+9 
           2325      7.82294e+9 
           2335         7.64e+9 
           2345      7.70377e+9 
           2355      7.54135e+9 
           2365      7.43999e+9 
           2375      7.22185e+9 
           2385      7.06605e+9 
           2395      7.00651e+9 
           2405      6.98418e+9 
           2415      6.83991e+9 
           2425      6.83166e+9 
           2435      6.67718e+9 
           2445      6.64662e+9 
           2455      6.58758e+9 
           2465      6.47286e+9 
           2475      6.31242e+9 
           2485      5.85108e+9 
           2495      3.65822e+9 
           2505      5.35008e+9 
           2513      5.59949e+9 
           2518      5.74014e+9 
           2525      5.92545e+9 
           2535       5.9421e+9 
           2545      5.65976e+9 
           2555       5.7335e+9 
           2565      5.60024e+9 
           2575      5.63541e+9 
           2585      5.56917e+9 
           2595      5.49651e+9 
           2605      5.46561e+9 
           2615      5.32847e+9 
           2625      5.30872e+9 
           2635      5.24849e+9 
           2645      5.16262e+9 
           2655      5.11643e+9 
           2665      4.87972e+9 
           2675      4.83888e+9 
           2685      4.89576e+9 
           2695      4.70669e+9 
           2705      4.58994e+9 
           2715      4.59605e+9 
           2725      4.60124e+9 
           2735      4.53482e+9 
           2745      4.49649e+9 
           2755       4.4575e+9 
           2765      4.38733e+9 
           2775      4.43135e+9 
           2785      4.32381e+9 
           2795      4.12477e+9 
           2805      4.20195e+9 
           2815      4.21964e+9 
           2825      4.17117e+9 
           2835      4.01871e+9 
           2845      4.05972e+9 
           2855      3.96394e+9 
           2865      3.94325e+9 
           2875      3.88068e+9 
           2885      3.83676e+9 
           2895      3.77861e+9 
           2910      3.65154e+9 
           2930      3.66579e+9 
           2950      3.55621e+9 
           2970      3.48285e+9 
           2990      3.36836e+9 
           3010      3.19859e+9 
           3030      3.16487e+9 
           3050      3.15375e+9 
           3070      3.12879e+9 
           3090       2.9665e+9 
           3110      2.99655e+9 
           3130      2.88824e+9 
           3150      2.85787e+9 
           3170      2.77123e+9 
           3190      2.73656e+9 
           3210      2.67945e+9 
           3230      2.59842e+9 
           3250      2.57592e+9 
           3270      2.49296e+9 
           3290      2.45397e+9 
           3310      2.39748e+9 
           3330      2.33392e+9 
           3350      2.28925e+9 
           3370      2.23452e+9 
           3390      2.22118e+9 
           3410      2.17356e+9 
           3430      2.14521e+9 
           3450      2.08212e+9 
           3470      2.04658e+9 
           3490      2.00147e+9 
           3510      1.96314e+9 
           3530      1.94703e+9 
           3550      1.90037e+9 
           3570      1.86338e+9 
           3590      1.81251e+9 
           3610      1.78543e+9 
           3630        1.751e+9 
           3640      1.73926e+9 
           3650      1.69799e+9 
           3670      1.67707e+9 
           3690      1.64135e+9 
           3710      1.56619e+9 
           3730      1.52255e+9 
           3750      1.55471e+9 
           3770       1.5214e+9 
           3790      1.58457e+9 
           3810      1.62232e+9 
           3830      1.45112e+9 
           3850      1.60342e+9 
           3870      1.53309e+9 
           3890      1.37167e+9 
           3910      1.57228e+9 
           3930      1.50768e+9 
           3950      1.46512e+9 
           3970      1.26133e+9 
           3990      1.44765e+9 
           4010      1.42892e+9 
           4030      1.36905e+9 
           4050      1.37249e+9 
           4070      1.28908e+9 
           4090      1.21605e+9 
           4110      1.12204e+9 
           4130      1.24588e+9 
           4150      1.23356e+9 
           4170      1.24004e+9 
           4190      1.22172e+9 
           4210      1.20632e+9 
           4230      1.17807e+9 
           4250      1.13372e+9 
           4270       1.1067e+9 
           4290      1.07426e+9 
           4310       1.0377e+9 
           4330      9.85522e+8 
           4350      9.22128e+8 
           4370      9.97134e+8 
           4390      1.00375e+9 
           4410      9.82808e+8 
           4430      9.81517e+8 
           4450      9.59568e+8 
           4470      9.36031e+8 
           4490      9.40436e+8 
           4510       9.2289e+8 
           4530      9.17329e+8 
           4550      9.03823e+8 
           4570      8.90428e+8 
           4590      8.72081e+8 
           4610      8.46077e+8 
           4630      8.31965e+8 
           4650      7.89089e+8 
           4670      8.07893e+8 
           4690      8.01891e+8 
           4710      7.71915e+8 
           4730      7.87358e+8 
           4750      7.72193e+8 
           4770      7.74722e+8 
           4790      7.60746e+8 
           4810      7.42709e+8 
           4830      7.27366e+8 
           4850      6.93512e+8 
           4870      6.27832e+8 
           4890      6.95699e+8 
           4910      6.87574e+8 
           4930      6.68878e+8 
           4950      6.62038e+8 
           4970       6.6453e+8 
           4990      6.53328e+8 
           5010      6.21256e+8 
           5030      6.26972e+8 
           5050      6.17584e+8 
           5070      6.16326e+8 
           5090      6.03902e+8 
           5110      5.93168e+8 
           5130      5.81165e+8 
           5150      5.75353e+8 
           5170      5.68275e+8 
           5190      5.62113e+8 
           5210      5.53767e+8 
           5230      5.46854e+8 
           5250       5.3813e+8 
           5270      5.28153e+8 
           5290      5.24396e+8 
           5310      5.16111e+8 
           5330      5.09871e+8 
           5350      5.02354e+8 
           5370       4.9585e+8 
           5390      4.87314e+8 
           5410      4.80448e+8 
           5430      4.75804e+8 
           5450      4.68221e+8 
           5470      4.61983e+8 
           5490      4.55786e+8 
           5510      4.50808e+8 
           5530      4.43352e+8 
           5550      4.39087e+8 
           5570       4.3277e+8 
           5590      4.26496e+8 
           5610      4.21449e+8 
           5630      4.16392e+8 
           5650      4.09236e+8 
           5670      4.01679e+8 
           5690      3.92158e+8 
           5710      3.89138e+8 
           5730      3.85818e+8 
           5750      3.78627e+8 
           5770      3.76946e+8 
           5790      3.71357e+8 
           5810      3.66438e+8 
           5830      3.60404e+8 
           5850      3.57404e+8 
           5870      3.45144e+8 
           5890      3.45671e+8 
           5910      3.42721e+8 
           5930       3.3842e+8 
           5950      3.34255e+8 
           5970      3.33308e+8 
           5990      3.26865e+8 
           6010      3.24527e+8 
           6030      3.19311e+8 
           6050      3.15844e+8 
           6070      3.12775e+8 
           6090      3.09139e+8 
           6110       3.0502e+8 
           6130      3.01629e+8 
           6150      2.95666e+8 
           6170      2.92525e+8 
           6190      2.90432e+8 
           6210       2.8746e+8 
           6230      2.83909e+8 
           6250      2.79298e+8 
           6270      2.76695e+8 
           6290       2.7371e+8 
           6310       2.6947e+8 
           6330      2.67469e+8 
           6350      2.63264e+8 
           6370      2.61317e+8 
           6390      2.58097e+8 
           6410      2.54967e+8 
           6430      2.52335e+8 
           6450      2.49206e+8 
           6470      2.44455e+8 
           6490      2.41806e+8 
           6510      2.38562e+8 
           6530      2.35416e+8 
           6550      2.29458e+8 
           6570      2.05196e+8 
           6590      2.26802e+8 
           6610      2.26225e+8 
           6630      2.24271e+8 
           6650      2.21246e+8 
           6670      2.16864e+8 
           6690      2.14467e+8 
           6710       2.1401e+8 
           6730      2.10636e+8 
           6750       2.0967e+8 
           6770      2.07521e+8 
           6790      2.03162e+8 
           6810      2.02515e+8 
           6830      1.99829e+8 
           6850      1.98278e+8 
           6870       1.9592e+8 
           6890      1.93134e+8 
           6910      1.90132e+8 
           6930       1.8993e+8 
           6950      1.87926e+8 
           6970      1.85911e+8 
           6990      1.83738e+8 
           7010      1.81564e+8 
           7030      1.79427e+8 
           7050      1.77683e+8 
           7070       1.7319e+8 
           7090       1.7393e+8 
           7110      1.70203e+8 
           7130      1.68657e+8 
           7150      1.68422e+8 
           7170      1.66787e+8 
           7190      1.65169e+8 
           7210      1.63449e+8 
           7230      1.59195e+8 
           7250      1.59307e+8 
           7270      1.58353e+8 
           7290      1.55437e+8 
           7310      1.54968e+8 
           7330       1.5331e+8 
           7350      1.51773e+8 
           7370      1.50312e+8 
           7390      1.48782e+8 
           7410      1.47246e+8 
           7430       1.4569e+8 
           7450      1.44115e+8 
           7470      1.41096e+8 
           7490      1.40719e+8 
           7510      1.39744e+8 
           7530      1.38012e+8 
           7550      1.37064e+8 
           7570      1.35677e+8 
           7590      1.34073e+8 
           7610      1.32322e+8 
           7630        1.315e+8 
           7650      1.30099e+8 
           7670       1.2903e+8 
           7690        1.275e+8 
           7710      1.26326e+8 
           7730       1.2469e+8 
           7750      1.23947e+8 
           7770       1.2248e+8 
           7790      1.21622e+8 
           7810      1.20401e+8 
           7830      1.19276e+8 
           7850      1.18088e+8 
           7870      1.16339e+8 
           7890      1.15048e+8 
           7910      1.14431e+8 
           7930      1.13262e+8 
           7950      1.12341e+8 
           7970      1.11167e+8 
           7990      1.10168e+8 
           8010      1.09085e+8 
           8030      1.07999e+8 
           8050       1.0716e+8 
           8070      1.06161e+8 
           8090      1.05079e+8 
           8110      1.02951e+8 
           8130      1.03187e+8 
           8150      1.02159e+8 
           8170      1.01366e+8 
           8190      9.91584e+7 
           8210      9.84523e+7 
           8230      9.72847e+7 
           8250      9.72453e+7 
           8270       9.4743e+7 
           8290      9.51963e+7 
           8310      9.46241e+7 
           8330      9.37468e+7 
           8350      9.23743e+7 
           8370      9.16752e+7 
           8390      9.12601e+7 
           8410      9.01874e+7 
           8430      8.95903e+7 
           8450      8.81643e+7 
           8470      8.79007e+7 
           8490      8.69748e+7 
           8510       8.5755e+7 
           8530      8.55604e+7 
           8550       8.3831e+7 
           8570      8.46969e+7 
