# Kurucz ODFNEW /NOVER (2003)
# teff = 25000 K (value for the effective temperature for the model. Temperatures are given in K)
# logg = 3.5 log(cm/s2) (value for Log(G) for the model.)
# meta = 0  (value for the Metallicity for the model.)
# lh = 1.25  (l/Hp where l is the  mixing length of the convective element and Hp is the pressure scale height)
# vtur = 2 km/s (Microturbulence velocity)
# alpha = 0  (Alpha)
#
# column 1: WAVELENGTH (ANGSTROM), Wavelength in Angstrom
# column 2: FLUX (ERG/CM2/S/A), Flux in erg/cm2/s/A
          147.2     2.49758e-14 
            151     1.06887e-13 
          155.2     4.94031e-13 
          158.8     1.73041e-12 
            162     5.06325e-12 
            166     1.83511e-11 
          170.3     6.87183e-11 
          173.4     1.71879e-10 
          176.8     4.53426e-10 
          180.2      1.15641e-9 
          181.7      1.72944e-9 
          186.1      5.44733e-9 
            191      1.84518e-8 
          193.9      3.69533e-8 
          198.4      1.04522e-7 
          201.8      2.22671e-7 
            205      4.43936e-7 
          210.5      1.38754e-6 
          216.2      4.26003e-6 
          219.8      8.40217e-6 
            223      1.50945e-5 
          226.8      2.97139e-5 
            230       0.0030461 
            234      0.00698679 
            240       0.0159077 
          246.5       0.0378104 
          252.4       0.0804602 
          256.8        0.129426 
            260        0.215577 
            264        0.338795 
          268.5        0.563012 
          273.5        0.959523 
          278.5          1.5962 
            284         3.01356 
            290         5.26884 
            296         9.05361 
            301         13.7634 
            308         25.6055 
            318         61.1453 
            328         124.392 
            338         259.715 
            348         501.646 
            357         2237.69 
            366         4472.74 
            375         6659.64 
            385         11053.7 
            395         20677.9 
            405         30891.7 
            414         45705.3 
            422         62128.9 
            430         88057.7 
            441          130716 
            451          175832 
            460          229812 
            470          322548 
            480          434187 
            490          583295 
            500          757965 
            506       4.2151e+6 
            512      2.99608e+7 
            520      3.24901e+7 
            530      3.60045e+7 
            540      3.73732e+7 
            550      5.53549e+7 
            560      6.63649e+7 
            570      7.69147e+7 
            580      7.25977e+7 
            590      9.39486e+7 
            600      1.01467e+8 
            610      1.19984e+8 
            620      1.34354e+8 
            630      1.41096e+8 
            640      1.31119e+8 
            650      9.99202e+7 
            658       1.4926e+8 
            665      1.79937e+8 
            675      1.88073e+8 
            685      1.85119e+8 
            695      2.46492e+8 
            705      2.41762e+8 
            716      2.78732e+8 
            726      2.83643e+8 
            735      2.93217e+8 
            745      3.33401e+8 
            755      3.51262e+8 
            765       3.7428e+8 
            775      3.98918e+8 
            785      4.25812e+8 
            795      4.39224e+8 
            805      4.50924e+8 
            815      4.58592e+8 
            825      5.01465e+8 
            835      4.24918e+8 
            845      5.08562e+8 
            855      5.14746e+8 
            865      5.47503e+8 
            875      5.81904e+8 
            885      6.27077e+8 
            895      6.53118e+8 
            905      6.45112e+8 
            915      1.01631e+9 
            925       8.0887e+9 
            935     1.56919e+10 
            945     2.31967e+10 
            955     2.59746e+10 
            965     2.75075e+10 
            975      5.70509e+9 
            985      2.0308e+10 
            995     2.14669e+10 
           1005     2.55349e+10 
           1015     2.64286e+10 
           1025     1.84473e+10 
           1035     2.16192e+10 
           1045     3.08187e+10 
           1055     2.82436e+10 
           1065     2.31892e+10 
           1075     2.63552e+10 
           1085     2.36504e+10 
           1095     2.64739e+10 
           1105     2.41876e+10 
           1115     2.34521e+10 
           1125     1.84012e+10 
           1135     2.43474e+10 
           1145     2.25151e+10 
           1155     2.27496e+10 
           1165     2.23402e+10 
           1175     1.25435e+10 
           1185     2.08035e+10 
           1195     1.97658e+10 
           1205      1.4084e+10 
           1215      1.3232e+10 
           1225      1.8849e+10 
           1235     2.07593e+10 
           1245     1.98735e+10 
           1255     1.97525e+10 
           1265     2.01498e+10 
           1275     2.08424e+10 
           1285     2.06123e+10 
           1295     1.51945e+10 
           1305     1.65803e+10 
           1315     2.01131e+10 
           1325     1.88422e+10 
           1335     1.81619e+10 
           1345     1.84126e+10 
           1355      1.8131e+10 
           1365     1.68307e+10 
           1375     1.62673e+10 
           1385     1.56882e+10 
           1395     1.06999e+10 
           1405     1.18693e+10 
           1415     1.39877e+10 
           1425     1.35872e+10 
           1435     1.42155e+10 
           1442     1.44931e+10 
           1447     1.42316e+10 
           1455     1.37098e+10 
           1465     1.26344e+10 
           1475     1.30131e+10 
           1485     1.28921e+10 
           1495     1.25791e+10 
           1505     1.14611e+10 
           1512      1.0224e+10 
           1517     1.05694e+10 
           1525     1.08378e+10 
           1535      9.06095e+9 
           1545      8.65601e+9 
           1555      8.42288e+9 
           1565      9.30324e+9 
           1575      9.98461e+9 
           1585     1.00205e+10 
           1595      9.88239e+9 
           1605      9.92634e+9 
           1615      9.63726e+9 
           1625      9.55311e+9 
           1635     1.01257e+10 
           1645     1.01273e+10 
           1655     1.00259e+10 
           1665     1.01149e+10 
           1672      9.56181e+9 
           1677     1.07074e+10 
           1685     1.02236e+10 
           1695      9.61878e+9 
           1705       9.4236e+9 
           1715      8.85407e+9 
           1725      8.73373e+9 
           1735      9.07187e+9 
           1745      8.88319e+9 
           1755       8.9108e+9 
           1765      8.86296e+9 
           1775      8.23547e+9 
           1785      8.42627e+9 
           1795      8.61209e+9 
           1805      8.69038e+9 
           1815       7.7278e+9 
           1825      8.04466e+9 
           1835       7.8318e+9 
           1845      7.11077e+9 
           1855      7.25722e+9 
           1865      7.35669e+9 
           1875      7.61544e+9 
           1885      6.76363e+9 
           1895      6.27993e+9 
           1905      6.84316e+9 
           1915      6.43709e+9 
           1925      6.06447e+9 
           1935      6.50292e+9 
           1945      6.64894e+9 
           1955      5.92197e+9 
           1967      6.48517e+9 
           1976      6.77444e+9 
           1984      6.28071e+9 
           1995      6.16261e+9 
           2005      6.42367e+9 
           2015      6.36099e+9 
           2025      6.52708e+9 
           2035      5.90599e+9 
           2045      6.03097e+9 
           2055      5.69275e+9 
           2065      5.65886e+9 
           2074      6.04583e+9 
           2078      5.41161e+9 
           2085      5.78653e+9 
           2095       5.4904e+9 
           2105      5.69861e+9 
           2115       5.7278e+9 
           2125      5.76971e+9 
           2135      5.68306e+9 
           2145      5.34706e+9 
           2155      5.59826e+9 
           2165      5.57375e+9 
           2175      5.50382e+9 
           2185      5.31137e+9 
           2195       5.3935e+9 
           2205      5.38135e+9 
           2215       5.2891e+9 
           2225      5.15126e+9 
           2235      5.05353e+9 
           2245      5.10219e+9 
           2255      4.94502e+9 
           2265       4.9917e+9 
           2275      4.92011e+9 
           2285      4.90658e+9 
           2295      4.40271e+9 
           2305      4.72969e+9 
           2315      4.59972e+9 
           2325      4.54839e+9 
           2335      4.42805e+9 
           2345       4.4701e+9 
           2355       4.4363e+9 
           2365      4.39718e+9 
           2375      4.29658e+9 
           2385      4.26195e+9 
           2395      4.20541e+9 
           2405      4.14166e+9 
           2415      4.09768e+9 
           2425      4.08221e+9 
           2435      3.96965e+9 
           2445       3.9743e+9 
           2455      3.96936e+9 
           2465      3.90039e+9 
           2475      3.83444e+9 
           2485      3.74635e+9 
           2495      3.07071e+9 
           2505      3.61094e+9 
           2513      3.48932e+9 
           2518      3.61184e+9 
           2525      3.59078e+9 
           2535      3.55799e+9 
           2545       3.4269e+9 
           2555      3.46078e+9 
           2565       3.4169e+9 
           2575      3.41462e+9 
           2585      3.36175e+9 
           2595      3.33125e+9 
           2605        3.306e+9 
           2615      3.25256e+9 
           2625      3.23083e+9 
           2635      3.20055e+9 
           2645      3.15561e+9 
           2655      3.13851e+9 
           2665       3.0209e+9 
           2675      3.02594e+9 
           2685        3.021e+9 
           2695      2.91408e+9 
           2705      2.85978e+9 
           2715      2.86323e+9 
           2725      2.85616e+9 
           2735      2.83022e+9 
           2745      2.77399e+9 
           2755      2.76084e+9 
           2765      2.72513e+9 
           2775      2.73659e+9 
           2785       2.6907e+9 
           2795      2.59866e+9 
           2805      2.61857e+9 
           2815      2.61735e+9 
           2825      2.58148e+9 
           2835      2.49454e+9 
           2845      2.52167e+9 
           2855      2.47381e+9 
           2865      2.46988e+9 
           2875      2.44329e+9 
           2885      2.41873e+9 
           2895       2.3789e+9 
           2910      2.33077e+9 
           2930      2.30095e+9 
           2950      2.23211e+9 
           2970      2.19912e+9 
           2990      2.15003e+9 
           3010      2.07103e+9 
           3030      2.06233e+9 
           3050       2.0293e+9 
           3070      1.99635e+9 
           3090      1.91642e+9 
           3110      1.90976e+9 
           3130      1.86206e+9 
           3150       1.8318e+9 
           3170      1.78582e+9 
           3190      1.74972e+9 
           3210      1.72503e+9 
           3230      1.68286e+9 
           3250      1.65854e+9 
           3270      1.62013e+9 
           3290      1.58845e+9 
           3310      1.56013e+9 
           3330      1.52613e+9 
           3350       1.4993e+9 
           3370      1.46935e+9 
           3390      1.44675e+9 
           3410      1.42037e+9 
           3430      1.38893e+9 
           3450      1.35863e+9 
           3470      1.33469e+9 
           3490       1.3084e+9 
           3510      1.28833e+9 
           3530      1.27072e+9 
           3550      1.24667e+9 
           3570      1.22768e+9 
           3590      1.19329e+9 
           3610      1.17238e+9 
           3630      1.15547e+9 
           3640       1.1532e+9 
           3650       1.1265e+9 
           3670      1.11347e+9 
           3690      1.08525e+9 
           3710      1.05154e+9 
           3730       1.0237e+9 
           3750      1.08444e+9 
           3770      1.07557e+9 
           3790      1.10309e+9 
           3810      1.13327e+9 
           3830       1.0183e+9 
           3850      1.13048e+9 
           3870      1.10459e+9 
           3890       9.7117e+8 
           3910      1.09583e+9 
           3930      1.05826e+9 
           3950       1.0491e+9 
           3970      8.99868e+8 
           3990        1.016e+9 
           4010      1.00395e+9 
           4030      9.62207e+8 
           4050      9.70275e+8 
           4070      9.30492e+8 
           4090      8.89412e+8 
           4110      8.14406e+8 
           4130      8.87971e+8 
           4150      8.80767e+8 
           4170      8.74527e+8 
           4190      8.63387e+8 
           4210      8.54736e+8 
           4230      8.36608e+8 
           4250      8.15362e+8 
           4270      7.94415e+8 
           4290      7.84467e+8 
           4310       7.6321e+8 
           4330      7.23584e+8 
           4350      6.71891e+8 
           4370      7.27324e+8 
           4390      7.21768e+8 
           4410      7.14577e+8 
           4430      7.07583e+8 
           4450      6.96005e+8 
           4470      6.71615e+8 
           4490      6.75531e+8 
           4510      6.68367e+8 
           4530      6.57981e+8 
           4550      6.48333e+8 
           4570       6.3735e+8 
           4590      6.26836e+8 
           4610      6.13237e+8 
           4630      6.04594e+8 
           4650      5.84368e+8 
           4670       5.8656e+8 
           4690      5.81551e+8 
           4710      5.61423e+8 
           4730      5.62125e+8 
           4750      5.52859e+8 
           4770       5.5171e+8 
           4790      5.42334e+8 
           4810      5.32037e+8 
           4830      5.22989e+8 
           4850      5.01772e+8 
           4870        4.569e+8 
           4890       5.0171e+8 
           4910      4.95631e+8 
           4930      4.80768e+8 
           4950      4.79259e+8 
           4970      4.76156e+8 
           4990      4.68519e+8 
           5010      4.50783e+8 
           5030      4.54576e+8 
           5050      4.45073e+8 
           5070      4.42595e+8 
           5090      4.35706e+8 
           5110      4.29013e+8 
           5130      4.20335e+8 
           5150      4.15613e+8 
           5170      4.11756e+8 
           5190      4.06588e+8 
           5210      4.00419e+8 
           5230      3.95187e+8 
           5250      3.89981e+8 
           5270      3.83852e+8 
           5290      3.79474e+8 
           5310      3.74016e+8 
           5330      3.69344e+8 
           5350      3.64074e+8 
           5370      3.59695e+8 
           5390      3.54502e+8 
           5410      3.50238e+8 
           5430       3.4535e+8 
           5450      3.40588e+8 
           5470      3.36138e+8 
           5490      3.31718e+8 
           5510       3.2795e+8 
           5530      3.23044e+8 
           5550      3.19595e+8 
           5570      3.15191e+8 
           5590      3.11384e+8 
           5610      3.07241e+8 
           5630      3.03505e+8 
           5650      2.98634e+8 
           5670      2.93625e+8 
           5690      2.88876e+8 
           5710      2.87261e+8 
           5730      2.83974e+8 
           5750      2.79518e+8 
           5770      2.77425e+8 
           5790      2.73713e+8 
           5810      2.70404e+8 
           5830      2.66401e+8 
           5850      2.63581e+8 
           5870      2.54419e+8 
           5890      2.55279e+8 
           5910      2.53317e+8 
           5930      2.49747e+8 
           5950      2.46602e+8 
           5970        2.451e+8 
           5990       2.4101e+8 
           6010      2.38835e+8 
           6030      2.35492e+8 
           6050      2.32908e+8 
           6070      2.30547e+8 
           6090      2.27817e+8 
           6110      2.25097e+8 
           6130      2.22567e+8 
           6150      2.19021e+8 
           6170      2.16742e+8 
           6190      2.14567e+8 
           6210      2.12249e+8 
           6230       2.0984e+8 
           6250      2.07034e+8 
           6270      2.04766e+8 
           6290      2.02552e+8 
           6310      2.00068e+8 
           6330      1.97969e+8 
           6350      1.95248e+8 
           6370      1.93383e+8 
           6390      1.91123e+8 
           6410      1.88988e+8 
           6430      1.86957e+8 
           6450      1.84786e+8 
           6470      1.82169e+8 
           6490      1.80171e+8 
           6510      1.78515e+8 
           6530       1.7616e+8 
           6550      1.71529e+8 
           6570      1.54515e+8 
           6590      1.68985e+8 
           6610       1.6855e+8 
           6630      1.66918e+8 
           6650      1.65012e+8 
           6670      1.62127e+8 
           6690      1.60402e+8 
           6710      1.59832e+8 
           6730      1.57702e+8 
           6750      1.56422e+8 
           6770      1.54743e+8 
           6790      1.52035e+8 
           6810      1.51216e+8 
           6830      1.49573e+8 
           6850      1.48139e+8 
           6870      1.46543e+8 
           6890      1.44821e+8 
           6910      1.43147e+8 
           6930      1.41922e+8 
           6950      1.40451e+8 
           6970      1.38979e+8 
           6990      1.37484e+8 
           7010      1.36049e+8 
           7030      1.34597e+8 
           7050      1.33205e+8 
           7070      1.29883e+8 
           7090       1.3047e+8 
           7110      1.28329e+8 
           7130      1.27091e+8 
           7150      1.26447e+8 
           7170      1.25149e+8 
           7190      1.23893e+8 
           7210      1.22627e+8 
           7230       1.1978e+8 
           7250      1.19908e+8 
           7270        1.189e+8 
           7290      1.16824e+8 
           7310      1.16482e+8 
           7330      1.15286e+8 
           7350      1.14178e+8 
           7370      1.13046e+8 
           7390      1.11911e+8 
           7410      1.10793e+8 
           7430      1.09665e+8 
           7450      1.08595e+8 
           7470      1.07103e+8 
           7490      1.06411e+8 
           7510      1.05357e+8 
           7530      1.04293e+8 
           7550      1.03358e+8 
           7570      1.02353e+8 
           7590      1.01336e+8 
           7610      1.00232e+8 
           7630      9.93578e+7 
           7650      9.84077e+7 
           7670      9.74661e+7 
           7690      9.65202e+7 
           7710      9.55638e+7 
           7730      9.46349e+7 
           7750       9.3777e+7 
           7770      9.26209e+7 
           7790      9.20032e+7 
           7810      9.10694e+7 
           7830      9.02606e+7 
           7850      8.94406e+7 
           7870      8.84939e+7 
           7890      8.75072e+7 
           7910      8.68485e+7 
           7930      8.59916e+7 
           7950      8.51422e+7 
           7970      8.43062e+7 
           7990      8.35425e+7 
           8010      8.27735e+7 
           8030       8.2017e+7 
           8050      8.13251e+7 
           8070      8.06101e+7 
           8090      7.97573e+7 
           8110      7.87458e+7 
           8130      7.84443e+7 
           8150      7.76061e+7 
           8170      7.70516e+7 
           8190      7.60579e+7 
           8210      7.52072e+7 
           8230      7.44861e+7 
           8250      7.41309e+7 
           8270      7.28199e+7 
           8290      7.26937e+7 
           8310      7.20933e+7 
           8330      7.14543e+7 
           8350      7.05073e+7 
           8370      6.99933e+7 
           8390      6.94994e+7 
           8410      6.88177e+7 
           8430      6.81682e+7 
           8450       6.7123e+7 
           8470      6.67329e+7 
           8490      6.64084e+7 
           8510      6.52383e+7 
           8530      6.54557e+7 
           8550      6.33306e+7 
           8570       6.5082e+7 
           8590      6.23491e+7 
