# Kurucz ODFNEW /NOVER (2003)
# teff = 30000 K (value for the effective temperature for the model. Temperatures are given in K)
# logg = 5 log(cm/s2) (value for Log(G) for the model.)
# meta = 0  (value for the Metallicity for the model.)
# lh = 1.25  (l/Hp where l is the  mixing length of the convective element and Hp is the pressure scale height)
# vtur = 2 km/s (Microturbulence velocity)
# alpha = 0.4  (Alpha)
#
# column 1: WAVELENGTH (ANGSTROM), Wavelength in Angstrom
# column 2: FLUX (ERG/CM2/S/A), Flux in erg/cm2/s/A
          147.2       7.3453e-9 
            151      2.24623e-8 
          155.2      7.28464e-8 
          158.8      1.90879e-7 
            162      4.35283e-7 
            166      1.17104e-6 
          170.3      3.22522e-6 
          173.4      6.54575e-6 
          176.8      1.38274e-5 
          180.2      2.84577e-5 
          181.7      3.87833e-5 
          186.1      9.39267e-5 
            191     0.000241005 
          193.9     0.000412128 
          198.4      0.00092063 
          201.8      0.00165287 
            205      0.00281976 
          210.5      0.00682199 
          216.2       0.0162854 
          219.8       0.0276137 
            223       0.0435486 
          226.8       0.0751727 
            230          4.9635 
            234         10.4778 
            240         20.0203 
          246.5         39.4665 
          252.4          71.513 
          256.8         104.719 
            260         154.114 
            264         213.689 
          268.5         327.853 
          273.5         501.715 
          278.5         738.088 
            284         1322.36 
            290          2053.6 
            296          3121.9 
            301         4346.48 
            308         7555.32 
            318         15274.2 
            328         26216.7 
            338         47528.1 
            348         79869.6 
            357          298844 
            366          617899 
            375          839293 
            385      1.31142e+6 
            395      2.66759e+6 
            405      3.56943e+6 
            414      5.20246e+6 
            422      6.25668e+6 
            430      8.01421e+6 
            441      1.06756e+7 
            451      1.34435e+7 
            460      1.59441e+7 
            470       2.0385e+7 
            480      2.51529e+7 
            490      3.10155e+7 
            500       3.8003e+7 
            506      1.07754e+8 
            512      7.05434e+8 
            520      6.94734e+8 
            530        7.285e+8 
            540       6.8394e+8 
            550      9.17364e+8 
            560      1.05484e+9 
            570      1.13778e+9 
            580      1.04744e+9 
            590      1.24177e+9 
            600      1.19277e+9 
            610      1.37176e+9 
            620      1.49555e+9 
            630      1.52267e+9 
            640      1.43738e+9 
            650      1.54036e+9 
            658      1.55629e+9 
            665      1.68326e+9 
            675      1.70379e+9 
            685      1.59507e+9 
            695      2.03158e+9 
            705      1.87635e+9 
            716      2.19612e+9 
            726      2.17114e+9 
            735      2.22687e+9 
            745      2.39888e+9 
            755      2.44249e+9 
            765      2.55743e+9 
            775      2.65337e+9 
            785      2.77675e+9 
            795      2.78018e+9 
            805      2.80007e+9 
            815      2.81396e+9 
            825      2.98671e+9 
            835      2.54175e+9 
            845      2.96329e+9 
            855       2.9739e+9 
            865       3.0949e+9 
            875        3.183e+9 
            885       3.3287e+9 
            895      3.40739e+9 
            905      3.34686e+9 
            915      3.59237e+9 
            925     1.26343e+10 
            935     2.61863e+10 
            945     5.16438e+10 
            955     6.43934e+10 
            965     8.24073e+10 
            975     2.14266e+10 
            985     7.46178e+10 
            995     6.60858e+10 
           1005      7.2002e+10 
           1015     7.26161e+10 
           1025     3.53657e+10 
           1035     6.31338e+10 
           1045     8.43896e+10 
           1055     7.88779e+10 
           1065     6.17395e+10 
           1075     6.92514e+10 
           1085     6.33533e+10 
           1095      6.9959e+10 
           1105      6.3802e+10 
           1115     6.16264e+10 
           1125     4.61586e+10 
           1135     6.09739e+10 
           1145     5.43992e+10 
           1155     5.45683e+10 
           1165     5.44155e+10 
           1175     3.48672e+10 
           1185     5.01769e+10 
           1195     4.67527e+10 
           1205       3.713e+10 
           1215     2.35752e+10 
           1225     4.14054e+10 
           1235     4.69867e+10 
           1245     4.55762e+10 
           1255     4.50202e+10 
           1265     4.56179e+10 
           1275     4.64022e+10 
           1285     4.58539e+10 
           1295        3.59e+10 
           1305     3.79334e+10 
           1315     4.40993e+10 
           1325     4.12839e+10 
           1335     4.03612e+10 
           1345     3.90614e+10 
           1355     3.94658e+10 
           1365     3.62611e+10 
           1375       3.508e+10 
           1385      3.3827e+10 
           1395     2.26403e+10 
           1405     2.51474e+10 
           1415     3.10155e+10 
           1425     2.91068e+10 
           1435     3.03692e+10 
           1442     3.10462e+10 
           1447     3.05495e+10 
           1455     2.93052e+10 
           1465      2.7683e+10 
           1475     2.78267e+10 
           1485     2.73507e+10 
           1495     2.66405e+10 
           1505       2.432e+10 
           1512     2.28594e+10 
           1517     2.32656e+10 
           1525     2.33461e+10 
           1535     1.99219e+10 
           1545     1.88047e+10 
           1555     1.82427e+10 
           1565     1.96807e+10 
           1575     2.06891e+10 
           1585     2.04438e+10 
           1595     2.05141e+10 
           1605     2.00662e+10 
           1615     1.92017e+10 
           1625     1.92443e+10 
           1635     1.97805e+10 
           1645      1.9634e+10 
           1655      1.9535e+10 
           1665     1.93704e+10 
           1672     1.84229e+10 
           1677     2.03935e+10 
           1685     1.95568e+10 
           1695     1.86488e+10 
           1705     1.80743e+10 
           1715     1.73595e+10 
           1725     1.66119e+10 
           1735     1.71681e+10 
           1745     1.69644e+10 
           1755      1.6812e+10 
           1765     1.64987e+10 
           1775     1.56342e+10 
           1785     1.57811e+10 
           1795     1.58641e+10 
           1805     1.58681e+10 
           1815     1.47708e+10 
           1825     1.49521e+10 
           1835     1.45613e+10 
           1845     1.33027e+10 
           1855     1.35396e+10 
           1865     1.36851e+10 
           1875     1.36992e+10 
           1885      1.2512e+10 
           1895     1.17728e+10 
           1905     1.24697e+10 
           1915     1.18713e+10 
           1925     1.12003e+10 
           1935     1.18475e+10 
           1945     1.21154e+10 
           1955     1.09174e+10 
           1967     1.15655e+10 
           1976     1.21126e+10 
           1984     1.12093e+10 
           1995     1.10377e+10 
           2005     1.12137e+10 
           2015     1.11639e+10 
           2025     1.12643e+10 
           2035     1.04944e+10 
           2045       1.051e+10 
           2055      9.67555e+9 
           2065      9.61122e+9 
           2074      9.84153e+9 
           2078      9.31685e+9 
           2085       9.5421e+9 
           2095      9.24608e+9 
           2105      9.72723e+9 
           2115      9.75674e+9 
           2125      9.73938e+9 
           2135      9.55083e+9 
           2145      9.20816e+9 
           2155      9.38249e+9 
           2165      9.21082e+9 
           2175      9.10004e+9 
           2185      8.90409e+9 
           2195       8.9248e+9 
           2205      8.82698e+9 
           2215      8.65148e+9 
           2225      8.48409e+9 
           2235      8.33217e+9 
           2245      8.31641e+9 
           2255       8.0776e+9 
           2265      8.08721e+9 
           2275      7.96969e+9 
           2285      7.82071e+9 
           2295      7.17764e+9 
           2305      7.54803e+9 
           2315       7.4211e+9 
           2325      7.34485e+9 
           2335       7.1881e+9 
           2345      7.20023e+9 
           2355      7.09914e+9 
           2365      7.01565e+9 
           2375      6.85318e+9 
           2385      6.74152e+9 
           2395      6.65973e+9 
           2405      6.59404e+9 
           2415      6.47559e+9 
           2425      6.43447e+9 
           2435      6.27403e+9 
           2445      6.23164e+9 
           2455      6.17222e+9 
           2465      6.10259e+9 
           2475      5.99618e+9 
           2485      5.86517e+9 
           2495      4.78466e+9 
           2505      5.62895e+9 
           2513      5.44212e+9 
           2518      5.52564e+9 
           2525      5.59478e+9 
           2535      5.55648e+9 
           2545      5.33939e+9 
           2555      5.35412e+9 
           2565      5.26756e+9 
           2575      5.25599e+9 
           2585      5.20097e+9 
           2595      5.13579e+9 
           2605      5.08933e+9 
           2615      5.01098e+9 
           2625      4.96303e+9 
           2635      4.89917e+9 
           2645      4.82558e+9 
           2655      4.76733e+9 
           2665      4.62049e+9 
           2675      4.59501e+9 
           2685      4.58724e+9 
           2695      4.43572e+9 
           2705      4.37735e+9 
           2715      4.35589e+9 
           2725      4.30465e+9 
           2735      4.25707e+9 
           2745      4.20701e+9 
           2755       4.1723e+9 
           2765       4.0965e+9 
           2775      4.11468e+9 
           2785       4.0402e+9 
           2795      3.88307e+9 
           2805      3.91744e+9 
           2815       3.9198e+9 
           2825      3.84376e+9 
           2835      3.73597e+9 
           2845      3.77748e+9 
           2855      3.70475e+9 
           2865      3.67489e+9 
           2875      3.62695e+9 
           2885      3.58759e+9 
           2895      3.53691e+9 
           2910      3.44498e+9 
           2930      3.40399e+9 
           2950      3.29531e+9 
           2970      3.24616e+9 
           2990      3.15939e+9 
           3010      3.04195e+9 
           3030      3.00127e+9 
           3050      2.95819e+9 
           3070      2.91478e+9 
           3090      2.78808e+9 
           3110      2.77855e+9 
           3130      2.69704e+9 
           3150       2.6533e+9 
           3170      2.58738e+9 
           3190      2.52576e+9 
           3210      2.49095e+9 
           3230       2.4252e+9 
           3250      2.38903e+9 
           3270      2.32952e+9 
           3290      2.28274e+9 
           3310      2.23783e+9 
           3330      2.18525e+9 
           3350      2.14443e+9 
           3370      2.09666e+9 
           3390      2.06599e+9 
           3410      2.02382e+9 
           3430      1.98328e+9 
           3450      1.93443e+9 
           3470      1.89709e+9 
           3490      1.85799e+9 
           3510      1.82624e+9 
           3530      1.79765e+9 
           3550      1.76059e+9 
           3570      1.73454e+9 
           3590      1.68171e+9 
           3610      1.66093e+9 
           3630      1.62389e+9 
           3640      1.62252e+9 
           3650      1.59574e+9 
           3670      1.57627e+9 
           3690      1.54893e+9 
           3710      1.48871e+9 
           3730      1.44923e+9 
           3750       1.4254e+9 
           3770      1.37419e+9 
           3790      1.41249e+9 
           3810      1.45537e+9 
           3830      1.28426e+9 
           3850      1.47385e+9 
           3870      1.46985e+9 
           3890      1.20021e+9 
           3910      1.47372e+9 
           3930      1.44353e+9 
           3950      1.40358e+9 
           3970      1.11184e+9 
           3990       1.3587e+9 
           4010      1.36496e+9 
           4030      1.28192e+9 
           4050      1.32494e+9 
           4070      1.25121e+9 
           4090      1.14516e+9 
           4110       1.0244e+9 
           4130      1.19811e+9 
           4150      1.19477e+9 
           4170      1.19523e+9 
           4190      1.17507e+9 
           4210      1.16487e+9 
           4230      1.13931e+9 
           4250      1.10031e+9 
           4270      1.07116e+9 
           4290      1.05317e+9 
           4310      1.01759e+9 
           4330      9.24136e+8 
           4350      8.47768e+8 
           4370      9.70127e+8 
           4390      9.56871e+8 
           4410      9.58478e+8 
           4430       9.5422e+8 
           4450      9.33562e+8 
           4470      8.80617e+8 
           4490      9.03772e+8 
           4510      8.98979e+8 
           4530      8.86248e+8 
           4550      8.71159e+8 
           4570      8.56101e+8 
           4590      8.39805e+8 
           4610      8.20072e+8 
           4630      8.07397e+8 
           4650      7.76788e+8 
           4670      7.83053e+8 
           4690      7.74522e+8 
           4710      7.42095e+8 
           4730      7.53732e+8 
           4750      7.39951e+8 
           4770      7.37401e+8 
           4790      7.24442e+8 
           4810      7.06935e+8 
           4830      6.88012e+8 
           4850      6.31627e+8 
           4870      5.66645e+8 
           4890      6.57903e+8 
           4910      6.54367e+8 
           4930      6.29569e+8 
           4950       6.3424e+8 
           4970       6.3244e+8 
           4990      6.22267e+8 
           5010      5.96956e+8 
           5030      6.01644e+8 
           5050      5.89118e+8 
           5070      5.86897e+8 
           5090      5.76172e+8 
           5110      5.67371e+8 
           5130      5.57574e+8 
           5150      5.50155e+8 
           5170      5.43257e+8 
           5190      5.36616e+8 
           5210      5.28035e+8 
           5230      5.21829e+8 
           5250       5.1443e+8 
           5270      5.06287e+8 
           5290      5.00123e+8 
           5310      4.92889e+8 
           5330      4.86081e+8 
           5350      4.78768e+8 
           5370      4.72909e+8 
           5390      4.65619e+8 
           5410      4.59364e+8 
           5430      4.53329e+8 
           5450      4.46571e+8 
           5470      4.40617e+8 
           5490         4.35e+8 
           5510      4.29602e+8 
           5530      4.23248e+8 
           5550      4.18123e+8 
           5570      4.12406e+8 
           5590      4.06929e+8 
           5610      4.01411e+8 
           5630      3.96401e+8 
           5650      3.90012e+8 
           5670      3.83785e+8 
           5690       3.7731e+8 
           5710      3.74348e+8 
           5730      3.70362e+8 
           5750      3.64053e+8 
           5770      3.61273e+8 
           5790      3.56343e+8 
           5810      3.51774e+8 
           5830      3.46604e+8 
           5850      3.42587e+8 
           5870      3.27093e+8 
           5890      3.31163e+8 
           5910      3.28764e+8 
           5930      3.24664e+8 
           5950      3.20389e+8 
           5970       3.1777e+8 
           5990      3.12785e+8 
           6010      3.09612e+8 
           6030      3.05334e+8 
           6050      3.01836e+8 
           6070      2.98378e+8 
           6090      2.94746e+8 
           6110      2.91104e+8 
           6130      2.87683e+8 
           6150      2.83066e+8 
           6170      2.80037e+8 
           6190      2.77139e+8 
           6210      2.73969e+8 
           6230      2.70747e+8 
           6250       2.6705e+8 
           6270      2.64027e+8 
           6290      2.61046e+8 
           6310      2.57662e+8 
           6330      2.54918e+8 
           6350      2.51259e+8 
           6370      2.48867e+8 
           6390      2.45899e+8 
           6410      2.42955e+8 
           6430      2.40335e+8 
           6450      2.37443e+8 
           6470      2.33781e+8 
           6490      2.31314e+8 
           6510      2.28437e+8 
           6530      2.24301e+8 
           6550       2.1302e+8 
           6570      1.88535e+8 
           6590      2.14536e+8 
           6610      2.15335e+8 
           6630      2.13738e+8 
           6650      2.11168e+8 
           6670      2.06516e+8 
           6690      2.04366e+8 
           6710      2.04396e+8 
           6730      2.01619e+8 
           6750      2.00046e+8 
           6770      1.97846e+8 
           6790      1.94542e+8 
           6810      1.93255e+8 
           6830      1.90881e+8 
           6850      1.89141e+8 
           6870      1.87028e+8 
           6890      1.84634e+8 
           6910      1.82226e+8 
           6930      1.81019e+8 
           6950      1.79105e+8 
           6970      1.77171e+8 
           6990      1.75226e+8 
           7010      1.73307e+8 
           7030      1.71393e+8 
           7050      1.69603e+8 
           7070      1.65027e+8 
           7090      1.66024e+8 
           7110      1.63884e+8 
           7130      1.62224e+8 
           7150      1.60773e+8 
           7170        1.591e+8 
           7190      1.57459e+8 
           7210      1.55804e+8 
           7230      1.52442e+8 
           7250      1.52175e+8 
           7270      1.50961e+8 
           7290      1.48142e+8 
           7310      1.47819e+8 
           7330      1.46277e+8 
           7350      1.44785e+8 
           7370      1.43335e+8 
           7390      1.41863e+8 
           7410      1.40412e+8 
           7430      1.38934e+8 
           7450      1.37537e+8 
           7470      1.35296e+8 
           7490      1.34649e+8 
           7510      1.33371e+8 
           7530       1.3194e+8 
           7550      1.30759e+8 
           7570      1.29458e+8 
           7590      1.28135e+8 
           7610      1.26578e+8 
           7630      1.25592e+8 
           7650      1.24324e+8 
           7670      1.23139e+8 
           7690        1.219e+8 
           7710      1.20698e+8 
           7730      1.19419e+8 
           7750      1.18364e+8 
           7770      1.16857e+8 
           7790      1.16072e+8 
           7810      1.14897e+8 
           7830      1.13832e+8 
           7850      1.12745e+8 
           7870      1.11388e+8 
           7890      1.10165e+8 
           7910        1.095e+8 
           7930      1.08415e+8 
           7950      1.07334e+8 
           7970      1.06309e+8 
           7990      1.05276e+8 
           8010      1.04346e+8 
           8030      1.03313e+8 
           8050      1.02323e+8 
           8070        1.014e+8 
           8090      1.00295e+8 
           8110      9.86213e+7 
           8130      9.85356e+7 
           8150      9.75875e+7 
           8170      9.67717e+7 
           8190      9.52325e+7 
           8210      9.45623e+7 
           8230      9.36193e+7 
           8250      9.31604e+7 
           8270      9.13223e+7 
           8290      9.13372e+7 
           8310      9.06526e+7 
           8330      8.98106e+7 
           8350      8.86136e+7 
           8370      8.79594e+7 
           8390       8.7396e+7 
           8410      8.65334e+7 
           8430         8.58e+7 
           8450      8.44024e+7 
           8470      8.42826e+7 
           8490      8.33267e+7 
           8510      8.26546e+7 
           8530       8.1817e+7 
           8550      8.10276e+7 
           8570      8.06447e+7 
           8590      7.86613e+7 
