# Kurucz ODFNEW /NOVER (2003)
# teff = 8250 K (value for the effective temperature for the model. Temperatures are given in K)
# logg = 5 log(cm/s2) (value for Log(G) for the model.)
# meta = 0  (value for the Metallicity for the model.)
# lh = 1.25  (l/Hp where l is the  mixing length of the convective element and Hp is the pressure scale height)
# vtur = 2 km/s (Microturbulence velocity)
# alpha = 0.4  (Alpha)
#
# column 1: WAVELENGTH (ANGSTROM), Wavelength in Angstrom
# column 2: FLUX (ERG/CM2/S/A), Flux in erg/cm2/s/A
            318     3.24167e-23 
            328     4.47765e-22 
            338     4.61299e-21 
            348     4.11371e-20 
            357     2.64407e-19 
            366     1.36477e-19 
            375     6.69045e-19 
            385     3.56816e-18 
            395     1.73743e-17 
            405     7.78517e-17 
            414     2.81125e-16 
            422     8.37553e-16 
            430     2.38874e-15 
            441     9.44531e-15 
            451     3.09439e-14 
            460     8.58591e-14 
            470     2.54024e-13 
            480     7.15508e-13 
            490     1.92601e-12 
            500     4.96153e-12 
            506     1.13359e-11 
            512     2.18254e-11 
            520     4.34576e-11 
            530     1.00294e-10 
            540     2.19759e-10 
            550     4.73708e-10 
            560     9.84025e-10 
            570       1.9865e-9 
            580      3.85565e-9 
            590      7.47506e-9 
            600      1.39735e-8 
            610      2.55682e-8 
            620      4.57074e-8 
            630      8.00595e-8 
            640      1.37503e-7 
            650      2.31985e-7 
            658      3.47882e-7 
            665      4.90087e-7 
            675      7.92345e-7 
            685      1.26148e-6 
            695      1.97582e-6 
            705      3.02702e-6 
            716      4.83581e-6 
            726      7.25403e-6 
            735      1.03369e-5 
            745      1.51269e-5 
            755      2.19068e-5 
            765      3.13923e-5 
            775      4.44887e-5 
            785      6.25167e-5 
            795      8.57085e-5 
            805     0.000118497 
            815     0.000162625 
            825     0.000219952 
            835     0.000294775 
            845     0.000391938 
            855     0.000516993 
            865     0.000676801 
            875     0.000874381 
            885      0.00113482 
            895      0.00145471 
            905      0.00184449 
            915        0.629289 
            925          2.2515 
            935         2.99453 
            945         3.95542 
            955         5.35379 
            965          6.8333 
            975         8.07018 
            985          10.379 
            995         12.3922 
           1005         16.0509 
           1015          19.684 
           1025         22.2099 
           1035         28.8983 
           1045         35.1261 
           1055         42.4243 
           1065         50.2538 
           1075         61.0819 
           1085         73.4594 
           1095         85.9484 
           1105         229.519 
           1115         677.536 
           1125          933.53 
           1135         1277.32 
           1145         1562.64 
           1155         1678.48 
           1165         2199.63 
           1175         2560.05 
           1185         2636.15 
           1195         1513.09 
           1205         1685.63 
           1215         432.229 
           1225         1895.82 
           1235         3919.38 
           1245         6793.66 
           1255         11342.8 
           1265         10657.8 
           1275         14806.8 
           1285         19074.4 
           1295         22045.6 
           1305         19140.8 
           1315         26199.9 
           1325         29803.6 
           1335         32696.5 
           1345         37399.6 
           1355         38671.7 
           1365         42375.4 
           1375         45778.4 
           1385         48870.9 
           1395           54536 
           1405         59459.1 
           1415         62998.2 
           1425         68402.7 
           1435         69765.1 
           1442         78740.6 
           1447         81722.1 
           1455           88784 
           1465         91478.1 
           1475         98259.2 
           1485          105984 
           1495          116448 
           1505          126127 
           1512          129535 
           1517          137432 
           1525          152611 
           1535          215272 
           1545          314859 
           1555          339957 
           1565          324059 
           1575          443852 
           1585          521840 
           1595          589611 
           1605          628997 
           1615          691978 
           1625          700736 
           1635          986052 
           1645      1.96048e+6 
           1655      1.21919e+6 
           1665      2.35314e+6 
           1672      1.58678e+6 
           1677      3.75855e+6 
           1685      5.89437e+6 
           1695      3.19739e+6 
           1705      5.91591e+6 
           1715      1.18732e+7 
           1725      1.30479e+7 
           1735      1.88776e+7 
           1745      1.81546e+7 
           1755      2.41398e+7 
           1765      1.34452e+7 
           1775      2.15877e+7 
           1785      2.36675e+7 
           1795      2.95184e+7 
           1805       2.1867e+7 
           1815      2.21654e+7 
           1825      2.04289e+7 
           1835      2.06197e+7 
           1845      1.58382e+7 
           1855      2.09767e+7 
           1865      2.60769e+7 
           1875       2.4998e+7 
           1885      2.61086e+7 
           1895      2.69028e+7 
           1905       2.4141e+7 
           1915      2.84928e+7 
           1925       2.7492e+7 
           1935      1.97711e+7 
           1945      3.00824e+7 
           1955      3.06675e+7 
           1967      3.38133e+7 
           1976      3.18909e+7 
           1984      2.96033e+7 
           1995      3.02442e+7 
           2005      2.75985e+7 
           2015       2.7612e+7 
           2025      2.47832e+7 
           2035      3.05643e+7 
           2045      3.27956e+7 
           2055       3.0859e+7 
           2065      3.08365e+7 
           2074      3.55344e+7 
           2078      3.78973e+7 
           2085      3.61544e+7 
           2095      3.37441e+7 
           2105      3.09459e+7 
           2115      3.19391e+7 
           2125      3.22099e+7 
           2135      2.66342e+7 
           2145      3.25405e+7 
           2155      3.19967e+7 
           2165      2.90615e+7 
           2175      2.87837e+7 
           2185      3.18374e+7 
           2195      3.42307e+7 
           2205      3.20691e+7 
           2215      2.77305e+7 
           2225      2.85319e+7 
           2235       3.3966e+7 
           2245      3.03819e+7 
           2255      2.78519e+7 
           2265      2.72195e+7 
           2275      2.96579e+7 
           2285      3.20484e+7 
           2295      2.81383e+7 
           2305      2.98617e+7 
           2315      2.93322e+7 
           2325      2.85807e+7 
           2335      2.51988e+7 
           2345      2.05539e+7 
           2355      2.84264e+7 
           2365      2.18896e+7 
           2375      2.52955e+7 
           2385      1.90437e+7 
           2395      2.20132e+7 
           2405      2.16026e+7 
           2415      2.17896e+7 
           2425      2.66412e+7 
           2435       2.4983e+7 
           2445      2.78153e+7 
           2455       2.7568e+7 
           2465      2.78934e+7 
           2475      2.51285e+7 
           2485      2.53379e+7 
           2495       2.3897e+7 
           2505      2.96712e+7 
           2513      2.30357e+7 
           2518      2.16519e+7 
           2525      2.01127e+7 
           2535      1.86435e+7 
           2545      1.63214e+7 
           2555      1.90343e+7 
           2565      2.06922e+7 
           2575       2.6551e+7 
           2585      2.76065e+7 
           2595      2.72689e+7 
           2605      2.51702e+7 
           2615      2.37991e+7 
           2625      2.92089e+7 
           2635      2.97033e+7 
           2645      3.53821e+7 
           2655       3.7079e+7 
           2665      3.03761e+7 
           2675      3.35231e+7 
           2685      3.41533e+7 
           2695      3.02913e+7 
           2705      3.24351e+7 
           2715      2.90815e+7 
           2725      2.97462e+7 
           2735      3.23575e+7 
           2745      2.45531e+7 
           2755      2.62077e+7 
           2765      2.79107e+7 
           2775      3.01843e+7 
           2785       2.3645e+7 
           2795      9.96169e+6 
           2805      1.31587e+7 
           2815      3.02069e+7 
           2825        3.452e+7 
           2835       3.3525e+7 
           2845       3.1253e+7 
           2855      2.60816e+7 
           2865      3.34026e+7 
           2875      3.29555e+7 
           2885      3.26718e+7 
           2895      3.17722e+7 
           2910      3.68415e+7 
           2930      3.43738e+7 
           2950       3.4444e+7 
           2970      3.60782e+7 
           2990       3.5831e+7 
           3010      3.62895e+7 
           3030      3.61756e+7 
           3050      3.60364e+7 
           3070      3.62108e+7 
           3090      3.65342e+7 
           3110      3.54738e+7 
           3130      3.55376e+7 
           3150      3.62036e+7 
           3170      3.59042e+7 
           3190      3.32919e+7 
           3210      3.46241e+7 
           3230      3.26136e+7 
           3250      3.43456e+7 
           3270      3.53515e+7 
           3290      3.54869e+7 
           3310      3.60324e+7 
           3330      3.50233e+7 
           3350      3.43345e+7 
           3370       3.3895e+7 
           3390      3.41781e+7 
           3410      3.42708e+7 
           3430      3.45063e+7 
           3450      3.41676e+7 
           3470      3.37686e+7 
           3490      3.38002e+7 
           3510       3.4309e+7 
           3530      3.38246e+7 
           3550      3.48196e+7 
           3570      3.30236e+7 
           3590      3.26888e+7 
           3610      3.28537e+7 
           3630      3.29044e+7 
           3640      3.23286e+7 
           3650      3.40576e+7 
           3670      3.37937e+7 
           3690      3.28003e+7 
           3710      3.22232e+7 
           3730      3.01537e+7 
           3750      3.37282e+7 
           3770      3.52479e+7 
           3790      4.18795e+7 
           3810      4.79629e+7 
           3830      3.79506e+7 
           3850      5.26087e+7 
           3870      5.86542e+7 
           3890      3.57358e+7 
           3910      5.83473e+7 
           3930      4.73494e+7 
           3950      5.73913e+7 
           3970      3.26106e+7 
           3990      5.82673e+7 
           4010      6.77992e+7 
           4030      6.84756e+7 
           4050      6.73462e+7 
           4070      6.34406e+7 
           4090      4.98587e+7 
           4110      3.88904e+7 
           4130      6.05417e+7 
           4150      6.56053e+7 
           4170      6.58874e+7 
           4190      6.54981e+7 
           4210      6.56765e+7 
           4230      6.34546e+7 
           4250       6.4104e+7 
           4270      6.16949e+7 
           4290       6.0863e+7 
           4310      5.48664e+7 
           4330      4.28251e+7 
           4350      3.67959e+7 
           4370      5.59011e+7 
           4390      5.84111e+7 
           4410      5.84714e+7 
           4430      5.74187e+7 
           4450      5.83667e+7 
           4470      5.85959e+7 
           4490      5.76229e+7 
           4510      5.91744e+7 
           4530      5.68613e+7 
           4550      5.63534e+7 
           4570      5.76145e+7 
           4590      5.58529e+7 
           4610      5.66173e+7 
           4630      5.52048e+7 
           4650      5.53251e+7 
           4670      5.52772e+7 
           4690       5.3058e+7 
           4710      5.06266e+7 
           4730      5.32388e+7 
           4750      5.28765e+7 
           4770      5.20499e+7 
           4790      5.10842e+7 
           4810      4.94504e+7 
           4830      4.64579e+7 
           4850      3.57727e+7 
           4870      2.90209e+7 
           4890      4.33555e+7 
           4910      4.66816e+7 
           4930      4.68027e+7 
           4950      4.76383e+7 
           4970      4.79481e+7 
           4990      4.64056e+7 
           5010      4.49192e+7 
           5030      4.59728e+7 
           5050      4.51617e+7 
           5070      4.57954e+7 
           5090      4.52283e+7 
           5110      4.51548e+7 
           5130      4.42609e+7 
           5150      4.33724e+7 
           5170       4.2017e+7 
           5190      4.14966e+7 
           5210      4.21543e+7 
           5230      4.17251e+7 
           5250       4.2206e+7 
           5270      3.91747e+7 
           5290      4.12847e+7 
           5310      4.08728e+7 
           5330      3.86252e+7 
           5350      4.00586e+7 
           5370      3.97202e+7 
           5390      3.93313e+7 
           5410      3.81169e+7 
           5430      3.86352e+7 
           5450      3.86223e+7 
           5470      3.82006e+7 
           5490      3.76553e+7 
           5510      3.76046e+7 
           5530       3.7147e+7 
           5550      3.72076e+7 
           5570      3.65426e+7 
           5590      3.59572e+7 
           5610      3.59407e+7 
           5630      3.59841e+7 
           5650      3.55575e+7 
           5670      3.48759e+7 
           5690      3.48744e+7 
           5710      3.44791e+7 
           5730      3.47139e+7 
           5750      3.40022e+7 
           5770      3.39276e+7 
           5790      3.35745e+7 
           5810      3.33995e+7 
           5830      3.31819e+7 
           5850      3.27374e+7 
           5870      3.24885e+7 
           5890      3.17763e+7 
           5910      3.19779e+7 
           5930       3.1709e+7 
           5950      3.13962e+7 
           5970      3.11988e+7 
           5990      3.08354e+7 
           6010      3.04491e+7 
           6030      3.01666e+7 
           6050      3.00385e+7 
           6070      2.99728e+7 
           6090      2.96076e+7 
           6110      2.92537e+7 
           6130      2.86571e+7 
           6150      2.81104e+7 
           6170      2.79552e+7 
           6190      2.84257e+7 
           6210      2.81823e+7 
           6230      2.77649e+7 
           6250      2.71004e+7 
           6270      2.75363e+7 
           6290      2.73291e+7 
           6310      2.68723e+7 
           6330       2.6667e+7 
           6350      2.61415e+7 
           6370      2.60435e+7 
           6390      2.60828e+7 
           6410      2.55993e+7 
           6430      2.55552e+7 
           6450      2.48916e+7 
           6470       2.4855e+7 
           6490      2.44095e+7 
           6510      2.40091e+7 
           6530      2.28427e+7 
           6550      1.94448e+7 
           6570       1.5709e+7 
           6590      2.13651e+7 
           6610      2.28613e+7 
           6630      2.32259e+7 
           6650      2.32704e+7 
           6670      2.31471e+7 
           6690      2.30864e+7 
           6710      2.29063e+7 
           6730      2.27321e+7 
           6750      2.23363e+7 
           6770      2.24462e+7 
           6790      2.22594e+7 
           6810      2.20841e+7 
           6830      2.19057e+7 
           6850      2.17033e+7 
           6870      2.15979e+7 
           6890      2.14267e+7 
           6910      2.12563e+7 
           6930      2.10741e+7 
           6950      2.09304e+7 
           6970      2.07453e+7 
           6990       2.0626e+7 
           7010      2.01574e+7 
           7030      2.02326e+7 
           7050      2.01233e+7 
           7070      1.99659e+7 
           7090      1.98309e+7 
           7110      1.93588e+7 
           7130      1.94305e+7 
           7150       1.9249e+7 
           7170      1.90765e+7 
           7190      1.89137e+7 
           7210      1.88495e+7 
           7230      1.86978e+7 
           7250      1.84786e+7 
           7270      1.84783e+7 
           7290      1.81892e+7 
           7310      1.81914e+7 
           7330      1.80158e+7 
           7350      1.79576e+7 
           7370      1.78208e+7 
           7390      1.75968e+7 
           7410      1.73455e+7 
           7430      1.72147e+7 
           7450      1.71543e+7 
           7470       1.7016e+7 
           7490      1.69219e+7 
           7510      1.68713e+7 
           7530      1.67645e+7 
           7550      1.66805e+7 
           7570      1.65162e+7 
           7590      1.64227e+7 
           7610       1.6274e+7 
           7630      1.61921e+7 
           7650      1.60148e+7 
           7670       1.5804e+7 
           7690      1.56805e+7 
           7710      1.56772e+7 
           7730      1.55861e+7 
           7750      1.54148e+7 
           7770      1.49605e+7 
           7790      1.52885e+7 
           7810      1.51251e+7 
           7830       1.4984e+7 
           7850      1.48332e+7 
           7870      1.47208e+7 
           7890      1.45688e+7 
           7910      1.45139e+7 
           7930      1.42437e+7 
           7950      1.41983e+7 
           7970      1.42991e+7 
           7990      1.40288e+7 
           8010      1.40739e+7 
           8030      1.39332e+7 
           8050      1.38489e+7 
           8070      1.37688e+7 
           8090      1.36668e+7 
           8110      1.35898e+7 
           8130      1.35327e+7 
           8150      1.34301e+7 
           8170      1.33316e+7 
           8190      1.30436e+7 
           8210      1.29321e+7 
           8230      1.28615e+7 
           8250      1.28109e+7 
           8270      1.29104e+7 
           8290      1.28049e+7 
           8310      1.26391e+7 
           8330      1.25079e+7 
           8350      1.25037e+7 
           8370      1.24919e+7 
           8390      1.23639e+7 
           8410      1.23147e+7 
           8430      1.21827e+7 
           8450      1.18951e+7 
           8470      1.19975e+7 
           8490      1.18695e+7 
           8510      1.14439e+7 
           8530      1.16947e+7 
           8550      1.05027e+7 
           8570       1.1693e+7 
           8590      1.13185e+7 
           8610      1.11821e+7 
           8630      1.15006e+7 
           8650      1.11651e+7 
           8670      9.74238e+6 
           8690      1.09627e+7 
           8710       1.1347e+7 
           8730      1.09367e+7 
           8750      9.54389e+6 
           8770      1.06108e+7 
           8790      1.11443e+7 
           8810      1.11331e+7 
           8830        1.083e+7 
           8850      9.88931e+6 
           8870      8.78703e+6 
           8890       1.0363e+7 
           8910      1.07821e+7 
           8930      1.08212e+7 
           8950      1.09145e+7 
           8970      1.06542e+7 
           8990      1.01044e+7 
           9010      8.34066e+6 
           9030      8.96767e+6 
           9050      1.01093e+7 
           9070      1.02287e+7 
           9090      1.01719e+7 
           9110      1.03946e+7 
           9130      1.04563e+7 
           9150      1.03809e+7 
           9170      1.01815e+7 
           9190      9.83262e+6 
           9210      9.01096e+6 
           9230      7.27476e+6 
           9250      8.63951e+6 
           9270      9.29451e+6 
           9290      9.79363e+6 
           9310      9.87634e+6 
           9330      9.85438e+6 
           9350      9.85191e+6 
