# Kurucz ODFNEW /NOVER (2003)
# teff = 23000 K (value for the effective temperature for the model. Temperatures are given in K)
# logg = 4.5 log(cm/s2) (value for Log(G) for the model.)
# meta = -1  (value for the Metallicity for the model.)
# lh = 1.25  (l/Hp where l is the  mixing length of the convective element and Hp is the pressure scale height)
# vtur = 2 km/s (Microturbulence velocity)
# alpha = 0  (Alpha)
#
# column 1: WAVELENGTH (ANGSTROM), Wavelength in Angstrom
# column 2: FLUX (ERG/CM2/S/A), Flux in erg/cm2/s/A
          147.2     3.37978e-16 
            151     1.70083e-15 
          155.2     9.30178e-15 
          158.8     3.73122e-14 
            162     1.22242e-13 
            166     5.07168e-13 
          170.3     2.18163e-12 
          173.4     5.98807e-12 
          176.8     1.74359e-11 
          180.2     4.88615e-11 
          181.7     7.60867e-11 
          186.1     2.68364e-10 
            191      1.02296e-9 
          193.9       2.1896e-9 
          198.4      6.83562e-9 
          201.8      1.56369e-8 
            205      3.32472e-8 
          210.5      1.15331e-7 
          216.2       3.9183e-7 
          219.8      8.21346e-7 
            223      1.55437e-6 
          226.8      3.23834e-6 
            230      3.26003e-5 
            234      7.67481e-5 
            240     0.000203126 
          246.5     0.000550664 
          252.4       0.0013137 
          256.8      0.00237282 
            260      0.00374757 
            264      0.00634153 
          268.5       0.0112237 
          273.5       0.0206777 
          278.5       0.0373289 
            284         0.06974 
            290        0.133804 
            296        0.249391 
            301        0.411154 
            308        0.789367 
            318         1.99567 
            328         4.64048 
            338         10.3122 
            348         21.7587 
            357         41.1731 
            366          75.455 
            375         132.853 
            385         242.306 
            395         426.578 
            405         729.274 
            414          1155.8 
            422         1702.67 
            430         2467.59 
            441         4041.57 
            451         6178.59 
            460         8873.62 
            470         13064.3 
            480           18861 
            490         26822.9 
            500         37529.8 
            506          243354 
            512          820977 
            520      1.02833e+6 
            530      1.39869e+6 
            540      1.55808e+6 
            550      2.18042e+6 
            560      2.58665e+6 
            570      3.18753e+6 
            580      3.26055e+6 
            590      4.27941e+6 
            600      5.19133e+6 
            610      6.17579e+6 
            620      7.07612e+6 
            630      8.21581e+6 
            640      9.05392e+6 
            650      1.01347e+7 
            658      1.17805e+7 
            665      1.28653e+7 
            675      1.41729e+7 
            685      1.57894e+7 
            695      1.83894e+7 
            705      2.02613e+7 
            716      2.28416e+7 
            726      2.50278e+7 
            735      2.73977e+7 
            745      3.05422e+7 
            755       3.3577e+7 
            765      3.66716e+7 
            775      4.02148e+7 
            785      4.38821e+7 
            795      4.72097e+7 
            805      5.10065e+7 
            815      5.47196e+7 
            825      5.94354e+7 
            835      6.24186e+7 
            845      6.75504e+7 
            855      7.19678e+7 
            865      7.74127e+7 
            875       8.3113e+7 
            885      8.89701e+7 
            895      9.44099e+7 
            905      9.81444e+7 
            915      1.40842e+8 
            925      6.53886e+8 
            935      1.97478e+9 
            945      7.19774e+9 
            955     1.26713e+10 
            965     1.73767e+10 
            975      4.54235e+9 
            985      2.2027e+10 
            995     2.14955e+10 
           1005     2.29244e+10 
           1015     1.93622e+10 
           1025      4.25594e+9 
           1035     1.52812e+10 
           1045     2.38214e+10 
           1055     2.30443e+10 
           1065     2.02507e+10 
           1075     2.21009e+10 
           1085     2.00688e+10 
           1095      2.1684e+10 
           1105     2.01421e+10 
           1115     1.99682e+10 
           1125     1.81961e+10 
           1135     1.95947e+10 
           1145     1.79815e+10 
           1155     1.86311e+10 
           1165     1.85305e+10 
           1175     1.48015e+10 
           1185      1.7642e+10 
           1195      1.5691e+10 
           1205     1.13961e+10 
           1215      3.36887e+9 
           1225     1.16321e+10 
           1235     1.52463e+10 
           1245     1.55006e+10 
           1255     1.51134e+10 
           1265     1.48396e+10 
           1275      1.5036e+10 
           1285     1.47297e+10 
           1295     1.26181e+10 
           1305     1.26097e+10 
           1315      1.3884e+10 
           1325     1.32358e+10 
           1335     1.26245e+10 
           1345     1.27895e+10 
           1355     1.27479e+10 
           1365     1.21313e+10 
           1375     1.19254e+10 
           1385      1.1822e+10 
           1395     1.07459e+10 
           1405      1.0925e+10 
           1415     1.09907e+10 
           1425     1.07984e+10 
           1435     1.07288e+10 
           1442      1.0773e+10 
           1447     1.05936e+10 
           1455      1.0397e+10 
           1465      1.0019e+10 
           1475      9.88773e+9 
           1485      9.63475e+9 
           1495      9.49364e+9 
           1505      9.02793e+9 
           1512      8.56256e+9 
           1517      8.68497e+9 
           1525      8.65791e+9 
           1535       8.0519e+9 
           1545      8.12398e+9 
           1555      7.76291e+9 
           1565      7.93382e+9 
           1575      8.02292e+9 
           1585      7.88317e+9 
           1595      7.83631e+9 
           1605       7.6031e+9 
           1615      7.46764e+9 
           1625      7.40098e+9 
           1635      7.44376e+9 
           1645      7.27571e+9 
           1655      7.13964e+9 
           1665      7.18174e+9 
           1672      6.95679e+9 
           1677      7.10331e+9 
           1685      6.98984e+9 
           1695      6.78225e+9 
           1705      6.56945e+9 
           1715      6.35652e+9 
           1725      6.25429e+9 
           1735      6.27752e+9 
           1745      6.14033e+9 
           1755      6.15422e+9 
           1765       5.8566e+9 
           1775      5.81686e+9 
           1785      5.78545e+9 
           1795       5.7974e+9 
           1805       5.7493e+9 
           1815      5.49194e+9 
           1825      5.50985e+9 
           1835      5.38641e+9 
           1845      5.06235e+9 
           1855      4.97551e+9 
           1865      5.00515e+9 
           1875      5.08082e+9 
           1885      4.72743e+9 
           1895      4.49984e+9 
           1905        4.689e+9 
           1915      4.50157e+9 
           1925      4.37858e+9 
           1935      4.46534e+9 
           1945      4.50688e+9 
           1955      4.22049e+9 
           1967      4.35902e+9 
           1976      4.44956e+9 
           1984       4.2231e+9 
           1995      4.11049e+9 
           2005      4.15459e+9 
           2015      4.14277e+9 
           2025      4.17105e+9 
           2035      3.97678e+9 
           2045      3.94465e+9 
           2055      3.83346e+9 
           2065      3.84873e+9 
           2074      3.92067e+9 
           2078      3.75823e+9 
           2085      3.77724e+9 
           2095      3.64504e+9 
           2105      3.68761e+9 
           2115      3.65299e+9 
           2125      3.66983e+9 
           2135      3.59636e+9 
           2145      3.49314e+9 
           2155      3.51418e+9 
           2165       3.4711e+9 
           2175      3.41759e+9 
           2185      3.37344e+9 
           2195      3.35223e+9 
           2205      3.30136e+9 
           2215      3.25864e+9 
           2225      3.19761e+9 
           2235       3.1625e+9 
           2245      3.14044e+9 
           2255      3.08154e+9 
           2265      3.06591e+9 
           2275      3.02417e+9 
           2285      2.99935e+9 
           2295      2.91197e+9 
           2305      2.91632e+9 
           2315      2.86243e+9 
           2325      2.83208e+9 
           2335      2.77243e+9 
           2345      2.73383e+9 
           2355      2.72948e+9 
           2365      2.68166e+9 
           2375      2.65364e+9 
           2385       2.6115e+9 
           2395      2.58987e+9 
           2405      2.55385e+9 
           2415      2.51996e+9 
           2425      2.51267e+9 
           2435      2.46755e+9 
           2445      2.44489e+9 
           2455      2.42751e+9 
           2465      2.38932e+9 
           2475      2.36396e+9 
           2485      2.33649e+9 
           2495      2.26612e+9 
           2505      2.27958e+9 
           2513      2.21689e+9 
           2518      2.24636e+9 
           2525      2.22133e+9 
           2535      2.18807e+9 
           2545      2.15579e+9 
           2555      2.15378e+9 
           2565      2.12322e+9 
           2575      2.11011e+9 
           2585      2.08671e+9 
           2595      2.06199e+9 
           2605      2.04863e+9 
           2615      2.02853e+9 
           2625      2.00829e+9 
           2635      1.98315e+9 
           2645      1.97179e+9 
           2655      1.94836e+9 
           2665       1.9151e+9 
           2675      1.89759e+9 
           2685      1.89049e+9 
           2695      1.84842e+9 
           2705      1.84585e+9 
           2715      1.82461e+9 
           2725      1.78846e+9 
           2735      1.78815e+9 
           2745       1.7466e+9 
           2755      1.73508e+9 
           2765      1.71107e+9 
           2775      1.71418e+9 
           2785      1.69314e+9 
           2795      1.64209e+9 
           2805      1.64673e+9 
           2815       1.6428e+9 
           2825      1.60612e+9 
           2835      1.57812e+9 
           2845       1.5885e+9 
           2855      1.57273e+9 
           2865      1.55879e+9 
           2875      1.54167e+9 
           2885      1.52625e+9 
           2895      1.51037e+9 
           2910      1.48652e+9 
           2930      1.45428e+9 
           2950      1.41432e+9 
           2970      1.39833e+9 
           2990      1.36801e+9 
           3010      1.34141e+9 
           3030      1.31719e+9 
           3050      1.29115e+9 
           3070      1.26586e+9 
           3090      1.23876e+9 
           3110      1.21676e+9 
           3130      1.19457e+9 
           3150      1.17178e+9 
           3170      1.14842e+9 
           3190      1.11644e+9 
           3210      1.10554e+9 
           3230      1.08445e+9 
           3250      1.06419e+9 
           3270      1.04564e+9 
           3290      1.02472e+9 
           3310      1.00773e+9 
           3330      9.89208e+8 
           3350      9.69342e+8 
           3370      9.53558e+8 
           3390      9.36538e+8 
           3410      9.19785e+8 
           3430      8.99227e+8 
           3450      8.80032e+8 
           3470       8.6707e+8 
           3490      8.51779e+8 
           3510      8.38797e+8 
           3530      8.26145e+8 
           3550      8.12139e+8 
           3570      8.02947e+8 
           3590      7.83298e+8 
           3610      7.72156e+8 
           3630      7.57296e+8 
           3640      7.56524e+8 
           3650      7.44184e+8 
           3670      7.35172e+8 
           3690      7.21552e+8 
           3710       6.9666e+8 
           3730      6.67168e+8 
           3750      6.89003e+8 
           3770       6.8757e+8 
           3790      7.32813e+8 
           3810      7.69959e+8 
           3830      6.63525e+8 
           3850      8.01089e+8 
           3870      8.18336e+8 
           3890      6.24617e+8 
           3910      8.08726e+8 
           3930      8.01003e+8 
           3950      7.84124e+8 
           3970      5.82272e+8 
           3990      7.49384e+8 
           4010      7.54274e+8 
           4030       7.0206e+8 
           4050      7.39632e+8 
           4070      7.20259e+8 
           4090      6.45355e+8 
           4110      5.55724e+8 
           4130      6.73333e+8 
           4150      6.71977e+8 
           4170      6.68277e+8 
           4190      6.60217e+8 
           4210      6.50069e+8 
           4230      6.38968e+8 
           4250      6.27921e+8 
           4270      6.13312e+8 
           4290      6.05683e+8 
           4310       5.9034e+8 
           4330      5.18631e+8 
           4350      4.70133e+8 
           4370      5.59721e+8 
           4390      5.38956e+8 
           4410      5.50195e+8 
           4430      5.40132e+8 
           4450       5.3447e+8 
           4470      4.96288e+8 
           4490       5.1587e+8 
           4510      5.10583e+8 
           4530      5.02376e+8 
           4550      4.94511e+8 
           4570      4.86837e+8 
           4590      4.79654e+8 
           4610       4.7215e+8 
           4630      4.64811e+8 
           4650      4.56901e+8 
           4670      4.51148e+8 
           4690      4.44825e+8 
           4710      4.30968e+8 
           4730      4.30227e+8 
           4750      4.23406e+8 
           4770      4.19135e+8 
           4790      4.12555e+8 
           4810      4.04947e+8 
           4830      3.95576e+8 
           4850      3.55693e+8 
           4870      3.15179e+8 
           4890      3.76476e+8 
           4910      3.75665e+8 
           4930      3.60564e+8 
           4950      3.67297e+8 
           4970      3.62379e+8 
           4990      3.57165e+8 
           5010      3.46199e+8 
           5030       3.4704e+8 
           5050      3.39127e+8 
           5070        3.376e+8 
           5090      3.32872e+8 
           5110      3.28209e+8 
           5130      3.23378e+8 
           5150      3.18926e+8 
           5170      3.14927e+8 
           5190      3.10616e+8 
           5210      3.06015e+8 
           5230      3.02233e+8 
           5250      2.98158e+8 
           5270      2.94109e+8 
           5290      2.90206e+8 
           5310      2.86314e+8 
           5330      2.82445e+8 
           5350      2.78574e+8 
           5370      2.75079e+8 
           5390      2.71433e+8 
           5410      2.67872e+8 
           5430      2.64216e+8 
           5450      2.60835e+8 
           5470      2.57445e+8 
           5490       2.5416e+8 
           5510      2.50867e+8 
           5530      2.47639e+8 
           5550      2.44475e+8 
           5570      2.41326e+8 
           5590      2.38264e+8 
           5610      2.35192e+8 
           5630      2.32264e+8 
           5650      2.29088e+8 
           5670      2.26163e+8 
           5690      2.23307e+8 
           5710      2.20752e+8 
           5730       2.1802e+8 
           5750      2.15264e+8 
           5770      2.12666e+8 
           5790      2.10041e+8 
           5810      2.07448e+8 
           5830      2.04886e+8 
           5850      2.02397e+8 
           5870      1.92864e+8 
           5890      1.96737e+8 
           5910      1.95073e+8 
           5930      1.92709e+8 
           5950      1.90331e+8 
           5970      1.88138e+8 
           5990      1.85834e+8 
           6010      1.83671e+8 
           6030       1.8147e+8 
           6050      1.79336e+8 
           6070      1.77215e+8 
           6090      1.75108e+8 
           6110      1.73066e+8 
           6130      1.71036e+8 
           6150      1.68949e+8 
           6170      1.67054e+8 
           6190      1.65131e+8 
           6210      1.63219e+8 
           6230      1.61328e+8 
           6250      1.59439e+8 
           6270      1.57638e+8 
           6290      1.55837e+8 
           6310      1.54047e+8 
           6330      1.52313e+8 
           6350      1.50411e+8 
           6370        1.488e+8 
           6390      1.47187e+8 
           6410      1.45528e+8 
           6430      1.43922e+8 
           6450      1.42297e+8 
           6470      1.40654e+8 
           6490      1.39109e+8 
           6510      1.37215e+8 
           6530      1.34945e+8 
           6550      1.27106e+8 
           6570      1.11932e+8 
           6590      1.29011e+8 
           6610      1.29646e+8 
           6630      1.28685e+8 
           6650      1.27478e+8 
           6670      1.24572e+8 
           6690      1.23264e+8 
           6710      1.23392e+8 
           6730      1.22061e+8 
           6750      1.20768e+8 
           6770      1.19481e+8 
           6790      1.18091e+8 
           6810      1.16936e+8 
           6830      1.15695e+8 
           6850      1.14482e+8 
           6870      1.13274e+8 
           6890      1.12077e+8 
           6910      1.10901e+8 
           6930      1.09736e+8 
           6950      1.08599e+8 
           6970      1.07472e+8 
           6990      1.06349e+8 
           7010      1.05252e+8 
           7030      1.04167e+8 
           7050      1.03084e+8 
           7070      1.00286e+8 
           7090      1.00987e+8 
           7110      9.99577e+7 
           7130      9.89383e+7 
           7150      9.79286e+7 
           7170      9.69214e+7 
           7190      9.59603e+7 
           7210      9.49938e+7 
           7230      9.35753e+7 
           7250      9.30885e+7 
           7270      9.21636e+7 
           7290      9.04535e+7 
           7310      9.03187e+7 
           7330      8.94339e+7 
           7350      8.85503e+7 
           7370       8.7675e+7 
           7390      8.68148e+7 
           7410      8.59557e+7 
           7430      8.51115e+7 
           7450      8.42954e+7 
           7470      8.34597e+7 
           7490      8.26587e+7 
           7510       8.1825e+7 
           7530      8.10653e+7 
           7550      8.02795e+7 
           7570      7.95074e+7 
           7590      7.87424e+7 
           7610      7.79843e+7 
           7630      7.72395e+7 
           7650      7.65014e+7 
           7670      7.57763e+7 
           7690      7.50578e+7 
           7710      7.43457e+7 
           7730      7.36399e+7 
           7750      7.29467e+7 
           7770      7.21723e+7 
           7790      7.15849e+7 
           7810      7.08729e+7 
           7830      7.02532e+7 
           7850      6.96512e+7 
           7870      6.90056e+7 
           7890      6.83052e+7 
           7910      6.77495e+7 
           7930      6.71326e+7 
           7950      6.64734e+7 
           7970      6.57607e+7 
           7990       6.5125e+7 
           8010       6.4536e+7 
           8030      6.39403e+7 
           8050      6.33555e+7 
           8070      6.28047e+7 
           8090       6.2155e+7 
           8110      6.16769e+7 
           8130      6.11573e+7 
           8150      6.05455e+7 
           8170      6.00802e+7 
           8190       5.9467e+7 
           8210      5.88031e+7 
           8230      5.84342e+7 
           8250      5.79465e+7 
           8270      5.71487e+7 
           8290      5.68898e+7 
           8310      5.64144e+7 
           8330      5.58941e+7 
           8350      5.51241e+7 
           8370      5.48288e+7 
           8390      5.44392e+7 
           8410      5.39569e+7 
           8430      5.34361e+7 
           8450       5.2583e+7 
           8470      5.24768e+7 
           8490      5.19032e+7 
           8510      5.14467e+7 
           8530      5.10054e+7 
           8550      5.01198e+7 
           8570       5.0613e+7 
           8590       4.8707e+7 
