# Kurucz ODFNEW /NOVER (2003)
# teff = 24000 K (value for the effective temperature for the model. Temperatures are given in K)
# logg = 3.5 log(cm/s2) (value for Log(G) for the model.)
# meta = -1  (value for the Metallicity for the model.)
# lh = 1.25  (l/Hp where l is the  mixing length of the convective element and Hp is the pressure scale height)
# vtur = 2 km/s (Microturbulence velocity)
# alpha = 0.4  (Alpha)
#
# column 1: WAVELENGTH (ANGSTROM), Wavelength in Angstrom
# column 2: FLUX (ERG/CM2/S/A), Flux in erg/cm2/s/A
          147.2     2.82045e-15 
            151     1.37081e-14 
          155.2     7.23303e-14 
          158.8     2.81724e-13 
            162     8.99319e-13 
            166     3.61185e-12 
          170.3     1.49966e-11 
          173.4      4.0113e-11 
          176.8     1.13453e-10 
          180.2      3.0865e-10 
          181.7     4.74282e-10 
          186.1      1.60805e-9 
            191      5.86197e-9 
          193.9      1.22176e-8 
          198.4      3.65746e-8 
          201.8      8.10311e-8 
            205      1.67159e-7 
          210.5       5.5068e-7 
          216.2       1.7741e-6 
          219.8      3.59644e-6 
            223      6.60824e-6 
          226.8      1.33032e-5 
            230      0.00106973 
            234      0.00253417 
            240      0.00606678 
          246.5       0.0149428 
          252.4       0.0328854 
          256.8       0.0533444 
            260       0.0853103 
            264        0.134684 
          268.5        0.226788 
          273.5        0.392175 
          278.5        0.668389 
            284         1.20689 
            290         2.15784 
            296         3.77452 
            301         5.85421 
            308         10.3491 
            318         25.1406 
            328         52.7149 
            338         110.555 
            348         216.449 
            357         466.592 
            366         827.418 
            375         1336.08 
            385         2289.15 
            395         3813.53 
            405          6080.5 
            414         9207.01 
            422         12711.8 
            430         17756.4 
            441         27340.2 
            451         39878.7 
            460         54314.2 
            470         76616.4 
            480          105368 
            490          144186 
            500          194724 
            506      1.51656e+6 
            512      5.25752e+6 
            520      6.15125e+6 
            530      7.77492e+6 
            540      8.29192e+6 
            550      1.14654e+7 
            560      1.33297e+7 
            570      1.60165e+7 
            580      1.58744e+7 
            590       2.0541e+7 
            600      2.36701e+7 
            610      2.77176e+7 
            620      3.08842e+7 
            630      3.47324e+7 
            640      3.65269e+7 
            650      3.82472e+7 
            658      4.60057e+7 
            665      4.99534e+7 
            675      5.26673e+7 
            685      5.67914e+7 
            695      6.71612e+7 
            705      7.06806e+7 
            716      7.98497e+7 
            726       8.4734e+7 
            735        9.074e+7 
            745      1.01149e+8 
            755      1.09042e+8 
            765      1.17488e+8 
            775      1.27309e+8 
            785      1.37285e+8 
            795      1.44695e+8 
            805       1.5386e+8 
            815      1.61105e+8 
            825      1.74127e+8 
            835      1.70689e+8 
            845      1.89936e+8 
            855       1.9967e+8 
            865      2.12421e+8 
            875      2.26222e+8 
            885      2.41345e+8 
            895      2.53713e+8 
            905      2.60207e+8 
            915      4.28303e+8 
            925      4.06874e+9 
            935      9.73039e+9 
            945     1.81319e+10 
            955     2.10037e+10 
            965     2.45474e+10 
            975      8.10981e+9 
            985     2.31619e+10 
            995     2.16644e+10 
           1005     2.31519e+10 
           1015     2.28486e+10 
           1025     1.27212e+10 
           1035     1.95137e+10 
           1045      2.5201e+10 
           1055     2.38492e+10 
           1065     2.07449e+10 
           1075     2.27542e+10 
           1085     2.09334e+10 
           1095     2.28327e+10 
           1105     2.08826e+10 
           1115     2.05476e+10 
           1125     1.82033e+10 
           1135     2.10926e+10 
           1145     1.93401e+10 
           1155      1.9981e+10 
           1165     2.00194e+10 
           1175     1.51761e+10 
           1185     1.91084e+10 
           1195     1.76566e+10 
           1205     1.29658e+10 
           1215       9.2596e+9 
           1225     1.63884e+10 
           1235     1.76755e+10 
           1245      1.7462e+10 
           1255     1.70774e+10 
           1265     1.69257e+10 
           1275     1.71674e+10 
           1285     1.67598e+10 
           1295     1.33466e+10 
           1305       1.401e+10 
           1315     1.60339e+10 
           1325     1.53024e+10 
           1335     1.48128e+10 
           1345     1.47472e+10 
           1355     1.48548e+10 
           1365     1.40394e+10 
           1375     1.37907e+10 
           1385     1.36777e+10 
           1395     1.10702e+10 
           1405     1.16773e+10 
           1415     1.27325e+10 
           1425      1.2377e+10 
           1435     1.25251e+10 
           1442     1.26774e+10 
           1447     1.24483e+10 
           1455      1.2171e+10 
           1465     1.17304e+10 
           1475     1.16302e+10 
           1485     1.14205e+10 
           1495     1.11883e+10 
           1505     1.05676e+10 
           1512      9.98402e+9 
           1517     1.01755e+10 
           1525     1.01818e+10 
           1535      9.25489e+9 
           1545      9.27894e+9 
           1555      8.86567e+9 
           1565       9.2311e+9 
           1575      9.45261e+9 
           1585      9.29533e+9 
           1595       9.2711e+9 
           1605      8.97634e+9 
           1615      8.78709e+9 
           1625      8.74205e+9 
           1635      8.89503e+9 
           1645       8.7002e+9 
           1655      8.64242e+9 
           1665       8.5877e+9 
           1672      8.37593e+9 
           1677       8.7002e+9 
           1685      8.49584e+9 
           1695       8.2072e+9 
           1705      7.95881e+9 
           1715      7.66171e+9 
           1725      7.56605e+9 
           1735      7.61875e+9 
           1745      7.48912e+9 
           1755      7.48695e+9 
           1765      7.26945e+9 
           1775      7.04129e+9 
           1785      7.03143e+9 
           1795      7.08765e+9 
           1805      7.06322e+9 
           1815      6.64847e+9 
           1825       6.7302e+9 
           1835      6.58175e+9 
           1845      6.10388e+9 
           1855      6.08642e+9 
           1865       6.1565e+9 
           1875      6.23074e+9 
           1885      5.72915e+9 
           1895      5.38202e+9 
           1905      5.69263e+9 
           1915      5.45942e+9 
           1925      5.25716e+9 
           1935      5.44947e+9 
           1945      5.51129e+9 
           1955      5.08877e+9 
           1967      5.33514e+9 
           1976      5.51513e+9 
           1984       5.1796e+9 
           1995      5.05827e+9 
           2005      5.12827e+9 
           2015      5.12491e+9 
           2025      5.18714e+9 
           2035      4.86929e+9 
           2045      4.86196e+9 
           2055      4.68612e+9 
           2065       4.7018e+9 
           2074      4.85052e+9 
           2078       4.5854e+9 
           2085      4.66333e+9 
           2095       4.4821e+9 
           2105       4.5697e+9 
           2115      4.54015e+9 
           2125      4.57853e+9 
           2135      4.49136e+9 
           2145      4.31832e+9 
           2155      4.39523e+9 
           2165      4.35553e+9 
           2175       4.2838e+9 
           2185      4.21713e+9 
           2195      4.20249e+9 
           2205      4.15284e+9 
           2215      4.10352e+9 
           2225      4.01977e+9 
           2235       3.9565e+9 
           2245      3.95115e+9 
           2255      3.86996e+9 
           2265      3.85576e+9 
           2275      3.80724e+9 
           2285      3.77319e+9 
           2295      3.61493e+9 
           2305      3.66886e+9 
           2315      3.59751e+9 
           2325      3.55632e+9 
           2335      3.47845e+9 
           2345      3.46899e+9 
           2355      3.44618e+9 
           2365      3.40343e+9 
           2375      3.34898e+9 
           2385      3.31281e+9 
           2395      3.27134e+9 
           2405      3.23202e+9 
           2415      3.18031e+9 
           2425      3.16829e+9 
           2435      3.10795e+9 
           2445      3.08403e+9 
           2455      3.05933e+9 
           2465      3.02067e+9 
           2475      2.98032e+9 
           2485      2.94058e+9 
           2495      2.71196e+9 
           2505      2.86259e+9 
           2513      2.78343e+9 
           2518      2.81433e+9 
           2525      2.80064e+9 
           2535      2.77167e+9 
           2545      2.69096e+9 
           2555      2.69752e+9 
           2565      2.66141e+9 
           2575      2.65203e+9 
           2585      2.62044e+9 
           2595      2.59212e+9 
           2605      2.57581e+9 
           2615      2.54612e+9 
           2625       2.5202e+9 
           2635      2.48797e+9 
           2645      2.46289e+9 
           2655      2.43529e+9 
           2665      2.39371e+9 
           2675      2.37348e+9 
           2685      2.36221e+9 
           2695      2.30762e+9 
           2705      2.29816e+9 
           2715      2.27702e+9 
           2725      2.23847e+9 
           2735      2.22803e+9 
           2745      2.19192e+9 
           2755      2.17391e+9 
           2765      2.14012e+9 
           2775      2.13794e+9 
           2785      2.11023e+9 
           2795      2.04437e+9 
           2805      2.05252e+9 
           2815      2.04661e+9 
           2825      2.00911e+9 
           2835      1.97256e+9 
           2845      1.98055e+9 
           2855      1.95537e+9 
           2865      1.93817e+9 
           2875      1.91769e+9 
           2885      1.89903e+9 
           2895      1.87681e+9 
           2910      1.84416e+9 
           2930      1.80617e+9 
           2950      1.75921e+9 
           2970      1.73449e+9 
           2990      1.69674e+9 
           3010      1.65693e+9 
           3030      1.63065e+9 
           3050      1.59937e+9 
           3070      1.56849e+9 
           3090      1.52351e+9 
           3110      1.50515e+9 
           3130      1.47452e+9 
           3150      1.44663e+9 
           3170      1.41748e+9 
           3190      1.38074e+9 
           3210      1.36417e+9 
           3230      1.33592e+9 
           3250      1.31168e+9 
           3270      1.28744e+9 
           3290      1.26132e+9 
           3310      1.23987e+9 
           3330      1.21612e+9 
           3350      1.19197e+9 
           3370      1.17113e+9 
           3390      1.15037e+9 
           3410       1.1295e+9 
           3430      1.10356e+9 
           3450      1.07966e+9 
           3470      1.06271e+9 
           3490      1.04345e+9 
           3510      1.02982e+9 
           3530      1.01307e+9 
           3550      9.95175e+8 
           3570      9.81632e+8 
           3590      9.57893e+8 
           3610      9.42394e+8 
           3630       9.2552e+8 
           3640      9.23513e+8 
           3650      9.04801e+8 
           3670       8.9354e+8 
           3690      8.69631e+8 
           3710      8.46923e+8 
           3730      8.26953e+8 
           3750      8.88827e+8 
           3770      8.88487e+8 
           3790      9.16167e+8 
           3810      9.45502e+8 
           3830      8.43583e+8 
           3850      9.54373e+8 
           3870      9.43628e+8 
           3890       8.0479e+8 
           3910      9.27328e+8 
           3930       9.0223e+8 
           3950      8.94758e+8 
           3970      7.46914e+8 
           3990      8.62923e+8 
           4010      8.52064e+8 
           4030      8.14284e+8 
           4050      8.29069e+8 
           4070      8.04771e+8 
           4090      7.64692e+8 
           4110       6.8657e+8 
           4130       7.6137e+8 
           4150      7.54268e+8 
           4170      7.47484e+8 
           4190      7.36567e+8 
           4210      7.26864e+8 
           4230      7.14217e+8 
           4250      7.00044e+8 
           4270      6.83956e+8 
           4290      6.76427e+8 
           4310       6.6268e+8 
           4330       6.2167e+8 
           4350      5.71211e+8 
           4370      6.31489e+8 
           4390      6.15173e+8 
           4410      6.14487e+8 
           4430      6.05458e+8 
           4450      5.97364e+8 
           4470      5.71253e+8 
           4490      5.77929e+8 
           4510      5.71444e+8 
           4530      5.62444e+8 
           4550      5.52888e+8 
           4570      5.43929e+8 
           4590      5.35873e+8 
           4610      5.27759e+8 
           4630      5.20327e+8 
           4650      5.07463e+8 
           4670        5.038e+8 
           4690      4.97816e+8 
           4710      4.82593e+8 
           4730       4.8236e+8 
           4750      4.74483e+8 
           4770      4.70065e+8 
           4790      4.62996e+8 
           4810      4.55359e+8 
           4830       4.4722e+8 
           4850      4.25313e+8 
           4870      3.85261e+8 
           4890      4.28451e+8 
           4910      4.23795e+8 
           4930      4.10351e+8 
           4950      4.11239e+8 
           4970      4.06609e+8 
           4990      4.00724e+8 
           5010      3.89441e+8 
           5030      3.89462e+8 
           5050      3.81228e+8 
           5070      3.78812e+8 
           5090      3.73413e+8 
           5110      3.68201e+8 
           5130      3.62774e+8 
           5150      3.57845e+8 
           5170      3.53235e+8 
           5190      3.48546e+8 
           5210      3.43363e+8 
           5230        3.392e+8 
           5250      3.34652e+8 
           5270      3.30028e+8 
           5290       3.2572e+8 
           5310       3.2132e+8 
           5330      3.17017e+8 
           5350      3.12677e+8 
           5370      3.08771e+8 
           5390      3.04604e+8 
           5410      3.00657e+8 
           5430       2.9658e+8 
           5450      2.92708e+8 
           5470      2.88922e+8 
           5490      2.85271e+8 
           5510      2.81628e+8 
           5530      2.77956e+8 
           5550      2.74452e+8 
           5570      2.70882e+8 
           5590      2.67488e+8 
           5610      2.64004e+8 
           5630      2.60741e+8 
           5650      2.57105e+8 
           5670      2.53689e+8 
           5690      2.50314e+8 
           5710      2.47709e+8 
           5730      2.44686e+8 
           5750      2.41301e+8 
           5770      2.38725e+8 
           5790      2.35764e+8 
           5810      2.32849e+8 
           5830      2.29913e+8 
           5850      2.27155e+8 
           5870      2.18864e+8 
           5890      2.21159e+8 
           5910      2.18877e+8 
           5930      2.16171e+8 
           5950      2.13497e+8 
           5970       2.1117e+8 
           5990      2.08482e+8 
           6010      2.06116e+8 
           6030      2.03611e+8 
           6050      2.01238e+8 
           6070      1.98881e+8 
           6090      1.96521e+8 
           6110      1.94227e+8 
           6130      1.91949e+8 
           6150      1.89538e+8 
           6170       1.8743e+8 
           6190      1.85297e+8 
           6210      1.83157e+8 
           6230      1.81042e+8 
           6250      1.78901e+8 
           6270       1.7688e+8 
           6290      1.74853e+8 
           6310      1.72809e+8 
           6330      1.70891e+8 
           6350      1.68742e+8 
           6370      1.66951e+8 
           6390      1.65123e+8 
           6410      1.63251e+8 
           6430      1.61453e+8 
           6450      1.59639e+8 
           6470      1.57753e+8 
           6490      1.56013e+8 
           6510      1.54336e+8 
           6530       1.5235e+8 
           6550      1.47724e+8 
           6570      1.32966e+8 
           6590      1.46456e+8 
           6610      1.45968e+8 
           6630      1.44429e+8 
           6650      1.42888e+8 
           6670      1.40255e+8 
           6690      1.38761e+8 
           6710      1.38345e+8 
           6730      1.36767e+8 
           6750      1.35395e+8 
           6770      1.33939e+8 
           6790      1.32334e+8 
           6810       1.3107e+8 
           6830      1.29658e+8 
           6850      1.28316e+8 
           6870      1.26955e+8 
           6890      1.25592e+8 
           6910      1.24251e+8 
           6930      1.22978e+8 
           6950      1.21709e+8 
           6970      1.20438e+8 
           6990      1.19171e+8 
           7010       1.1794e+8 
           7030      1.16714e+8 
           7050      1.15514e+8 
           7070      1.12616e+8 
           7090      1.13151e+8 
           7110      1.11971e+8 
           7130      1.10832e+8 
           7150      1.09705e+8 
           7170      1.08573e+8 
           7190      1.07496e+8 
           7210      1.06408e+8 
           7230      1.04717e+8 
           7250      1.04219e+8 
           7270      1.03219e+8 
           7290      1.01399e+8 
           7310      1.01148e+8 
           7330      1.00155e+8 
           7350      9.91641e+7 
           7370      9.81758e+7 
           7390      9.72036e+7 
           7410      9.62474e+7 
           7430      9.52863e+7 
           7450      9.43682e+7 
           7470      9.33572e+7 
           7490      9.25302e+7 
           7510      9.15972e+7 
           7530      9.07325e+7 
           7550      8.98625e+7 
           7570      8.89939e+7 
           7590      8.81331e+7 
           7610      8.72607e+7 
           7630      8.64414e+7 
           7650      8.56167e+7 
           7670      8.47993e+7 
           7690      8.39893e+7 
           7710      8.31866e+7 
           7730       8.2391e+7 
           7750      8.16088e+7 
           7770      8.07149e+7 
           7790      8.00837e+7 
           7810      7.92726e+7 
           7830      7.85855e+7 
           7850      7.79044e+7 
           7870      7.71561e+7 
           7890        7.636e+7 
           7910      7.57576e+7 
           7930      7.49746e+7 
           7950      7.41746e+7 
           7970      7.34588e+7 
           7990      7.27847e+7 
           8010      7.21222e+7 
           8030      7.14946e+7 
           8050       7.0884e+7 
           8070       7.0267e+7 
           8090      6.94998e+7 
           8110      6.88653e+7 
           8130      6.84072e+7 
           8150      6.76579e+7 
           8170      6.71972e+7 
           8190       6.6465e+7 
           8210      6.56609e+7 
           8230      6.52421e+7 
           8250      6.47158e+7 
           8270      6.37477e+7 
           8290      6.34788e+7 
           8310      6.29391e+7 
           8330      6.23712e+7 
           8350       6.1527e+7 
           8370      6.11204e+7 
           8390      6.06688e+7 
           8410      6.01089e+7 
           8430      5.95007e+7 
           8450      5.86232e+7 
           8470      5.82416e+7 
           8490      5.79989e+7 
           8510      5.69671e+7 
           8530      5.71922e+7 
           8550      5.52037e+7 
           8570      5.70032e+7 
