# Kurucz ODFNEW /NOVER (2003)
# teff = 20000 K (value for the effective temperature for the model. Temperatures are given in K)
# logg = 4 log(cm/s2) (value for Log(G) for the model.)
# meta = 0.2  (value for the Metallicity for the model.)
# lh = 1.25  (l/Hp where l is the  mixing length of the convective element and Hp is the pressure scale height)
# vtur = 2 km/s (Microturbulence velocity)
# alpha = 0.4  (Alpha)
#
# column 1: WAVELENGTH (ANGSTROM), Wavelength in Angstrom
# column 2: FLUX (ERG/CM2/S/A), Flux in erg/cm2/s/A
          147.2     7.78501e-20 
            151     4.56236e-19 
          155.2     2.91598e-18 
          158.8      1.3236e-17 
            162     4.80975e-17 
            166     2.25442e-16 
          170.3     1.09146e-15 
          173.4     3.26868e-15 
          176.8     1.03784e-14 
          180.2      3.1589e-14 
          181.7     5.09166e-14 
          186.1     1.98703e-13 
            191     8.43467e-13 
          193.9     1.91575e-12 
          198.4     6.53663e-12 
          201.8     1.59718e-11 
            205     3.61069e-11 
          210.5      1.3855e-10 
          216.2     5.21083e-10 
          219.8      1.16281e-9 
            223      2.32285e-9 
          226.8      5.15897e-9 
            230       4.0607e-8 
            234      1.04193e-7 
            240      3.18546e-7 
          246.5      9.96287e-7 
          252.4      2.68293e-6 
          256.8      5.33181e-6 
            260      8.98745e-6 
            264       1.6457e-5 
          268.5      3.17746e-5 
          273.5      6.40924e-5 
          278.5     0.000127179 
            284     0.000267045 
            290     0.000567065 
            296      0.00116649 
            301      0.00208401 
            308      0.00458045 
            318       0.0133702 
            328       0.0352519 
            338       0.0909276 
            348        0.217802 
            357        0.529879 
            366         1.08913 
            375         2.07893 
            385         4.17789 
            395         8.08993 
            405          15.068 
            414         25.8991 
            422         40.3735 
            430         62.6443 
            441         111.407 
            451         183.596 
            460         279.627 
            470         441.195 
            480         678.407 
            490         1030.08 
            500         1535.55 
            506         12549.2 
            512          105524 
            520          132649 
            530          188552 
            540          215095 
            550          332780 
            560          410102 
            570          540280 
            580          563078 
            590          800104 
            600       1.0059e+6 
            610       1.2775e+6 
            620      1.47663e+6 
            630      1.73453e+6 
            640      1.85017e+6 
            650      1.68436e+6 
            658      2.51725e+6 
            665      2.85819e+6 
            675      3.19037e+6 
            685      3.55674e+6 
            695      4.44065e+6 
            705      4.86927e+6 
            716      5.67494e+6 
            726      6.23315e+6 
            735       6.8569e+6 
            745      7.97069e+6 
            755      8.94858e+6 
            765      1.00043e+7 
            775      1.12186e+7 
            785       1.2422e+7 
            795      1.33769e+7 
            805      1.45721e+7 
            815      1.57651e+7 
            825      1.75533e+7 
            835      1.73078e+7 
            845      1.98451e+7 
            855      2.14259e+7 
            865         2.34e+7 
            875      2.55066e+7 
            885      2.82884e+7 
            895      3.04586e+7 
            905        3.078e+7 
            915      5.28134e+7 
            925      3.08199e+8 
            935      9.40935e+8 
            945      2.70301e+9 
            955      4.59457e+9 
            965      5.92953e+9 
            975       8.3575e+8 
            985      5.69623e+9 
            995      5.75126e+9 
           1005      7.52657e+9 
           1015      7.32048e+9 
           1025      2.18169e+9 
           1035      4.64957e+9 
           1045     1.00528e+10 
           1055      9.44206e+9 
           1065      6.79506e+9 
           1075      8.87786e+9 
           1085      7.76292e+9 
           1095      9.27916e+9 
           1105      7.33882e+9 
           1115      6.26809e+9 
           1125      5.91843e+9 
           1135      8.76035e+9 
           1145       7.2968e+9 
           1155      8.06677e+9 
           1165      8.37106e+9 
           1175      5.50022e+9 
           1185      8.36077e+9 
           1195      4.91665e+9 
           1205      1.89277e+9 
           1215      1.73088e+9 
           1225      5.07344e+9 
           1235      8.19124e+9 
           1245      8.49791e+9 
           1255      8.21927e+9 
           1265      7.53941e+9 
           1275      8.00561e+9 
           1285      8.37065e+9 
           1295      4.00176e+9 
           1305       3.6292e+9 
           1315      7.76911e+9 
           1325      7.33685e+9 
           1335      6.54226e+9 
           1345       7.4491e+9 
           1355      7.27369e+9 
           1365      6.16828e+9 
           1375      6.24347e+9 
           1385       6.2102e+9 
           1395      4.63433e+9 
           1405      5.10849e+9 
           1415      5.43562e+9 
           1425      5.73955e+9 
           1435      5.82211e+9 
           1442      6.16322e+9 
           1447      6.06097e+9 
           1455      5.87776e+9 
           1465      5.39583e+9 
           1475      5.43148e+9 
           1485      5.31997e+9 
           1495      5.29944e+9 
           1505      4.73227e+9 
           1512      4.24544e+9 
           1517      4.49497e+9 
           1525      4.65739e+9 
           1535      4.01764e+9 
           1545      4.08653e+9 
           1555      3.91667e+9 
           1565       4.0775e+9 
           1575      4.35833e+9 
           1585      4.39648e+9 
           1595      4.42031e+9 
           1605      4.44612e+9 
           1615      4.45435e+9 
           1625      4.24063e+9 
           1635      4.52996e+9 
           1645      4.51097e+9 
           1655      4.24453e+9 
           1665      4.56047e+9 
           1672       4.3775e+9 
           1677      4.53858e+9 
           1685       4.5882e+9 
           1695      4.29203e+9 
           1705      4.08463e+9 
           1715      3.81209e+9 
           1725      3.78359e+9 
           1735      4.00918e+9 
           1745      3.85857e+9 
           1755      3.95673e+9 
           1765      3.74005e+9 
           1775       3.6331e+9 
           1785      3.67977e+9 
           1795      3.91085e+9 
           1805      3.93377e+9 
           1815      3.43836e+9 
           1825      3.64149e+9 
           1835      3.43587e+9 
           1845      3.14441e+9 
           1855      3.04009e+9 
           1865      3.10776e+9 
           1875      3.42565e+9 
           1885      3.03474e+9 
           1895      2.82414e+9 
           1905      3.11005e+9 
           1915      2.86767e+9 
           1925      2.76913e+9 
           1935      2.93739e+9 
           1945      2.94759e+9 
           1955      2.70313e+9 
           1967      2.99478e+9 
           1976      3.11248e+9 
           1984      2.86826e+9 
           1995      2.80103e+9 
           2005      2.92694e+9 
           2015      2.78968e+9 
           2025      2.98517e+9 
           2035      2.70428e+9 
           2045      2.78086e+9 
           2055      2.65618e+9 
           2065      2.68847e+9 
           2074      2.82564e+9 
           2078      2.55452e+9 
           2085      2.71609e+9 
           2095      2.54164e+9 
           2105      2.61226e+9 
           2115      2.62493e+9 
           2125      2.65635e+9 
           2135      2.56648e+9 
           2145      2.47079e+9 
           2155       2.5859e+9 
           2165      2.55492e+9 
           2175      2.52224e+9 
           2185      2.42385e+9 
           2195      2.47774e+9 
           2205      2.43773e+9 
           2215      2.37622e+9 
           2225      2.28581e+9 
           2235      2.32996e+9 
           2245       2.3254e+9 
           2255      2.21806e+9 
           2265      2.28392e+9 
           2275      2.27219e+9 
           2285      2.28135e+9 
           2295      2.14485e+9 
           2305       2.1689e+9 
           2315      2.08974e+9 
           2325      2.05675e+9 
           2335      1.95515e+9 
           2345      1.95749e+9 
           2355      1.96957e+9 
           2365      1.91725e+9 
           2375      1.92071e+9 
           2385      1.87476e+9 
           2395      1.92088e+9 
           2405      1.83902e+9 
           2415       1.8536e+9 
           2425      1.86711e+9 
           2435      1.78814e+9 
           2445      1.82339e+9 
           2455      1.81401e+9 
           2465      1.77917e+9 
           2475      1.74188e+9 
           2485      1.76419e+9 
           2495      1.65385e+9 
           2505      1.73055e+9 
           2513      1.63603e+9 
           2518      1.70274e+9 
           2525      1.64262e+9 
           2535      1.62939e+9 
           2545      1.55606e+9 
           2555      1.61512e+9 
           2565       1.5915e+9 
           2575      1.62564e+9 
           2585      1.61568e+9 
           2595      1.60577e+9 
           2605      1.58164e+9 
           2615      1.56631e+9 
           2625      1.55402e+9 
           2635       1.5474e+9 
           2645      1.55823e+9 
           2655      1.55026e+9 
           2665      1.48533e+9 
           2675      1.50831e+9 
           2685      1.49522e+9 
           2695      1.45229e+9 
           2705      1.44389e+9 
           2715      1.42719e+9 
           2725       1.4073e+9 
           2735      1.42125e+9 
           2745      1.35457e+9 
           2755      1.35359e+9 
           2765       1.3517e+9 
           2775      1.37011e+9 
           2785      1.35125e+9 
           2795      1.27891e+9 
           2805        1.314e+9 
           2815      1.32113e+9 
           2825      1.30084e+9 
           2835       1.2435e+9 
           2845      1.24878e+9 
           2855      1.24647e+9 
           2865      1.25858e+9 
           2875      1.23799e+9 
           2885      1.22919e+9 
           2895      1.21626e+9 
           2910      1.20056e+9 
           2930      1.17496e+9 
           2950      1.14476e+9 
           2970      1.13358e+9 
           2990      1.10776e+9 
           3010      1.08614e+9 
           3030      1.07862e+9 
           3050       1.0565e+9 
           3070      1.03831e+9 
           3090      1.00928e+9 
           3110       9.9611e+8 
           3130      9.79845e+8 
           3150      9.62392e+8 
           3170      9.40689e+8 
           3190      9.14567e+8 
           3210       9.0763e+8 
           3230      8.91803e+8 
           3250      8.78578e+8 
           3270      8.63283e+8 
           3290      8.47425e+8 
           3310      8.34705e+8 
           3330      8.18457e+8 
           3350      8.02369e+8 
           3370      7.89391e+8 
           3390      7.77088e+8 
           3410      7.64597e+8 
           3430      7.47894e+8 
           3450      7.32664e+8 
           3470      7.21333e+8 
           3490      7.08883e+8 
           3510      6.99176e+8 
           3530      6.89673e+8 
           3550      6.78427e+8 
           3570      6.70167e+8 
           3590      6.52285e+8 
           3610      6.42245e+8 
           3630      6.33586e+8 
           3640      6.33038e+8 
           3650      6.25502e+8 
           3670      6.18592e+8 
           3690      6.04489e+8 
           3710       5.8403e+8 
           3730      5.63758e+8 
           3750      6.12036e+8 
           3770      6.17567e+8 
           3790      6.59901e+8 
           3810      6.92647e+8 
           3830      5.96828e+8 
           3850      7.09921e+8 
           3870      7.16739e+8 
           3890       5.6407e+8 
           3910      7.17107e+8 
           3930      6.91045e+8 
           3950      6.90174e+8 
           3970      5.24905e+8 
           3990      6.59911e+8 
           4010      6.62951e+8 
           4030      6.20386e+8 
           4050      6.46337e+8 
           4070       6.1885e+8 
           4090      5.73221e+8 
           4110      4.97538e+8 
           4130      5.84191e+8 
           4150      5.82271e+8 
           4170      5.80664e+8 
           4190      5.76249e+8 
           4210      5.71149e+8 
           4230      5.59528e+8 
           4250      5.46349e+8 
           4270      5.27957e+8 
           4290      5.26853e+8 
           4310      5.13599e+8 
           4330      4.61686e+8 
           4350       4.1819e+8 
           4370      4.86829e+8 
           4390      4.75444e+8 
           4410      4.79898e+8 
           4430      4.71927e+8 
           4450      4.69064e+8 
           4470      4.41459e+8 
           4490      4.49961e+8 
           4510      4.50462e+8 
           4530      4.40582e+8 
           4550       4.3517e+8 
           4570       4.2897e+8 
           4590      4.22129e+8 
           4610      4.13936e+8 
           4630      4.06958e+8 
           4650      3.98465e+8 
           4670      3.96234e+8 
           4690      3.93101e+8 
           4710      3.75743e+8 
           4730      3.76967e+8 
           4750      3.71578e+8 
           4770      3.71929e+8 
           4790      3.64873e+8 
           4810       3.5569e+8 
           4830      3.49133e+8 
           4850      3.21259e+8 
           4870      2.84029e+8 
           4890      3.35309e+8 
           4910      3.32473e+8 
           4930      3.19768e+8 
           4950      3.24431e+8 
           4970      3.21749e+8 
           4990       3.1627e+8 
           5010      3.02133e+8 
           5030      3.05899e+8 
           5050      2.96464e+8 
           5070      2.99098e+8 
           5090      2.94237e+8 
           5110      2.89154e+8 
           5130      2.83468e+8 
           5150      2.80077e+8 
           5170      2.78732e+8 
           5190       2.7477e+8 
           5210      2.67293e+8 
           5230      2.67801e+8 
           5250      2.64397e+8 
           5270      2.60048e+8 
           5290      2.57883e+8 
           5310      2.54047e+8 
           5330       2.4981e+8 
           5350      2.45787e+8 
           5370      2.44443e+8 
           5390      2.41193e+8 
           5410      2.37611e+8 
           5430      2.33602e+8 
           5450      2.30902e+8 
           5470      2.27391e+8 
           5490      2.25887e+8 
           5510      2.22835e+8 
           5530      2.19711e+8 
           5550      2.17397e+8 
           5570      2.14296e+8 
           5590       2.1209e+8 
           5610      2.08845e+8 
           5630      2.07138e+8 
           5650      2.01438e+8 
           5670       1.9914e+8 
           5690      1.97766e+8 
           5710       1.9636e+8 
           5730      1.94246e+8 
           5750       1.9153e+8 
           5770      1.89729e+8 
           5790      1.87342e+8 
           5810      1.84815e+8 
           5830      1.82441e+8 
           5850      1.80425e+8 
           5870      1.72616e+8 
           5890      1.74377e+8 
           5910      1.73566e+8 
           5930      1.71701e+8 
           5950      1.68633e+8 
           5970      1.67928e+8 
           5990      1.65307e+8 
           6010      1.64104e+8 
           6030      1.61961e+8 
           6050      1.60161e+8 
           6070       1.5831e+8 
           6090      1.56205e+8 
           6110      1.54679e+8 
           6130       1.5297e+8 
           6150      1.49755e+8 
           6170      1.49113e+8 
           6190      1.47689e+8 
           6210      1.45957e+8 
           6230      1.44303e+8 
           6250      1.42022e+8 
           6270      1.40791e+8 
           6290      1.39212e+8 
           6310      1.37347e+8 
           6330      1.36217e+8 
           6350      1.33566e+8 
           6370       1.3259e+8 
           6390      1.31438e+8 
           6410      1.29959e+8 
           6430      1.28924e+8 
           6450      1.27238e+8 
           6470       1.2567e+8 
           6490      1.24413e+8 
           6510      1.22797e+8 
           6530      1.20924e+8 
           6550      1.14812e+8 
           6570      1.00543e+8 
           6590      1.15505e+8 
           6610      1.16178e+8 
           6630      1.15358e+8 
           6650      1.14111e+8 
           6670      1.11726e+8 
           6690       1.1063e+8 
           6710      1.10515e+8 
           6730       1.0926e+8 
           6750      1.08291e+8 
           6770      1.07184e+8 
           6790       1.0523e+8 
           6810      1.04743e+8 
           6830      1.03549e+8 
           6850      1.02688e+8 
           6870      1.01612e+8 
           6890      1.00523e+8 
           6910      9.94605e+7 
           6930      9.82676e+7 
           6950      9.74766e+7 
           6970      9.64915e+7 
           6990      9.54235e+7 
           7010      9.43892e+7 
           7030      9.34412e+7 
           7050      9.24191e+7 
           7070      8.99977e+7 
           7090      9.06898e+7 
           7110      8.93084e+7 
           7130      8.84597e+7 
           7150      8.78255e+7 
           7170      8.70212e+7 
           7190      8.62171e+7 
           7210      8.53698e+7 
           7230      8.32838e+7 
           7250        8.347e+7 
           7270       8.2826e+7 
           7290      8.13514e+7 
           7310      8.11677e+7 
           7330      8.03888e+7 
           7350      7.96311e+7 
           7370      7.88527e+7 
           7390      7.80747e+7 
           7410      7.73176e+7 
           7430      7.63697e+7 
           7450       7.5743e+7 
           7470      7.48046e+7 
           7490       7.4231e+7 
           7510       7.3569e+7 
           7530      7.28531e+7 
           7550      7.22165e+7 
           7570      7.15462e+7 
           7590      7.07903e+7 
           7610      7.01715e+7 
           7630      6.95129e+7 
           7650      6.88603e+7 
           7670      6.82134e+7 
           7690       6.7566e+7 
           7710      6.69371e+7 
           7730      6.62696e+7 
           7750      6.56771e+7 
           7770      6.43224e+7 
           7790      6.44643e+7 
           7810      6.38257e+7 
           7830       6.3285e+7 
           7850      6.24433e+7 
           7870      6.19378e+7 
           7890      6.11522e+7 
           7910      6.09577e+7 
           7930       6.0441e+7 
           7950         5.95e+7 
           7970      5.91792e+7 
           7990      5.82513e+7 
           8010      5.81446e+7 
           8030      5.76082e+7 
           8050       5.7056e+7 
           8070      5.66371e+7 
           8090      5.60143e+7 
           8110      5.55127e+7 
           8130      5.51025e+7 
           8150      5.45812e+7 
           8170      5.41918e+7 
           8190      5.35686e+7 
           8210      5.29356e+7 
           8230      5.23711e+7 
           8250      5.22841e+7 
           8270      5.15016e+7 
           8290      5.13247e+7 
           8310      5.08472e+7 
           8330      5.04648e+7 
           8350      4.97755e+7 
           8370      4.94206e+7 
           8390      4.91457e+7 
           8410      4.86965e+7 
           8430      4.81858e+7 
           8450      4.71629e+7 
           8470      4.72392e+7 
           8490      4.68287e+7 
           8510       4.6161e+7 
           8530      4.62057e+7 
           8550      4.46613e+7 
           8570      4.60729e+7 
