# Kurucz ODFNEW /NOVER (2003)
# teff = 27000 K (value for the effective temperature for the model. Temperatures are given in K)
# logg = 4 log(cm/s2) (value for Log(G) for the model.)
# meta = 0.2  (value for the Metallicity for the model.)
# lh = 1.25  (l/Hp where l is the  mixing length of the convective element and Hp is the pressure scale height)
# vtur = 2 km/s (Microturbulence velocity)
# alpha = 0  (Alpha)
#
# column 1: WAVELENGTH (ANGSTROM), Wavelength in Angstrom
# column 2: FLUX (ERG/CM2/S/A), Flux in erg/cm2/s/A
          147.2     3.72838e-12 
            151     1.38467e-11 
          155.2     5.51244e-11 
          158.8     1.70875e-10 
            162     4.49882e-10 
            166      1.43823e-9 
          170.3      4.73865e-9 
          173.4      1.08646e-8 
          176.8      2.60917e-8 
          180.2      6.07869e-8 
          181.7      8.74303e-8 
          186.1      2.46597e-7 
            191      7.43266e-7 
          193.9        1.393e-6 
          198.4      3.56855e-6 
          201.8      7.07607e-6 
            205      1.32135e-5 
          210.5      3.71065e-5 
          216.2     0.000102551 
          219.8     0.000189877 
            223     0.000323056 
          226.8      0.00060084 
            230       0.0526638 
            234        0.115745 
            240         0.24458 
          246.5        0.540583 
          252.4          1.0784 
          256.8         1.67713 
            260         2.71251 
            264         4.13237 
          268.5         6.63972 
          273.5         10.8286 
          278.5         17.1612 
            284         31.9671 
            290         53.3558 
            296         87.2769 
            301         128.045 
            308         232.342 
            318         522.602 
            328         993.999 
            338         1965.39 
            348         3604.48 
            357         17446.4 
            366         37319.7 
            375         52794.4 
            385         85423.3 
            395          176165 
            405          249270 
            414          364869 
            422          479955 
            430          664319 
            441          943562 
            451      1.20145e+6 
            460      1.50487e+6 
            470      2.05231e+6 
            480      2.68698e+6 
            490      3.48534e+6 
            500      4.36931e+6 
            506      1.68386e+7 
            512      1.28843e+8 
            520      1.32812e+8 
            530      1.38447e+8 
            540      1.38974e+8 
            550      2.02338e+8 
            560      2.40453e+8 
            570      2.68128e+8 
            580      2.49566e+8 
            590      3.09457e+8 
            600       3.1391e+8 
            610      3.69571e+8 
            620      4.10541e+8 
            630       4.1482e+8 
            640      3.68305e+8 
            650      2.84567e+8 
            658      3.93032e+8 
            665      4.85691e+8 
            675      5.20025e+8 
            685      4.93488e+8 
            695      6.76284e+8 
            705      6.37459e+8 
            716      7.52421e+8 
            726      7.51778e+8 
            735      7.71207e+8 
            745      8.62298e+8 
            755      8.93933e+8 
            765      9.42491e+8 
            775      9.95914e+8 
            785      1.05556e+9 
            795      1.07405e+9 
            805      1.08515e+9 
            815      1.09243e+9 
            825       1.1881e+9 
            835      9.74426e+8 
            845       1.1761e+9 
            855      1.17493e+9 
            865      1.24228e+9 
            875      1.30572e+9 
            885      1.39441e+9 
            895       1.4406e+9 
            905      1.40899e+9 
            915      1.85556e+9 
            925     1.12593e+10 
            935     2.26553e+10 
            945     3.58874e+10 
            955      4.0988e+10 
            965     4.56133e+10 
            975      9.14534e+9 
            985     3.39288e+10 
            995     3.41015e+10 
           1005     3.96563e+10 
           1015     4.15482e+10 
           1025     2.71539e+10 
           1035     3.49694e+10 
           1045     4.86632e+10 
           1055     4.45093e+10 
           1065     3.58287e+10 
           1075     4.03518e+10 
           1085     3.63633e+10 
           1095     4.01857e+10 
           1105     3.69934e+10 
           1115      3.5948e+10 
           1125     2.73004e+10 
           1135     3.61515e+10 
           1145     3.34998e+10 
           1155      3.3343e+10 
           1165     3.24872e+10 
           1175     1.76683e+10 
           1185     2.97606e+10 
           1195     2.85075e+10 
           1205     2.20116e+10 
           1215     1.82648e+10 
           1225     2.66337e+10 
           1235     2.96103e+10 
           1245     2.81789e+10 
           1255     2.79517e+10 
           1265     2.87993e+10 
           1275      2.9851e+10 
           1285     2.97144e+10 
           1295     2.26663e+10 
           1305     2.43488e+10 
           1315     2.90321e+10 
           1325     2.71449e+10 
           1335     2.62367e+10 
           1345     2.63478e+10 
           1355      2.5909e+10 
           1365     2.40083e+10 
           1375     2.30486e+10 
           1385     2.20571e+10 
           1395     1.47743e+10 
           1405     1.63392e+10 
           1415     1.95907e+10 
           1425     1.87064e+10 
           1435     1.97656e+10 
           1442     2.00833e+10 
           1447     1.97792e+10 
           1455     1.89074e+10 
           1465     1.73716e+10 
           1475     1.79791e+10 
           1485     1.77959e+10 
           1495     1.73007e+10 
           1505     1.56402e+10 
           1512     1.40757e+10 
           1517     1.45076e+10 
           1525     1.47906e+10 
           1535     1.21957e+10 
           1545     1.13403e+10 
           1555     1.11167e+10 
           1565     1.24179e+10 
           1575     1.33692e+10 
           1585     1.34759e+10 
           1595     1.32594e+10 
           1605     1.33486e+10 
           1615     1.28344e+10 
           1625     1.27988e+10 
           1635      1.3549e+10 
           1645     1.36028e+10 
           1655     1.34631e+10 
           1665      1.3561e+10 
           1672     1.26699e+10 
           1677     1.45423e+10 
           1685     1.37716e+10 
           1695     1.29525e+10 
           1705     1.27138e+10 
           1715     1.19283e+10 
           1725     1.16351e+10 
           1735     1.21263e+10 
           1745     1.19185e+10 
           1755      1.1913e+10 
           1765     1.18543e+10 
           1775     1.09837e+10 
           1785       1.127e+10 
           1795     1.14554e+10 
           1805     1.15406e+10 
           1815     1.03268e+10 
           1825     1.06788e+10 
           1835     1.04052e+10 
           1845      9.42957e+9 
           1855      9.71826e+9 
           1865      9.82856e+9 
           1875     1.00755e+10 
           1885      8.97308e+9 
           1895      8.36153e+9 
           1905      9.06677e+9 
           1915      8.53573e+9 
           1925      7.98491e+9 
           1935      8.61043e+9 
           1945       8.8368e+9 
           1955       7.8056e+9 
           1967      8.54773e+9 
           1976      8.95276e+9 
           1984      8.27621e+9 
           1995      8.13816e+9 
           2005      8.46727e+9 
           2015       8.3852e+9 
           2025      8.58096e+9 
           2035      7.77643e+9 
           2045      7.91794e+9 
           2055      7.31286e+9 
           2065      7.24689e+9 
           2074      7.68273e+9 
           2078      6.95383e+9 
           2085      7.41409e+9 
           2095      7.12778e+9 
           2105      7.44927e+9 
           2115      7.48073e+9 
           2125      7.51686e+9 
           2135       7.3828e+9 
           2145      6.98153e+9 
           2155      7.28421e+9 
           2165      7.20558e+9 
           2175      7.13684e+9 
           2185      6.88655e+9 
           2195      6.99683e+9 
           2205       6.9748e+9 
           2215       6.8371e+9 
           2225      6.66689e+9 
           2235        6.529e+9 
           2245      6.57696e+9 
           2255       6.3651e+9 
           2265      6.42307e+9 
           2275      6.32567e+9 
           2285      6.28074e+9 
           2295      5.54026e+9 
           2305      6.03296e+9 
           2315       5.8805e+9 
           2325      5.82305e+9 
           2335      5.67786e+9 
           2345      5.73066e+9 
           2355      5.66185e+9 
           2365      5.60808e+9 
           2375      5.46217e+9 
           2385       5.4066e+9 
           2395      5.33448e+9 
           2405      5.26116e+9 
           2415      5.20199e+9 
           2425       5.1773e+9 
           2435      5.02831e+9 
           2445      5.02898e+9 
           2455      5.01497e+9 
           2465      4.93078e+9 
           2475      4.84372e+9 
           2485      4.71325e+9 
           2495      3.73387e+9 
           2505      4.51917e+9 
           2513      4.36505e+9 
           2518      4.52088e+9 
           2525      4.52114e+9 
           2535      4.48554e+9 
           2545      4.31204e+9 
           2555       4.3442e+9 
           2565      4.28497e+9 
           2575      4.27675e+9 
           2585      4.21577e+9 
           2595      4.17371e+9 
           2605      4.13613e+9 
           2615      4.06417e+9 
           2625      4.03868e+9 
           2635      3.99891e+9 
           2645      3.93093e+9 
           2655        3.908e+9 
           2665      3.74076e+9 
           2675      3.74533e+9 
           2685      3.74878e+9 
           2695      3.60145e+9 
           2705      3.51706e+9 
           2715      3.52723e+9 
           2725      3.53167e+9 
           2735      3.49134e+9 
           2745      3.43045e+9 
           2755      3.41145e+9 
           2765      3.36041e+9 
           2775      3.38398e+9 
           2785      3.32261e+9 
           2795      3.19756e+9 
           2805      3.22321e+9 
           2815       3.2303e+9 
           2825      3.18123e+9 
           2835      3.06653e+9 
           2845      3.10529e+9 
           2855      3.04193e+9 
           2865      3.03487e+9 
           2875      3.00016e+9 
           2885      2.96478e+9 
           2895       2.9175e+9 
           2910      2.85088e+9 
           2930      2.82267e+9 
           2950      2.73219e+9 
           2970      2.68958e+9 
           2990      2.62334e+9 
           3010      2.51949e+9 
           3030      2.50677e+9 
           3050      2.46934e+9 
           3070      2.43276e+9 
           3090      2.32581e+9 
           3110       2.3233e+9 
           3130      2.25859e+9 
           3150      2.22321e+9 
           3170        2.163e+9 
           3190      2.12093e+9 
           3210      2.08899e+9 
           3230      2.03403e+9 
           3250      2.00643e+9 
           3270      1.95571e+9 
           3290      1.91729e+9 
           3310      1.88098e+9 
           3330      1.83668e+9 
           3350      1.80444e+9 
           3370      1.76587e+9 
           3390      1.74067e+9 
           3410      1.70706e+9 
           3430       1.6703e+9 
           3450      1.63169e+9 
           3470      1.60148e+9 
           3490      1.56836e+9 
           3510      1.54161e+9 
           3530      1.52183e+9 
           3550      1.49128e+9 
           3570      1.46818e+9 
           3590      1.42395e+9 
           3610      1.40038e+9 
           3630      1.37853e+9 
           3640      1.37594e+9 
           3650       1.3426e+9 
           3670      1.32711e+9 
           3690      1.29931e+9 
           3710      1.24853e+9 
           3730      1.20306e+9 
           3750      1.24304e+9 
           3770      1.22705e+9 
           3790       1.2744e+9 
           3810      1.31304e+9 
           3830      1.16589e+9 
           3850      1.31691e+9 
           3870      1.29025e+9 
           3890      1.10394e+9 
           3910      1.29003e+9 
           3930      1.24633e+9 
           3950      1.22828e+9 
           3970       1.0223e+9 
           3990      1.19123e+9 
           4010      1.18086e+9 
           4030      1.12377e+9 
           4050      1.13952e+9 
           4070      1.08387e+9 
           4090      1.02255e+9 
           4110      9.28637e+8 
           4130      1.03763e+9 
           4150      1.02999e+9 
           4170      1.02557e+9 
           4190      1.01263e+9 
           4210      1.00282e+9 
           4230      9.80496e+8 
           4250      9.51517e+8 
           4270      9.26363e+8 
           4290       9.1226e+8 
           4310      8.82762e+8 
           4330      8.25257e+8 
           4350      7.65126e+8 
           4370      8.40894e+8 
           4390      8.37882e+8 
           4410      8.30513e+8 
           4430      8.24605e+8 
           4450      8.09562e+8 
           4470       7.7737e+8 
           4490      7.86232e+8 
           4510      7.77941e+8 
           4530      7.66552e+8 
           4550      7.55388e+8 
           4570      7.42603e+8 
           4590      7.29279e+8 
           4610      7.11266e+8 
           4630      7.00284e+8 
           4650      6.73958e+8 
           4670       6.8003e+8 
           4690      6.74362e+8 
           4710      6.49169e+8 
           4730      6.52616e+8 
           4750      6.41588e+8 
           4770      6.41269e+8 
           4790      6.29686e+8 
           4810      6.16612e+8 
           4830      6.04604e+8 
           4850      5.72337e+8 
           4870      5.16736e+8 
           4890       5.7935e+8 
           4910      5.73046e+8 
           4930      5.54533e+8 
           4950      5.53797e+8 
           4970      5.51301e+8 
           4990      5.42004e+8 
           5010      5.19179e+8 
           5030      5.24901e+8 
           5050      5.13927e+8 
           5070      5.11653e+8 
           5090      5.02929e+8 
           5110      4.94657e+8 
           5130      4.83794e+8 
           5150      4.78665e+8 
           5170      4.74448e+8 
           5190      4.68728e+8 
           5210      4.61459e+8 
           5230      4.55195e+8 
           5250      4.48986e+8 
           5270      4.41516e+8 
           5290      4.36756e+8 
           5310      4.30306e+8 
           5330      4.24855e+8 
           5350      4.18578e+8 
           5370      4.13506e+8 
           5390      4.07331e+8 
           5410      4.02291e+8 
           5430      3.96727e+8 
           5450      3.91093e+8 
           5470      3.85834e+8 
           5490      3.80653e+8 
           5510       3.7643e+8 
           5530      3.70411e+8 
           5550      3.66633e+8 
           5570      3.61455e+8 
           5590      3.56968e+8 
           5610      3.52153e+8 
           5630      3.47837e+8 
           5650      3.41957e+8 
           5670      3.35881e+8 
           5690      3.29916e+8 
           5710       3.2836e+8 
           5730      3.24776e+8 
           5750      3.19375e+8 
           5770      3.17301e+8 
           5790      3.12809e+8 
           5810      3.08963e+8 
           5830      3.04087e+8 
           5850      3.00965e+8 
           5870      2.89701e+8 
           5890      2.90864e+8 
           5910       2.8877e+8 
           5930      2.84661e+8 
           5950      2.81016e+8 
           5970      2.79665e+8 
           5990      2.74535e+8 
           6010      2.72283e+8 
           6030      2.68211e+8 
           6050      2.65288e+8 
           6070      2.62653e+8 
           6090      2.59549e+8 
           6110      2.56339e+8 
           6130      2.53476e+8 
           6150      2.49051e+8 
           6170      2.46489e+8 
           6190      2.44152e+8 
           6210      2.41536e+8 
           6230      2.38804e+8 
           6250      2.35359e+8 
           6270      2.32806e+8 
           6290      2.30318e+8 
           6310      2.27384e+8 
           6330      2.25047e+8 
           6350      2.21838e+8 
           6370      2.19816e+8 
           6390      2.17123e+8 
           6410       2.1466e+8 
           6430      2.12352e+8 
           6450      2.09815e+8 
           6470      2.06585e+8 
           6490      2.04365e+8 
           6510      2.02454e+8 
           6530       1.9936e+8 
           6550      1.92876e+8 
           6570      1.72005e+8 
           6590      1.91027e+8 
           6610      1.90934e+8 
           6630      1.89192e+8 
           6650      1.86931e+8 
           6670      1.83441e+8 
           6690       1.8147e+8 
           6710      1.81009e+8 
           6730      1.78438e+8 
           6750      1.77126e+8 
           6770       1.7521e+8 
           6790      1.71793e+8 
           6810      1.71078e+8 
           6830      1.69173e+8 
           6850        1.676e+8 
           6870       1.6574e+8 
           6890      1.63692e+8 
           6910      1.61673e+8 
           6930      1.60474e+8 
           6950       1.5878e+8 
           6970      1.57094e+8 
           6990      1.55356e+8 
           7010      1.53697e+8 
           7030         1.52e+8 
           7050      1.50426e+8 
           7070      1.46547e+8 
           7090      1.47243e+8 
           7110      1.44597e+8 
           7130      1.43216e+8 
           7150      1.42637e+8 
           7170      1.41212e+8 
           7190      1.39801e+8 
           7210      1.38338e+8 
           7230      1.34907e+8 
           7250       1.3516e+8 
           7270      1.34076e+8 
           7290      1.31661e+8 
           7310      1.31301e+8 
           7330      1.29912e+8 
           7350      1.28662e+8 
           7370      1.27382e+8 
           7390      1.26087e+8 
           7410       1.2481e+8 
           7430      1.23518e+8 
           7450      1.22286e+8 
           7470       1.2041e+8 
           7490      1.19754e+8 
           7510      1.18589e+8 
           7530      1.17329e+8 
           7550      1.16318e+8 
           7570      1.15165e+8 
           7590      1.13997e+8 
           7610      1.12676e+8 
           7630      1.11737e+8 
           7650      1.10658e+8 
           7670      1.09595e+8 
           7690      1.08503e+8 
           7710      1.07409e+8 
           7730      1.06324e+8 
           7750      1.05393e+8 
           7770      1.04065e+8 
           7790      1.03376e+8 
           7810       1.0231e+8 
           7830      1.01389e+8 
           7850      1.00439e+8 
           7870      9.93146e+7 
           7890      9.81763e+7 
           7910      9.74517e+7 
           7930      9.64815e+7 
           7950      9.56092e+7 
           7970      9.46555e+7 
           7990      9.37455e+7 
           8010      9.28493e+7 
           8030      9.19609e+7 
           8050      9.12022e+7 
           8070      9.03863e+7 
           8090      8.94276e+7 
           8110      8.81337e+7 
           8130      8.79229e+7 
           8150      8.70211e+7 
           8170      8.63529e+7 
           8190      8.50836e+7 
           8210      8.42056e+7 
           8230      8.32852e+7 
           8250      8.30202e+7 
           8270      8.14073e+7 
           8290      8.13933e+7 
           8310      8.07401e+7 
           8330      8.00217e+7 
           8350      7.89201e+7 
           8370      7.83714e+7 
           8390      7.78537e+7 
           8410       7.7079e+7 
           8430      7.63903e+7 
           8450      7.51216e+7 
           8470      7.49248e+7 
           8490      7.41907e+7 
           8510      7.32754e+7 
           8530      7.29788e+7 
           8550      7.13803e+7 
           8570      7.23914e+7 
           8590      6.96909e+7 
