# Kurucz ODFNEW /NOVER (2003)
# teff = 10000 K (value for the effective temperature for the model. Temperatures are given in K)
# logg = 4 log(cm/s2) (value for Log(G) for the model.)
# meta = 0.5  (value for the Metallicity for the model.)
# lh = 1.25  (l/Hp where l is the  mixing length of the convective element and Hp is the pressure scale height)
# vtur = 2 km/s (Microturbulence velocity)
# alpha = 0  (Alpha)
#
# column 1: WAVELENGTH (ANGSTROM), Wavelength in Angstrom
# column 2: FLUX (ERG/CM2/S/A), Flux in erg/cm2/s/A
          273.5     2.26746e-23 
          278.5     1.03908e-22 
            284     4.40972e-22 
            290     1.96567e-21 
            296     8.14163e-21 
            301     2.56273e-20 
            308     1.20456e-19 
            318      9.8135e-19 
            328     7.10325e-18 
            338     4.60409e-17 
            348     2.70655e-16 
            357     1.23945e-15 
            366     5.27004e-15 
            375     2.09455e-14 
            385     9.06463e-14 
            395      3.6619e-13 
            405     1.38935e-12 
            414     4.37887e-12 
            422     1.16786e-11 
            430     3.00548e-11 
            441      1.0525e-10 
            451     3.11587e-10 
            460     7.95903e-10 
            470      2.16811e-9 
            480      5.67694e-9 
            490      1.42953e-8 
            500      3.46757e-8 
            506      7.20482e-8 
            512       1.2769e-7 
            520      2.39747e-7 
            530      5.14948e-7 
            540      1.07175e-6 
            550      2.19051e-6 
            560      4.35149e-6 
            570      8.43507e-6 
            580      1.59472e-5 
            590      2.97303e-5 
            600      5.40649e-5 
            610       9.6517e-5 
            620     0.000169087 
            630     0.000291066 
            640      0.00049202 
            650     0.000819086 
            658      0.00121686 
            665      0.00170694 
            675       0.0027356 
            685      0.00432132 
            695      0.00673375 
            705       0.0103508 
            716       0.0163991 
            726       0.0245811 
            735       0.0350296 
            745       0.0513795 
            755       0.0745892 
            765        0.107156 
            775        0.152404 
            785        0.214718 
            795        0.299673 
            805        0.414613 
            815        0.568873 
            825        0.773856 
            835          1.0444 
            845         1.39913 
            855         1.86013 
            865         2.45515 
            875         3.21804 
            885         4.19088 
            895         5.42172 
            905         6.96997 
            915          183.36 
            925         1158.91 
            935         1651.02 
            945         2331.44 
            955         3321.65 
            965         4217.06 
            975         4167.45 
            985         5580.52 
            995         6043.88 
           1005         7629.51 
           1015         8967.13 
           1025         8438.74 
           1035         11657.2 
           1045         13757.6 
           1055           15827 
           1065         17274.6 
           1075         20520.2 
           1085         23391.2 
           1095         25134.5 
           1105           45367 
           1115          111674 
           1125          161652 
           1135          238225 
           1145          258964 
           1155          315357 
           1165          384272 
           1175          377841 
           1185          348473 
           1195          137918 
           1205          170932 
           1215         37136.4 
           1225          175744 
           1235          365633 
           1245          909532 
           1255      9.90842e+6 
           1265      9.52167e+6 
           1275      2.52509e+7 
           1285      4.24658e+7 
           1295      3.79397e+7 
           1305       1.2189e+7 
           1315      4.02257e+7 
           1325      5.31783e+7 
           1335      4.35467e+7 
           1345      6.35516e+7 
           1355      5.98388e+7 
           1365      5.08493e+7 
           1375      5.79035e+7 
           1385      5.30796e+7 
           1395      5.71088e+7 
           1405      5.98275e+7 
           1415      5.75586e+7 
           1425      6.99703e+7 
           1435      5.95365e+7 
           1442       7.2548e+7 
           1447       8.0594e+7 
           1455      8.12459e+7 
           1465      7.38547e+7 
           1475      7.06611e+7 
           1485       8.0453e+7 
           1495      9.13664e+7 
           1505      9.18328e+7 
           1512      7.48698e+7 
           1517      8.87798e+7 
           1525       8.1734e+7 
           1535      8.22506e+7 
           1545       1.1729e+8 
           1555      8.65176e+7 
           1565      7.40285e+7 
           1575      1.00555e+8 
           1585      1.22195e+8 
           1595      1.35221e+8 
           1605      1.25737e+8 
           1615      1.22463e+8 
           1625      1.03767e+8 
           1635      1.09297e+8 
           1645      1.25894e+8 
           1655      9.73835e+7 
           1665      1.22029e+8 
           1672      6.69886e+7 
           1677      1.17263e+8 
           1685      1.37159e+8 
           1695      1.20194e+8 
           1705      1.11552e+8 
           1715      1.09446e+8 
           1725      1.07311e+8 
           1735      1.21387e+8 
           1745       1.1885e+8 
           1755      1.38924e+8 
           1765      1.06482e+8 
           1775      1.25133e+8 
           1785      1.24243e+8 
           1795      1.46996e+8 
           1805      1.35601e+8 
           1815      1.34339e+8 
           1825      1.26526e+8 
           1835      1.19981e+8 
           1845      1.07471e+8 
           1855      1.17452e+8 
           1865      1.19694e+8 
           1875      1.25826e+8 
           1885      1.21992e+8 
           1895      1.24359e+8 
           1905      1.15105e+8 
           1915      1.23357e+8 
           1925      1.26013e+8 
           1935      1.18345e+8 
           1945      1.27717e+8 
           1955      1.25576e+8 
           1967      1.35431e+8 
           1976      1.35483e+8 
           1984      1.28162e+8 
           1995      1.22777e+8 
           2005      1.20506e+8 
           2015      1.11704e+8 
           2025      1.14527e+8 
           2035      1.17352e+8 
           2045      1.25161e+8 
           2055      1.16417e+8 
           2065      1.13932e+8 
           2074      1.24541e+8 
           2078      1.27796e+8 
           2085      1.24348e+8 
           2095      1.18134e+8 
           2105      1.12508e+8 
           2115      1.12424e+8 
           2125      1.15915e+8 
           2135      9.35578e+7 
           2145      1.07565e+8 
           2155      1.10787e+8 
           2165      1.03296e+8 
           2175       1.0117e+8 
           2185      1.01595e+8 
           2195      1.08522e+8 
           2205      1.02566e+8 
           2215      9.19973e+7 
           2225      8.85088e+7 
           2235      1.01188e+8 
           2245      8.96223e+7 
           2255      8.49841e+7 
           2265       8.7929e+7 
           2275      9.36869e+7 
           2285      9.74793e+7 
           2295      9.12172e+7 
           2305      8.73784e+7 
           2315      8.24285e+7 
           2325      8.11774e+7 
           2335      7.34564e+7 
           2345      6.67957e+7 
           2355      8.11126e+7 
           2365      6.67605e+7 
           2375      7.30534e+7 
           2385      6.14234e+7 
           2395       7.0735e+7 
           2405      6.61032e+7 
           2415      6.95876e+7 
           2425      7.74071e+7 
           2435      7.34369e+7 
           2445       7.9612e+7 
           2455      7.63207e+7 
           2465      7.59445e+7 
           2475      7.23677e+7 
           2485      7.70635e+7 
           2495       7.3415e+7 
           2505      8.44291e+7 
           2513      7.19614e+7 
           2518      7.45993e+7 
           2525       6.7586e+7 
           2535       6.7259e+7 
           2545      6.60568e+7 
           2555      7.23274e+7 
           2565      7.07739e+7 
           2575      7.78898e+7 
           2585      7.73109e+7 
           2595      7.42715e+7 
           2605      7.03714e+7 
           2615      6.91842e+7 
           2625      7.62521e+7 
           2635      7.66077e+7 
           2645      8.86086e+7 
           2655      8.71621e+7 
           2665      7.63725e+7 
           2675      8.17255e+7 
           2685      7.93098e+7 
           2695      7.66631e+7 
           2705       7.9516e+7 
           2715      7.45156e+7 
           2725      7.57657e+7 
           2735      8.26715e+7 
           2745      6.59912e+7 
           2755      6.72502e+7 
           2765      6.96177e+7 
           2775      7.73309e+7 
           2785      7.43771e+7 
           2795      4.98639e+7 
           2805       5.8956e+7 
           2815      7.86764e+7 
           2825      8.19818e+7 
           2835      7.73124e+7 
           2845      7.39773e+7 
           2855       7.0904e+7 
           2865      7.78085e+7 
           2875      7.46611e+7 
           2885      7.61043e+7 
           2895      7.17721e+7 
           2910      8.18403e+7 
           2930       7.7655e+7 
           2950      7.74195e+7 
           2970      7.93101e+7 
           2990      7.97865e+7 
           3010      8.12995e+7 
           3030      7.96594e+7 
           3050      7.84237e+7 
           3070      7.75451e+7 
           3090      7.88369e+7 
           3110      7.60852e+7 
           3130      7.55697e+7 
           3150      7.70164e+7 
           3170      7.62051e+7 
           3190      7.26944e+7 
           3210      7.43507e+7 
           3230      7.23856e+7 
           3250       7.3213e+7 
           3270      7.31517e+7 
           3290      7.36293e+7 
           3310      7.38563e+7 
           3330      7.18813e+7 
           3350      7.06496e+7 
           3370       7.0321e+7 
           3390      6.97756e+7 
           3410      7.09067e+7 
           3430      7.05465e+7 
           3450      6.97974e+7 
           3470      6.86572e+7 
           3490      6.80767e+7 
           3510      6.88688e+7 
           3530      6.88494e+7 
           3550      6.87873e+7 
           3570      6.71142e+7 
           3590      6.66374e+7 
           3610      6.62943e+7 
           3630      6.59717e+7 
           3640      6.54136e+7 
           3650      6.69474e+7 
           3670      6.65022e+7 
           3690      6.39378e+7 
           3710      6.46271e+7 
           3730      6.55551e+7 
           3750      8.32408e+7 
           3770      8.96836e+7 
           3790      1.13999e+8 
           3810      1.33401e+8 
           3830      1.03607e+8 
           3850       1.4494e+8 
           3870      1.64636e+8 
           3890      9.00415e+7 
           3910      1.61977e+8 
           3930      1.63064e+8 
           3950      1.61557e+8 
           3970       8.5027e+7 
           3990      1.55071e+8 
           4010      1.67859e+8 
           4030      1.65865e+8 
           4050      1.64725e+8 
           4070        1.576e+8 
           4090      1.24168e+8 
           4110      9.31024e+7 
           4130      1.47636e+8 
           4150      1.54041e+8 
           4170      1.51694e+8 
           4190      1.49916e+8 
           4210      1.48391e+8 
           4230      1.45301e+8 
           4250       1.4296e+8 
           4270      1.38928e+8 
           4290      1.39236e+8 
           4310      1.30887e+8 
           4330        9.894e+7 
           4350      8.35663e+7 
           4370       1.2717e+8 
           4390      1.27798e+8 
           4410      1.27405e+8 
           4430      1.25626e+8 
           4450      1.26266e+8 
           4470      1.24245e+8 
           4490      1.20867e+8 
           4510      1.21683e+8 
           4530       1.1914e+8 
           4550      1.16113e+8 
           4570      1.17361e+8 
           4590      1.14152e+8 
           4610      1.15294e+8 
           4630       1.1128e+8 
           4650       1.1211e+8 
           4670      1.10173e+8 
           4690      1.07457e+8 
           4710      1.03853e+8 
           4730      1.06085e+8 
           4750      1.04694e+8 
           4770      1.03491e+8 
           4790      1.01978e+8 
           4810      9.94463e+7 
           4830      9.52591e+7 
           4850      7.37731e+7 
           4870      5.90027e+7 
           4890      8.97832e+7 
           4910      9.30975e+7 
           4930      9.18492e+7 
           4950      9.18695e+7 
           4970      9.14382e+7 
           4990      8.96839e+7 
           5010      8.69086e+7 
           5030      8.68055e+7 
           5050      8.51044e+7 
           5070      8.53752e+7 
           5090      8.43581e+7 
           5110      8.31811e+7 
           5130      8.22947e+7 
           5150      8.05616e+7 
           5170      7.88754e+7 
           5190      7.82281e+7 
           5210      7.78327e+7 
           5230      7.61491e+7 
           5250      7.65186e+7 
           5270      7.39463e+7 
           5290      7.49014e+7 
           5310      7.29941e+7 
           5330      7.20508e+7 
           5350      7.25187e+7 
           5370       7.1389e+7 
           5390      7.05607e+7 
           5410       6.9256e+7 
           5430      6.88132e+7 
           5450      6.85019e+7 
           5470      6.76078e+7 
           5490      6.69599e+7 
           5510      6.61222e+7 
           5530      6.53566e+7 
           5550      6.48375e+7 
           5570      6.40582e+7 
           5590      6.34511e+7 
           5610      6.29468e+7 
           5630      6.22591e+7 
           5650      6.13258e+7 
           5670      6.06889e+7 
           5690      6.01909e+7 
           5710      5.95828e+7 
           5730      5.90115e+7 
           5750      5.82451e+7 
           5770      5.76643e+7 
           5790      5.69329e+7 
           5810      5.63988e+7 
           5830      5.58163e+7 
           5850      5.52603e+7 
           5870      5.45585e+7 
           5890      5.35827e+7 
           5910      5.34644e+7 
           5930      5.29565e+7 
           5950      5.21393e+7 
           5970      5.17483e+7 
           5990      5.10431e+7 
           6010      5.05976e+7 
           6030      5.02097e+7 
           6050      4.95952e+7 
           6070      4.91656e+7 
           6090      4.86492e+7 
           6110      4.81416e+7 
           6130      4.75843e+7 
           6150      4.63012e+7 
           6170      4.65725e+7 
           6190      4.62347e+7 
           6210      4.57625e+7 
           6230      4.52294e+7 
           6250      4.43116e+7 
           6270      4.44069e+7 
           6290      4.39583e+7 
           6310       4.3366e+7 
           6330      4.30425e+7 
           6350      4.20309e+7 
           6370      4.18343e+7 
           6390      4.17343e+7 
           6410      4.12129e+7 
           6430       4.0905e+7 
           6450      4.00142e+7 
           6470       4.0057e+7 
           6490      3.93481e+7 
           6510      3.88445e+7 
           6530      3.76819e+7 
           6550      3.24873e+7 
           6570      2.60399e+7 
           6590      3.55059e+7 
           6610      3.68684e+7 
           6630      3.68648e+7 
           6650      3.66502e+7 
           6670      3.63198e+7 
           6690      3.60567e+7 
           6710      3.57568e+7 
           6730      3.53191e+7 
           6750      3.50399e+7 
           6770       3.4774e+7 
           6790      3.44256e+7 
           6810      3.41165e+7 
           6830      3.37425e+7 
           6850      3.34542e+7 
           6870      3.31639e+7 
           6890      3.28693e+7 
           6910       3.2546e+7 
           6930       3.2218e+7 
           6950      3.19533e+7 
           6970        3.165e+7 
           6990       3.1392e+7 
           7010      3.09356e+7 
           7030      3.07926e+7 
           7050      3.04787e+7 
           7070      3.02477e+7 
           7090      2.99934e+7 
           7110      2.93986e+7 
           7130      2.93673e+7 
           7150      2.91104e+7 
           7170      2.88918e+7 
           7190      2.86307e+7 
           7210      2.83916e+7 
           7230      2.81036e+7 
           7250      2.78004e+7 
           7270      2.76462e+7 
           7290      2.73636e+7 
           7310      2.71196e+7 
           7330      2.69108e+7 
           7350      2.66976e+7 
           7370      2.64724e+7 
           7390      2.62162e+7 
           7410      2.59555e+7 
           7430      2.55873e+7 
           7450       2.5444e+7 
           7470      2.51088e+7 
           7490      2.50038e+7 
           7510      2.48187e+7 
           7530      2.46644e+7 
           7550      2.44751e+7 
           7570      2.42579e+7 
           7590      2.40537e+7 
           7610      2.38663e+7 
           7630      2.36481e+7 
           7650       2.3421e+7 
           7670        2.321e+7 
           7690      2.30276e+7 
           7710       2.2819e+7 
           7730      2.26638e+7 
           7750      2.24717e+7 
           7770      2.17703e+7 
           7790       2.2105e+7 
           7810      2.19283e+7 
           7830      2.17126e+7 
           7850      2.14688e+7 
           7870      2.12303e+7 
           7890       2.0989e+7 
           7910      2.09486e+7 
           7930      2.08275e+7 
           7950      2.04833e+7 
           7970      2.05211e+7 
           7990      2.00202e+7 
           8010      2.01764e+7 
           8030      1.99994e+7 
           8050      1.98508e+7 
           8070      1.96779e+7 
           8090       1.9526e+7 
           8110      1.93645e+7 
           8130      1.92301e+7 
           8150      1.90785e+7 
           8170      1.89305e+7 
           8190      1.86101e+7 
           8210      1.85078e+7 
           8230      1.83117e+7 
           8250      1.83083e+7 
           8270      1.83278e+7 
           8290      1.81457e+7 
           8310      1.80454e+7 
           8330      1.78096e+7 
           8350      1.77708e+7 
           8370        1.765e+7 
           8390      1.74846e+7 
           8410      1.73083e+7 
           8430      1.71372e+7 
           8450       1.6747e+7 
           8470      1.66297e+7 
           8490       1.6784e+7 
           8510      1.59941e+7 
           8530      1.67108e+7 
           8550      1.50785e+7 
           8570      1.68029e+7 
           8590      1.55311e+7 
           8610      1.51506e+7 
           8630      1.68802e+7 
           8650      1.60691e+7 
           8670      1.33032e+7 
           8690      1.63062e+7 
           8710      1.70949e+7 
           8730      1.62559e+7 
           8750      1.26758e+7 
           8770      1.53698e+7 
           8790      1.70119e+7 
           8810      1.71347e+7 
           8830      1.64967e+7 
           8850      1.44232e+7 
           8870      1.21489e+7 
           8890      1.56255e+7 
           8910      1.64609e+7 
           8930      1.65365e+7 
           8950      1.65699e+7 
           8970       1.6225e+7 
           8990      1.52551e+7 
           9010      1.18741e+7 
           9030        1.302e+7 
           9050      1.52426e+7 
           9070      1.54094e+7 
           9090        1.537e+7 
           9110      1.55622e+7 
           9130      1.55208e+7 
           9150      1.54526e+7 
           9170      1.51917e+7 
           9190        1.468e+7 
           9210      1.34154e+7 
