# Kurucz ODFNEW /NOVER (2003)
# teff = 21000 K (value for the effective temperature for the model. Temperatures are given in K)
# logg = 3.5 log(cm/s2) (value for Log(G) for the model.)
# meta = -0.5  (value for the Metallicity for the model.)
# lh = 1.25  (l/Hp where l is the  mixing length of the convective element and Hp is the pressure scale height)
# vtur = 2 km/s (Microturbulence velocity)
# alpha = 0.4  (Alpha)
#
# column 1: WAVELENGTH (ANGSTROM), Wavelength in Angstrom
# column 2: FLUX (ERG/CM2/S/A), Flux in erg/cm2/s/A
          147.2     6.61333e-19 
            151     3.72731e-18 
          155.2     2.30085e-17 
          158.8      1.0215e-16 
            162     3.64815e-16 
            166     1.68035e-15 
          170.3     8.04987e-15 
          173.4     2.38498e-14 
          176.8     7.52887e-14 
          180.2     2.28216e-13 
          181.7     3.67591e-13 
          186.1     1.42944e-12 
            191      6.0525e-12 
          193.9     1.37597e-11 
          198.4     4.70355e-11 
          201.8     1.15008e-10 
            205     2.59941e-10 
          210.5      9.9823e-10 
          216.2      3.75461e-9 
          219.8      8.37488e-9 
            223       1.6724e-8 
          226.8      3.70803e-8 
            230      7.93767e-7 
            234      1.99579e-6 
            240      5.66775e-6 
          246.5      1.65411e-5 
          252.4      4.21745e-5 
          256.8      7.94176e-5 
            260     0.000131242 
            264     0.000231126 
          268.5     0.000428164 
          273.5     0.000826312 
          278.5      0.00156866 
            284      0.00312725 
            290      0.00632511 
            296       0.0124199 
            301       0.0213436 
            308       0.0437633 
            318        0.120704 
            328        0.298893 
            338        0.723358 
            348          1.6345 
            357         3.59824 
            366         7.05222 
            375          12.915 
            385         24.8589 
            395         46.0526 
            405         82.4154 
            414         136.778 
            422         206.993 
            430         311.652 
            441          533.42 
            451         850.841 
            460         1259.92 
            470         1927.14 
            480         2876.65 
            490         4242.72 
            500         6153.05 
            506         56033.6 
            512          272921 
            520          341327 
            530          478724 
            540          535483 
            550          803772 
            560          976205 
            570      1.24916e+6 
            580      1.25203e+6 
            590       1.7251e+6 
            600      2.14621e+6 
            610      2.65492e+6 
            620      3.06715e+6 
            630      3.59568e+6 
            640      3.91795e+6 
            650       4.0199e+6 
            658      5.32059e+6 
            665      5.85678e+6 
            675      6.41819e+6 
            685      7.16952e+6 
            695      8.71424e+6 
            705      9.54586e+6 
            716      1.10434e+7 
            726      1.20572e+7 
            735      1.32275e+7 
            745      1.51852e+7 
            755       1.6884e+7 
            765      1.86818e+7 
            775      2.07763e+7 
            785      2.28926e+7 
            795      2.46343e+7 
            805      2.67665e+7 
            815      2.87284e+7 
            825      3.17236e+7 
            835       3.1929e+7 
            845      3.58883e+7 
            855      3.85323e+7 
            865      4.18034e+7 
            875      4.53852e+7 
            885       4.9538e+7 
            895      5.30085e+7 
            905      5.45252e+7 
            915      9.38196e+7 
            925      8.21815e+8 
            935       2.6818e+9 
            945      6.53415e+9 
            955      8.84422e+9 
            965     1.07198e+10 
            975      2.03276e+9 
            985     1.04419e+10 
            995      9.96976e+9 
           1005     1.14743e+10 
           1015     1.11539e+10 
           1025      4.49476e+9 
           1035      8.21175e+9 
           1045     1.33846e+10 
           1055     1.24352e+10 
           1065     1.02291e+10 
           1075     1.19905e+10 
           1085     1.07544e+10 
           1095     1.21946e+10 
           1105     1.04865e+10 
           1115      9.86198e+9 
           1125      8.91232e+9 
           1135     1.14254e+10 
           1145     1.01672e+10 
           1155     1.07569e+10 
           1165     1.09394e+10 
           1175      7.80295e+9 
           1185     1.07498e+10 
           1195      8.64695e+9 
           1205      4.42286e+9 
           1215      3.32497e+9 
           1225      8.11715e+9 
           1235      9.94048e+9 
           1245     1.00865e+10 
           1255      9.80509e+9 
           1265      9.49083e+9 
           1275      9.91078e+9 
           1285       9.7334e+9 
           1295      6.18056e+9 
           1305      6.40121e+9 
           1315      9.33618e+9 
           1325      8.82757e+9 
           1335      8.22443e+9 
           1345      8.65112e+9 
           1355      8.59592e+9 
           1365      7.89217e+9 
           1375      7.79253e+9 
           1385      7.76015e+9 
           1395      6.04521e+9 
           1405       6.5547e+9 
           1415      7.07822e+9 
           1425      7.10037e+9 
           1435      7.22404e+9 
           1442      7.41569e+9 
           1447      7.25891e+9 
           1455      7.08659e+9 
           1465      6.68756e+9 
           1475      6.66524e+9 
           1485       6.5165e+9 
           1495      6.43045e+9 
           1505      5.95542e+9 
           1512      5.43323e+9 
           1517       5.6283e+9 
           1525      5.76606e+9 
           1535      5.13029e+9 
           1545       5.2115e+9 
           1555      4.95897e+9 
           1565      5.18267e+9 
           1575      5.42384e+9 
           1585      5.35172e+9 
           1595        5.383e+9 
           1605      5.32037e+9 
           1615      5.25007e+9 
           1625      5.13258e+9 
           1635      5.32929e+9 
           1645        5.275e+9 
           1655      5.11682e+9 
           1665      5.26033e+9 
           1672      5.08108e+9 
           1677       5.2815e+9 
           1685      5.21435e+9 
           1695      4.96982e+9 
           1705      4.77096e+9 
           1715      4.53655e+9 
           1725      4.49917e+9 
           1735      4.62917e+9 
           1745      4.51688e+9 
           1755      4.56487e+9 
           1765      4.38063e+9 
           1775      4.25703e+9 
           1785      4.25854e+9 
           1795      4.39362e+9 
           1805      4.38936e+9 
           1815      3.99599e+9 
           1825      4.14709e+9 
           1835      4.00132e+9 
           1845       3.6929e+9 
           1855      3.63709e+9 
           1865      3.69123e+9 
           1875      3.86853e+9 
           1885      3.50019e+9 
           1895      3.26591e+9 
           1905      3.51875e+9 
           1915      3.33334e+9 
           1925      3.20659e+9 
           1935      3.35092e+9 
           1945      3.38268e+9 
           1955      3.11859e+9 
           1967      3.34774e+9 
           1976      3.47487e+9 
           1984      3.23396e+9 
           1995      3.16224e+9 
           2005      3.24726e+9 
           2015      3.19868e+9 
           2025      3.30369e+9 
           2035      3.04642e+9 
           2045      3.08228e+9 
           2055      2.98554e+9 
           2065      3.01792e+9 
           2074      3.13007e+9 
           2078      2.89233e+9 
           2085      3.00137e+9 
           2095      2.84472e+9 
           2105      2.91043e+9 
           2115      2.90673e+9 
           2125      2.94592e+9 
           2135       2.8836e+9 
           2145      2.74697e+9 
           2155      2.84695e+9 
           2165      2.82184e+9 
           2175      2.78162e+9 
           2185      2.71258e+9 
           2195      2.73342e+9 
           2205      2.69947e+9 
           2215       2.6561e+9 
           2225      2.58716e+9 
           2235      2.57673e+9 
           2245       2.5829e+9 
           2255      2.50374e+9 
           2265      2.53014e+9 
           2275      2.49718e+9 
           2285      2.49499e+9 
           2295      2.37731e+9 
           2305      2.41473e+9 
           2315      2.35265e+9 
           2325      2.32646e+9 
           2335      2.24342e+9 
           2345       2.2355e+9 
           2355      2.24889e+9 
           2365      2.20566e+9 
           2375      2.18339e+9 
           2385      2.15452e+9 
           2395      2.15331e+9 
           2405      2.10796e+9 
           2415      2.08414e+9 
           2425      2.09428e+9 
           2435      2.03607e+9 
           2445      2.03671e+9 
           2455      2.03403e+9 
           2465      1.99282e+9 
           2475      1.97017e+9 
           2485       1.9541e+9 
           2495      1.83771e+9 
           2505      1.91012e+9 
           2513      1.83581e+9 
           2518      1.88088e+9 
           2525      1.84925e+9 
           2535      1.82208e+9 
           2545      1.76772e+9 
           2555      1.80267e+9 
           2565      1.76958e+9 
           2575      1.78148e+9 
           2585      1.76384e+9 
           2595      1.74826e+9 
           2605      1.73769e+9 
           2615      1.71809e+9 
           2625      1.70081e+9 
           2635      1.68218e+9 
           2645      1.68413e+9 
           2655      1.66986e+9 
           2665      1.62792e+9 
           2675      1.62851e+9 
           2685      1.62037e+9 
           2695      1.57922e+9 
           2705      1.57364e+9 
           2715      1.55818e+9 
           2725      1.53277e+9 
           2735      1.53351e+9 
           2745      1.48496e+9 
           2755      1.48105e+9 
           2765      1.46977e+9 
           2775      1.47725e+9 
           2785      1.45549e+9 
           2795      1.40159e+9 
           2805      1.41948e+9 
           2815      1.41831e+9 
           2825       1.3945e+9 
           2835      1.35548e+9 
           2845      1.36686e+9 
           2855      1.35416e+9 
           2865      1.34959e+9 
           2875      1.33365e+9 
           2885      1.32252e+9 
           2895      1.30733e+9 
           2910      1.28579e+9 
           2930      1.25812e+9 
           2950      1.22817e+9 
           2970      1.21404e+9 
           2990      1.18652e+9 
           3010       1.1619e+9 
           3030      1.14793e+9 
           3050      1.12632e+9 
           3070      1.10598e+9 
           3090      1.07577e+9 
           3110      1.06256e+9 
           3130      1.04349e+9 
           3150      1.02428e+9 
           3170      1.00367e+9 
           3190      9.78095e+8 
           3210      9.68248e+8 
           3230      9.49939e+8 
           3250      9.34004e+8 
           3270      9.17646e+8 
           3290      9.00049e+8 
           3310      8.85904e+8 
           3330      8.69723e+8 
           3350      8.52924e+8 
           3370      8.39082e+8 
           3390      8.25047e+8 
           3410      8.11024e+8 
           3430      7.92852e+8 
           3450      7.76406e+8 
           3470      7.65073e+8 
           3490      7.52061e+8 
           3510      7.43087e+8 
           3530      7.31939e+8 
           3550      7.19769e+8 
           3570      7.10693e+8 
           3590      6.93734e+8 
           3610      6.82455e+8 
           3630      6.71983e+8 
           3640      6.70798e+8 
           3650      6.58106e+8 
           3670       6.5045e+8 
           3690      6.31797e+8 
           3710      6.18353e+8 
           3730      6.08301e+8 
           3750      6.70438e+8 
           3770      6.75563e+8 
           3790      7.05274e+8 
           3810      7.33444e+8 
           3830      6.45059e+8 
           3850      7.46063e+8 
           3870       7.4144e+8 
           3890      6.15107e+8 
           3910      7.34135e+8 
           3930      7.09851e+8 
           3950      7.08766e+8 
           3970      5.71611e+8 
           3990      6.81966e+8 
           4010       6.7593e+8 
           4030      6.41704e+8 
           4050      6.58854e+8 
           4070      6.38181e+8 
           4090       6.0198e+8 
           4110       5.3224e+8 
           4130      6.01993e+8 
           4150      5.98086e+8 
           4170      5.93749e+8 
           4190      5.87322e+8 
           4210      5.80267e+8 
           4230      5.69635e+8 
           4250      5.58363e+8 
           4270      5.43495e+8 
           4290      5.39422e+8 
           4310        5.281e+8 
           4330      4.88913e+8 
           4350      4.46122e+8 
           4370      5.02887e+8 
           4390      4.89734e+8 
           4410      4.91288e+8 
           4430       4.8331e+8 
           4450      4.78291e+8 
           4470      4.55034e+8 
           4490      4.61248e+8 
           4510      4.58222e+8 
           4530      4.50128e+8 
           4550      4.43341e+8 
           4570      4.36546e+8 
           4590      4.30229e+8 
           4610      4.23118e+8 
           4630      4.16975e+8 
           4650      4.07803e+8 
           4670      4.04715e+8 
           4690      4.00517e+8 
           4710      3.86662e+8 
           4730      3.86194e+8 
           4750      3.80311e+8 
           4770       3.7842e+8 
           4790      3.72442e+8 
           4810      3.65395e+8 
           4830      3.59064e+8 
           4850       3.3814e+8 
           4870       3.0298e+8 
           4890      3.44494e+8 
           4910      3.41052e+8 
           4930      3.29347e+8 
           4950      3.31611e+8 
           4970      3.28063e+8 
           4990      3.23139e+8 
           5010      3.12309e+8 
           5030      3.13821e+8 
           5050      3.05756e+8 
           5070      3.05781e+8 
           5090      3.01391e+8 
           5110      2.97002e+8 
           5130      2.92229e+8 
           5150      2.88458e+8 
           5170      2.85497e+8 
           5190      2.81679e+8 
           5210      2.76203e+8 
           5230      2.74302e+8 
           5250      2.70698e+8 
           5270      2.66898e+8 
           5290      2.63699e+8 
           5310      2.60113e+8 
           5330      2.56441e+8 
           5350      2.52618e+8 
           5370      2.50165e+8 
           5390      2.46847e+8 
           5410      2.43635e+8 
           5430       2.3985e+8 
           5450      2.37015e+8 
           5470      2.33938e+8 
           5490      2.31387e+8 
           5510      2.28419e+8 
           5530      2.25403e+8 
           5550      2.22754e+8 
           5570      2.19809e+8 
           5590      2.17214e+8 
           5610       2.1416e+8 
           5630      2.11892e+8 
           5650      2.07964e+8 
           5670      2.05433e+8 
           5690      2.03177e+8 
           5710      2.01317e+8 
           5730      1.98962e+8 
           5750      1.96258e+8 
           5770      1.94244e+8 
           5790       1.9187e+8 
           5810       1.8948e+8 
           5830      1.87096e+8 
           5850      1.84938e+8 
           5870      1.77809e+8 
           5890      1.79644e+8 
           5910      1.78225e+8 
           5930      1.76083e+8 
           5950      1.73666e+8 
           5970      1.72135e+8 
           5990      1.69801e+8 
           6010      1.68099e+8 
           6030      1.66064e+8 
           6050      1.64154e+8 
           6070      1.62267e+8 
           6090      1.60319e+8 
           6110      1.58524e+8 
           6130       1.5672e+8 
           6150      1.54467e+8 
           6170      1.53022e+8 
           6190      1.51366e+8 
           6210       1.4964e+8 
           6230      1.47934e+8 
           6250      1.46082e+8 
           6270      1.44538e+8 
           6290      1.42916e+8 
           6310      1.41169e+8 
           6330      1.39752e+8 
           6350      1.37621e+8 
           6370      1.36303e+8 
           6390      1.35045e+8 
           6410      1.33526e+8 
           6430      1.32177e+8 
           6450       1.3067e+8 
           6470      1.29099e+8 
           6490       1.2775e+8 
           6510      1.26344e+8 
           6530      1.24617e+8 
           6550      1.20099e+8 
           6570      1.06905e+8 
           6590      1.19556e+8 
           6610      1.19575e+8 
           6630      1.18418e+8 
           6650      1.17187e+8 
           6670      1.14952e+8 
           6690      1.13778e+8 
           6710      1.13511e+8 
           6730      1.12246e+8 
           6750      1.11144e+8 
           6770       1.0997e+8 
           6790      1.08457e+8 
           6810       1.0761e+8 
           6830      1.06456e+8 
           6850       1.0541e+8 
           6870       1.0431e+8 
           6890      1.03205e+8 
           6910      1.02127e+8 
           6930      1.01044e+8 
           6950      1.00058e+8 
           6970       9.9035e+7 
           6990      9.79911e+7 
           7010      9.69881e+7 
           7030      9.60025e+7 
           7050      9.50114e+7 
           7070      9.25904e+7 
           7090      9.31255e+7 
           7110      9.20508e+7 
           7130      9.11646e+7 
           7150      9.03016e+7 
           7170      8.94028e+7 
           7190      8.85344e+7 
           7210      8.76526e+7 
           7230       8.5936e+7 
           7250      8.58495e+7 
           7270      8.50642e+7 
           7290       8.3556e+7 
           7310      8.33744e+7 
           7330      8.25694e+7 
           7350       8.1772e+7 
           7370      8.09682e+7 
           7390      8.01787e+7 
           7410      7.93965e+7 
           7430      7.85807e+7 
           7450      7.78607e+7 
           7470      7.70257e+7 
           7490       7.6353e+7 
           7510      7.56063e+7 
           7530      7.48995e+7 
           7550      7.41992e+7 
           7570      7.34987e+7 
           7590      7.27849e+7 
           7610      7.20906e+7 
           7630      7.14219e+7 
           7650      7.07464e+7 
           7670      7.00834e+7 
           7690      6.94199e+7 
           7710      6.87687e+7 
           7730      6.81169e+7 
           7750      6.74836e+7 
           7770      6.64876e+7 
           7790      6.62398e+7 
           7810      6.55736e+7 
           7830      6.50179e+7 
           7850      6.43874e+7 
           7870      6.38051e+7 
           7890      6.30887e+7 
           7910      6.26918e+7 
           7930      6.20345e+7 
           7950      6.13413e+7 
           7970      6.08144e+7 
           7990      6.01739e+7 
           8010      5.97329e+7 
           8030       5.9202e+7 
           8050      5.86989e+7 
           8070       5.8229e+7 
           8090      5.75788e+7 
           8110      5.70884e+7 
           8130      5.66956e+7 
           8150      5.60904e+7 
           8170      5.57185e+7 
           8190      5.51187e+7 
           8210      5.44268e+7 
           8230      5.40536e+7 
           8250      5.36917e+7 
           8270      5.28908e+7 
           8290      5.26825e+7 
           8310       5.2229e+7 
           8330      5.17831e+7 
           8350      5.10722e+7 
           8370      5.07257e+7 
           8390      5.03777e+7 
           8410      4.99083e+7 
           8430      4.93934e+7 
           8450      4.85674e+7 
           8470      4.83042e+7 
           8490      4.81923e+7 
           8510       4.7217e+7 
           8530      4.76042e+7 
           8550      4.56373e+7 
           8570      4.75769e+7 
