# Kurucz ODFNEW /NOVER (2003)
# teff = 7500 K (value for the effective temperature for the model. Temperatures are given in K)
# logg = 0.5 log(cm/s2) (value for Log(G) for the model.)
# meta = -1.5  (value for the Metallicity for the model.)
# lh = 1.25  (l/Hp where l is the  mixing length of the convective element and Hp is the pressure scale height)
# vtur = 2 km/s (Microturbulence velocity)
# alpha = 0.4  (Alpha)
#
# column 1: WAVELENGTH (ANGSTROM), Wavelength in Angstrom
# column 2: FLUX (ERG/CM2/S/A), Flux in erg/cm2/s/A
            375     5.18648e-23 
            385      4.4961e-22 
            395      3.2309e-21 
            405     2.09466e-20 
            414     1.03979e-19 
            422     4.07099e-19 
            430     1.51242e-18 
            441     8.48082e-18 
            451     3.76987e-17 
            460      1.3629e-16 
            470     5.35317e-16 
            480     1.98175e-15 
            490     6.94055e-15 
            500     2.30709e-14 
            506     4.64062e-14 
            512     9.16401e-14 
            520     2.21133e-13 
            530     6.39662e-13 
            540     1.77577e-12 
            550     4.74268e-12 
            560     1.22101e-11 
            570     3.03621e-11 
            580     7.30557e-11 
            590     1.70389e-10 
            600     3.85792e-10 
            610     8.49256e-10 
            620      1.82014e-9 
            630      3.80289e-9 
            640      7.75505e-9 
            650      1.54535e-8 
            658       2.6402e-8 
            665      4.17199e-8 
            675      7.88203e-8 
            685      1.46019e-7 
            695       2.6546e-7 
            705      4.74026e-7 
            716      8.79331e-7 
            726      1.51578e-6 
            735      2.44117e-6 
            745      4.08621e-6 
            755      6.74118e-6 
            765      1.09673e-5 
            775      1.76044e-5 
            785      2.78978e-5 
            795      4.36649e-5 
            805      6.75354e-5 
            815     0.000103259 
            825     0.000156155 
            835     0.000233643 
            845     0.000346025 
            855     0.000507418 
            865      0.00073702 
            875      0.00106077 
            885      0.00151322 
            895      0.00214019 
            905      0.00300206 
            915        0.140023 
            925         0.68726 
            935        0.883923 
            945         1.29413 
            955         1.95142 
            965         2.24523 
            975         1.81809 
            985         4.08171 
            995         4.77407 
           1005         5.87571 
           1015         5.13264 
           1025         6.12305 
           1035         9.64907 
           1045          14.619 
           1055          18.744 
           1065         22.2638 
           1075         27.6073 
           1085         33.1279 
           1095         37.9581 
           1105         97.5867 
           1115         220.473 
           1125         259.595 
           1135          289.04 
           1145         292.182 
           1155         256.705 
           1165         251.393 
           1175         209.809 
           1185         812.414 
           1195          69.079 
           1205         43.2687 
           1215         12.2699 
           1225         50.8699 
           1235         129.549 
           1245         233.158 
           1255         409.732 
           1265          614.03 
           1275         943.385 
           1285         1500.58 
           1295         2114.48 
           1305         2329.36 
           1315         5093.36 
           1325         19610.4 
           1335         24243.3 
           1345         54290.8 
           1355         71165.2 
           1365         95915.9 
           1375          125085 
           1385          156515 
           1395          209599 
           1405          290254 
           1415          337871 
           1425          475071 
           1435          498623 
           1442          624185 
           1447          734204 
           1455          905599 
           1465          918923 
           1475          997293 
           1485      1.17724e+6 
           1495      1.43479e+6 
           1505      1.63111e+6 
           1512      1.60105e+6 
           1517       1.3506e+6 
           1525      1.31706e+6 
           1535      1.67801e+6 
           1545      2.65633e+6 
           1555      2.60545e+6 
           1565       2.4749e+6 
           1575      3.04892e+6 
           1585      3.32398e+6 
           1595      3.97102e+6 
           1605      3.72602e+6 
           1615      3.73577e+6 
           1625      3.57551e+6 
           1635      4.00247e+6 
           1645      4.43523e+6 
           1655      3.37458e+6 
           1665      4.71295e+6 
           1672      2.69558e+6 
           1677      4.74621e+6 
           1685      5.37185e+6 
           1695      5.20283e+6 
           1705      5.04116e+6 
           1715      5.60158e+6 
           1725      5.62861e+6 
           1735      6.18579e+6 
           1745      5.94176e+6 
           1755       6.7357e+6 
           1765      5.94972e+6 
           1775      6.61143e+6 
           1785      6.57137e+6 
           1795      7.49641e+6 
           1805      6.93834e+6 
           1815      7.20586e+6 
           1825      6.75825e+6 
           1835      6.86056e+6 
           1845      6.45095e+6 
           1855      6.87556e+6 
           1865      6.94933e+6 
           1875      7.25142e+6 
           1885      7.45258e+6 
           1895      7.46068e+6 
           1905      6.95798e+6 
           1915      7.57244e+6 
           1925      7.82764e+6 
           1935      7.45545e+6 
           1945      8.21062e+6 
           1955      8.22087e+6 
           1967       8.4158e+6 
           1976      8.19584e+6 
           1984      8.15323e+6 
           1995      8.05335e+6 
           2005      7.97593e+6 
           2015      7.77031e+6 
           2025      7.62458e+6 
           2035      8.09692e+6 
           2045      8.41051e+6 
           2055      7.93027e+6 
           2065      7.91682e+6 
           2074      8.63027e+6 
           2078       8.8972e+6 
           2085       8.7301e+6 
           2095      8.50988e+6 
           2105      8.33969e+6 
           2115       8.3833e+6 
           2125      8.51049e+6 
           2135      7.10461e+6 
           2145      8.16264e+6 
           2155      8.31818e+6 
           2165      8.01566e+6 
           2175      8.02176e+6 
           2185      8.12132e+6 
           2195      8.74496e+6 
           2205      8.42794e+6 
           2215      7.67515e+6 
           2225      7.69344e+6 
           2235      8.71831e+6 
           2245      7.88437e+6 
           2255      7.70717e+6 
           2265      7.67819e+6 
           2275      8.41152e+6 
           2285      8.67573e+6 
           2295      8.11964e+6 
           2305      8.28333e+6 
           2315      8.16271e+6 
           2325      8.10937e+6 
           2335      7.48315e+6 
           2345      6.58414e+6 
           2355      8.10854e+6 
           2365      6.86141e+6 
           2375      7.80291e+6 
           2385      6.16161e+6 
           2395      7.12276e+6 
           2405      6.83959e+6 
           2415      7.25137e+6 
           2425      8.25578e+6 
           2435       8.0407e+6 
           2445      8.50127e+6 
           2455      8.25651e+6 
           2465      8.21446e+6 
           2475      7.84932e+6 
           2485      8.34936e+6 
           2495      8.19724e+6 
           2505      9.04327e+6 
           2513       8.1375e+6 
           2518      8.29772e+6 
           2525      7.72412e+6 
           2535      7.54488e+6 
           2545      7.78234e+6 
           2555       8.2819e+6 
           2565        8.206e+6 
           2575      8.78839e+6 
           2585      8.70305e+6 
           2595      8.47107e+6 
           2605      8.06029e+6 
           2615      7.96185e+6 
           2625      8.71429e+6 
           2635      8.94561e+6 
           2645      1.02297e+7 
           2655      1.01699e+7 
           2665      9.46037e+6 
           2675      9.79727e+6 
           2685      9.86552e+6 
           2695      9.43765e+6 
           2705      9.64346e+6 
           2715       9.1642e+6 
           2725      9.29949e+6 
           2735      1.00168e+7 
           2745      8.26252e+6 
           2755      8.67964e+6 
           2765      9.09544e+6 
           2775      9.83967e+6 
           2785      9.36016e+6 
           2795      5.14264e+6 
           2805      6.19868e+6 
           2815      1.00274e+7 
           2825      1.03224e+7 
           2835      1.01058e+7 
           2845      9.90552e+6 
           2855      9.48361e+6 
           2865       1.0083e+7 
           2875       9.9182e+6 
           2885      1.01945e+7 
           2895      9.93986e+6 
           2910      1.08715e+7 
           2930      1.06183e+7 
           2950      1.06419e+7 
           2970       1.0907e+7 
           2990      1.10519e+7 
           3010       1.1288e+7 
           3030      1.13106e+7 
           3050      1.12474e+7 
           3070      1.11157e+7 
           3090      1.14612e+7 
           3110       1.1255e+7 
           3130      1.12524e+7 
           3150      1.14801e+7 
           3170      1.15464e+7 
           3190      1.11733e+7 
           3210      1.14915e+7 
           3230        1.128e+7 
           3250      1.15332e+7 
           3270      1.16096e+7 
           3290      1.18444e+7 
           3310      1.19692e+7 
           3330      1.17627e+7 
           3350      1.16122e+7 
           3370      1.17511e+7 
           3390      1.17938e+7 
           3410      1.20998e+7 
           3430      1.22075e+7 
           3450      1.21778e+7 
           3470      1.20813e+7 
           3490      1.20896e+7 
           3510      1.22922e+7 
           3530      1.24233e+7 
           3550      1.25019e+7 
           3570      1.23253e+7 
           3590      1.23445e+7 
           3610      1.24272e+7 
           3630      1.24616e+7 
           3640      1.23702e+7 
           3650       1.2607e+7 
           3670      1.26982e+7 
           3690      1.45461e+7 
           3710      2.10621e+7 
           3730      3.71208e+7 
           3750       4.8283e+7 
           3770      4.79974e+7 
           3790      5.18563e+7 
           3810      5.60159e+7 
           3830      4.75454e+7 
           3850      5.68532e+7 
           3870      5.71651e+7 
           3890      4.68618e+7 
           3910      5.57796e+7 
           3930      4.93471e+7 
           3950      5.57253e+7 
           3970      4.29222e+7 
           3990      5.50277e+7 
           4010      5.45856e+7 
           4030      5.39524e+7 
           4050      5.35747e+7 
           4070      5.27925e+7 
           4090      5.18563e+7 
           4110      4.32839e+7 
           4130      5.16628e+7 
           4150      5.16582e+7 
           4170      5.03493e+7 
           4190      5.03333e+7 
           4210        4.992e+7 
           4230      4.92006e+7 
           4250      4.88054e+7 
           4270      4.84939e+7 
           4290      4.77071e+7 
           4310      4.62128e+7 
           4330      4.44507e+7 
           4350       3.9189e+7 
           4370      4.64182e+7 
           4390      4.53101e+7 
           4410      4.47199e+7 
           4430      4.52558e+7 
           4450      4.44732e+7 
           4470      4.40987e+7 
           4490      4.35815e+7 
           4510        4.332e+7 
           4530      4.27235e+7 
           4550      4.17864e+7 
           4570      4.21304e+7 
           4590      4.15334e+7 
           4610      4.19024e+7 
           4630      4.09893e+7 
           4650      4.10591e+7 
           4670      4.06425e+7 
           4690      4.03052e+7 
           4710      3.95663e+7 
           4730      3.95641e+7 
           4750        3.927e+7 
           4770      3.88172e+7 
           4790      3.84363e+7 
           4810       3.8075e+7 
           4830       3.7657e+7 
           4850      3.53963e+7 
           4870      2.95863e+7 
           4890      3.65463e+7 
           4910      3.63461e+7 
           4930      3.56937e+7 
           4950       3.5698e+7 
           4970      3.54174e+7 
           4990      3.50009e+7 
           5010      3.42672e+7 
           5030      3.43318e+7 
           5050      3.39599e+7 
           5070      3.37468e+7 
           5090      3.34472e+7 
           5110      3.31296e+7 
           5130      3.27329e+7 
           5150      3.24323e+7 
           5170      3.17309e+7 
           5190      3.14126e+7 
           5210      3.15231e+7 
           5230      3.09546e+7 
           5250       3.0994e+7 
           5270      3.03672e+7 
           5290      3.04234e+7 
           5310      2.99221e+7 
           5330      2.96993e+7 
           5350      2.96395e+7 
           5370      2.93081e+7 
           5390      2.90288e+7 
           5410      2.87682e+7 
           5430      2.84659e+7 
           5450      2.82955e+7 
           5470      2.80373e+7 
           5490      2.77834e+7 
           5510      2.75287e+7 
           5530      2.72117e+7 
           5550      2.70612e+7 
           5570       2.6804e+7 
           5590      2.65571e+7 
           5610      2.63262e+7 
           5630      2.60955e+7 
           5650       2.5832e+7 
           5670      2.56068e+7 
           5690      2.53991e+7 
           5710      2.51718e+7 
           5730      2.49528e+7 
           5750       2.4726e+7 
           5770      2.45096e+7 
           5790      2.42889e+7 
           5810      2.40762e+7 
           5830      2.38603e+7 
           5850      2.36512e+7 
           5870      2.34291e+7 
           5890      2.31421e+7 
           5910       2.3031e+7 
           5930      2.28299e+7 
           5950      2.26203e+7 
           5970       2.2433e+7 
           5990      2.22184e+7 
           6010      2.20394e+7 
           6030        2.185e+7 
           6050      2.16584e+7 
           6070       2.1476e+7 
           6090      2.12885e+7 
           6110      2.11009e+7 
           6130      2.09143e+7 
           6150       2.0661e+7 
           6170       2.0553e+7 
           6190      2.03919e+7 
           6210      2.02177e+7 
           6230      2.00386e+7 
           6250      1.97949e+7 
           6270        1.971e+7 
           6290       1.9542e+7 
           6310      1.93644e+7 
           6330      1.92112e+7 
           6350      1.89745e+7 
           6370      1.88342e+7 
           6390      1.87303e+7 
           6410      1.85623e+7 
           6430       1.8416e+7 
           6450      1.82096e+7 
           6470      1.81143e+7 
           6490      1.79268e+7 
           6510      1.77519e+7 
           6530      1.75303e+7 
           6550      1.63705e+7 
           6570      1.30191e+7 
           6590      1.69583e+7 
           6610      1.70171e+7 
           6630      1.69386e+7 
           6650      1.68224e+7 
           6670      1.66827e+7 
           6690      1.65486e+7 
           6710      1.64158e+7 
           6730      1.62784e+7 
           6750      1.61482e+7 
           6770      1.60242e+7 
           6790      1.58923e+7 
           6810      1.57674e+7 
           6830      1.56365e+7 
           6850      1.55148e+7 
           6870      1.53926e+7 
           6890      1.52701e+7 
           6910      1.51487e+7 
           6930      1.50284e+7 
           6950      1.49101e+7 
           6970      1.47921e+7 
           6990      1.46767e+7 
           7010      1.45486e+7 
           7030      1.44461e+7 
           7050      1.43339e+7 
           7070      1.42221e+7 
           7090      1.41127e+7 
           7110      1.39872e+7 
           7130      1.38911e+7 
           7150      1.37818e+7 
           7170      1.36786e+7 
           7190       1.3572e+7 
           7210      1.34657e+7 
           7230      1.33596e+7 
           7250      1.32609e+7 
           7270      1.31616e+7 
           7290      1.30576e+7 
           7310      1.29531e+7 
           7330      1.28594e+7 
           7350       1.2763e+7 
           7370       1.2671e+7 
           7390      1.25735e+7 
           7410      1.24748e+7 
           7430      1.23784e+7 
           7450      1.22883e+7 
           7470      1.21888e+7 
           7490      1.21037e+7 
           7510      1.20139e+7 
           7530      1.19282e+7 
           7550       1.1842e+7 
           7570      1.17506e+7 
           7590      1.16665e+7 
           7610      1.15805e+7 
           7630      1.14953e+7 
           7650      1.14076e+7 
           7670      1.13245e+7 
           7690      1.12421e+7 
           7710      1.11547e+7 
           7730      1.10794e+7 
           7750      1.09985e+7 
           7770      1.07628e+7 
           7790      1.08399e+7 
           7810      1.07609e+7 
           7830      1.06821e+7 
           7850      1.06027e+7 
           7870       1.0516e+7 
           7890      1.04288e+7 
           7910      1.03768e+7 
           7930      1.03017e+7 
           7950      1.02231e+7 
           7970      1.01583e+7 
           7990      1.00614e+7 
           8010      1.00136e+7 
           8030      9.94218e+6 
           8050      9.87191e+6 
           8070      9.80221e+6 
           8090      9.73308e+6 
           8110      9.66452e+6 
           8130      9.59708e+6 
           8150      9.52961e+6 
           8170      9.46326e+6 
           8190      9.38284e+6 
           8210      9.36457e+6 
           8230      9.30242e+6 
           8250      9.22527e+6 
           8270      9.18511e+6 
           8290      9.10247e+6 
           8310       8.9867e+6 
           8330      8.87845e+6 
           8350       8.9262e+6 
           8370      8.65774e+6 
           8390      8.79901e+6 
           8410      8.77266e+6 
           8430      9.06453e+6 
           8450      8.94358e+6 
           8470      8.67402e+6 
           8490      9.47415e+6 
           8510      8.57602e+6 
           8530       9.6449e+6 
           8550      8.37795e+6 
           8570      9.84335e+6 
           8590      9.38555e+6 
           8610      9.12195e+6 
           8630      1.01091e+7 
           8650       9.9763e+6 
           8670      8.28045e+6 
           8690      9.89914e+6 
           8710      9.90736e+6 
           8730      9.78639e+6 
           8750      8.23158e+6 
           8770      9.56801e+6 
           8790      9.63569e+6 
           8810      9.55753e+6 
           8830      9.48577e+6 
           8850       9.2188e+6 
           8870      7.96009e+6 
           8890      9.26664e+6 
           8910      9.19661e+6 
           8930      9.12429e+6 
           8950      9.11694e+6 
           8970      9.05245e+6 
           8990      8.95675e+6 
           9010      7.76058e+6 
           9030      8.48117e+6 
           9050      8.79192e+6 
           9070       8.6845e+6 
           9090      8.57292e+6 
           9110      8.59524e+6 
           9130      8.56486e+6 
           9150      8.50946e+6 
           9170      8.44953e+6 
           9190      8.38737e+6 
           9210      8.23995e+6 
           9230      6.91745e+6 
           9250      8.05656e+6 
           9270       8.0534e+6 
           9290      8.11261e+6 
           9310      8.05867e+6 
           9330      8.00295e+6 
           9350      7.95065e+6 
           9370      7.89787e+6 
           9390      7.84033e+6 
           9410      7.73046e+6 
           9430      7.73244e+6 
           9450      7.68667e+6 
