# Kurucz ODFNEW /NOVER (2003)
# teff = 21000 K (value for the effective temperature for the model. Temperatures are given in K)
# logg = 3.5 log(cm/s2) (value for Log(G) for the model.)
# meta = -2.5  (value for the Metallicity for the model.)
# lh = 1.25  (l/Hp where l is the  mixing length of the convective element and Hp is the pressure scale height)
# vtur = 2 km/s (Microturbulence velocity)
# alpha = 0  (Alpha)
#
# column 1: WAVELENGTH (ANGSTROM), Wavelength in Angstrom
# column 2: FLUX (ERG/CM2/S/A), Flux in erg/cm2/s/A
          147.2     6.12146e-19 
            151     4.04405e-18 
          155.2      2.9213e-17 
          158.8     1.46172e-16 
            162     5.75143e-16 
            166     2.95371e-15 
          170.3     1.57059e-14 
          173.4     4.96817e-14 
          176.8     1.67477e-13 
          180.2     5.38491e-13 
          181.7     8.88578e-13 
          186.1     3.67971e-12 
            191     1.65331e-11 
          193.9     3.87629e-11 
          198.4     1.38154e-10 
          201.8      3.4705e-10 
            205       8.021e-10 
          210.5      3.18131e-9 
          216.2      1.22781e-8 
          219.8      2.77439e-8 
            223      5.59484e-8 
          226.8      1.25261e-7 
            230      3.11653e-7 
            234      7.14159e-7 
            240       2.1832e-6 
          246.5        6.874e-6 
          252.4      1.85154e-5 
          256.8      3.72798e-5 
            260      6.16922e-5 
            264     0.000112917 
          268.5     0.000217821 
          273.5     0.000440136 
          278.5     0.000866657 
            284       0.0017736 
            290      0.00374911 
            296      0.00767124 
            301       0.0136212 
            308       0.0293194 
            318       0.0831141 
            328         0.21945 
            338        0.544893 
            348          1.2795 
            357         2.63964 
            366          5.2422 
            375         10.0442 
            385         19.9066 
            395         37.9929 
            405         70.0334 
            414         118.136 
            422         184.191 
            430         282.007 
            441         492.702 
            451         797.147 
            460         1205.02 
            470          1868.3 
            480          2837.9 
            490         4229.54 
            500         6191.32 
            506         38222.4 
            512          110942 
            520          142597 
            530          212170 
            540          234500 
            550          347251 
            560          431437 
            570          537057 
            580          545631 
            590          739227 
            600          964354 
            610       1.1635e+6 
            620      1.38226e+6 
            630      1.63819e+6 
            640      1.90756e+6 
            650      2.24522e+6 
            658      2.54335e+6 
            665      2.81645e+6 
            675      3.21798e+6 
            685      3.68303e+6 
            695      4.26938e+6 
            705      4.84592e+6 
            716      5.55193e+6 
            726      6.24787e+6 
            735      6.97252e+6 
            745      7.82544e+6 
            755      8.73908e+6 
            765      9.71459e+6 
            775      1.07846e+7 
            785      1.19238e+7 
            795       1.3129e+7 
            805       1.4425e+7 
            815      1.57844e+7 
            825      1.72716e+7 
            835      1.86224e+7 
            845      2.04292e+7 
            855       2.2082e+7 
            865      2.39836e+7 
            875      2.59229e+7 
            885      2.79517e+7 
            895      3.00462e+7 
            905      3.19253e+7 
            915      6.21459e+7 
            925      6.41513e+8 
            935      2.37869e+9 
            945       7.2163e+9 
            955      9.67036e+9 
            965     1.23146e+10 
            975      5.18673e+9 
            985     1.35339e+10 
            995     1.31738e+10 
           1005     1.35601e+10 
           1015      1.2391e+10 
           1025      4.37392e+9 
           1035     1.12292e+10 
           1045     1.33581e+10 
           1055     1.30759e+10 
           1065      1.2227e+10 
           1075     1.25923e+10 
           1085      1.1853e+10 
           1095     1.23564e+10 
           1105     1.18765e+10 
           1115      1.1775e+10 
           1125     1.12183e+10 
           1135      1.1426e+10 
           1145     1.10209e+10 
           1155     1.11495e+10 
           1165     1.09925e+10 
           1175      9.89013e+9 
           1185     1.05674e+10 
           1195       9.8866e+9 
           1205       8.6309e+9 
           1215      2.88501e+9 
           1225      8.48092e+9 
           1235      9.53985e+9 
           1245      9.47617e+9 
           1255       9.3358e+9 
           1265      9.14641e+9 
           1275      9.15066e+9 
           1285      8.99259e+9 
           1295      8.44495e+9 
           1305      8.43968e+9 
           1315       8.5508e+9 
           1325      8.29668e+9 
           1335      7.99572e+9 
           1345      8.10384e+9 
           1355       8.0177e+9 
           1365      7.85334e+9 
           1375      7.72339e+9 
           1385      7.61305e+9 
           1395       7.3469e+9 
           1405      7.28392e+9 
           1415      7.23627e+9 
           1425       7.1384e+9 
           1435      7.03688e+9 
           1442      6.97108e+9 
           1447      6.91111e+9 
           1455      6.81984e+9 
           1465      6.70318e+9 
           1475      6.60083e+9 
           1485      6.49241e+9 
           1495      6.39118e+9 
           1505      6.25979e+9 
           1512        6.184e+9 
           1517      6.15182e+9 
           1525       6.0693e+9 
           1535      5.89743e+9 
           1545      5.85163e+9 
           1555      5.72629e+9 
           1565      5.70733e+9 
           1575      5.63813e+9 
           1585      5.55326e+9 
           1595      5.47659e+9 
           1605       5.3407e+9 
           1615      5.25946e+9 
           1625      5.22417e+9 
           1635      5.15891e+9 
           1645      5.04083e+9 
           1655      5.00444e+9 
           1665      4.94397e+9 
           1672      4.84094e+9 
           1677      4.86476e+9 
           1685      4.80474e+9 
           1695      4.72212e+9 
           1705      4.64409e+9 
           1715      4.56088e+9 
           1725      4.50461e+9 
           1735      4.44946e+9 
           1745      4.38054e+9 
           1755      4.33541e+9 
           1765      4.21241e+9 
           1775      4.19127e+9 
           1785      4.14775e+9 
           1795      4.09711e+9 
           1805      4.04698e+9 
           1815      3.97735e+9 
           1825      3.92811e+9 
           1835      3.87389e+9 
           1845      3.78088e+9 
           1855      3.68242e+9 
           1865      3.65744e+9 
           1875      3.65604e+9 
           1885       3.5514e+9 
           1895       3.4665e+9 
           1905      3.48885e+9 
           1915      3.39457e+9 
           1925      3.34811e+9 
           1935      3.33522e+9 
           1945      3.31645e+9 
           1955      3.21736e+9 
           1967      3.22145e+9 
           1976      3.20337e+9 
           1984      3.14036e+9 
           1995      3.06294e+9 
           2005      3.07183e+9 
           2015      3.04735e+9 
           2025      3.01668e+9 
           2035      2.96355e+9 
           2045      2.92545e+9 
           2055      2.86234e+9 
           2065      2.83168e+9 
           2074      2.83886e+9 
           2078      2.78389e+9 
           2085      2.78238e+9 
           2095      2.72868e+9 
           2105       2.7171e+9 
           2115      2.69062e+9 
           2125      2.66452e+9 
           2135       2.6297e+9 
           2145      2.59206e+9 
           2155      2.56595e+9 
           2165      2.53547e+9 
           2175      2.50321e+9 
           2185      2.47467e+9 
           2195       2.4463e+9 
           2205      2.41634e+9 
           2215      2.38758e+9 
           2225      2.35772e+9 
           2235      2.32989e+9 
           2245      2.30417e+9 
           2255      2.27548e+9 
           2265      2.25036e+9 
           2275      2.22378e+9 
           2285      2.19859e+9 
           2295      2.16094e+9 
           2305      2.14741e+9 
           2315      2.12124e+9 
           2325      2.09738e+9 
           2335      2.07124e+9 
           2345      2.04635e+9 
           2355      2.02635e+9 
           2365      2.00185e+9 
           2375      1.97981e+9 
           2385      1.95523e+9 
           2395      1.93408e+9 
           2405      1.91288e+9 
           2415      1.89062e+9 
           2425      1.87211e+9 
           2435      1.85028e+9 
           2445      1.82995e+9 
           2455      1.81063e+9 
           2465      1.78989e+9 
           2475      1.77048e+9 
           2485      1.75101e+9 
           2495      1.71927e+9 
           2505      1.71272e+9 
           2513       1.6936e+9 
           2518      1.68854e+9 
           2525      1.67541e+9 
           2535      1.65671e+9 
           2545      1.63766e+9 
           2555      1.62256e+9 
           2565      1.60455e+9 
           2575      1.58853e+9 
           2585      1.57153e+9 
           2595      1.55469e+9 
           2605      1.55094e+9 
           2615      1.53513e+9 
           2625      1.51788e+9 
           2635      1.49748e+9 
           2645      1.48386e+9 
           2655      1.46651e+9 
           2665      1.44942e+9 
           2675      1.43392e+9 
           2685       1.4276e+9 
           2695      1.40286e+9 
           2705      1.39817e+9 
           2715      1.38365e+9 
           2725      1.35911e+9 
           2735      1.35553e+9 
           2745      1.33962e+9 
           2755      1.32644e+9 
           2765      1.30376e+9 
           2775      1.30142e+9 
           2785      1.28816e+9 
           2795      1.26647e+9 
           2805      1.25942e+9 
           2815      1.24996e+9 
           2825      1.22583e+9 
           2835      1.21912e+9 
           2845      1.21294e+9 
           2855      1.20099e+9 
           2865      1.18923e+9 
           2875       1.1775e+9 
           2885      1.16601e+9 
           2895      1.15459e+9 
           2910      1.13769e+9 
           2930      1.11563e+9 
           2950      1.08748e+9 
           2970      1.07348e+9 
           2990      1.05293e+9 
           3010      1.03313e+9 
           3030      1.01379e+9 
           3050      9.94825e+8 
           3070      9.76349e+8 
           3090      9.58188e+8 
           3110      9.40645e+8 
           3130      9.24587e+8 
           3150      9.07606e+8 
           3170      8.90753e+8 
           3190      8.68142e+8 
           3210       8.5893e+8 
           3230      8.43488e+8 
           3250      8.28359e+8 
           3270      8.14628e+8 
           3290      7.99185e+8 
           3310      7.86324e+8 
           3330      7.72627e+8 
           3350       7.5789e+8 
           3370      7.46134e+8 
           3390      7.33324e+8 
           3410      7.20795e+8 
           3430      7.05529e+8 
           3450      6.91232e+8 
           3470      6.81598e+8 
           3490      6.70406e+8 
           3510      6.62451e+8 
           3530      6.52003e+8 
           3550      6.41449e+8 
           3570      6.33454e+8 
           3590      6.20131e+8 
           3610      6.10793e+8 
           3630      5.99993e+8 
           3640      5.98407e+8 
           3650      5.92842e+8 
           3670      5.85503e+8 
           3690      5.67857e+8 
           3710      5.57809e+8 
           3730      5.50869e+8 
           3750       6.1217e+8 
           3770      6.19688e+8 
           3790      6.49306e+8 
           3810      6.78425e+8 
           3830      5.92796e+8 
           3850      6.95078e+8 
           3870       6.9327e+8 
           3890      5.65265e+8 
           3910      6.81672e+8 
           3930      6.69312e+8 
           3950      6.59992e+8 
           3970      5.25455e+8 
           3990       6.3549e+8 
           4010      6.27504e+8 
           4030      5.96401e+8 
           4050      6.13447e+8 
           4070      6.01611e+8 
           4090      5.63402e+8 
           4110      4.91717e+8 
           4130      5.66058e+8 
           4150      5.59872e+8 
           4170      5.54384e+8 
           4190      5.47152e+8 
           4210      5.38458e+8 
           4230      5.29883e+8 
           4250      5.21487e+8 
           4270      5.12812e+8 
           4290      5.05176e+8 
           4310       4.9553e+8 
           4330      4.56241e+8 
           4350      4.15463e+8 
           4370      4.72053e+8 
           4390      4.56327e+8 
           4410      4.59965e+8 
           4430      4.50887e+8 
           4450      4.46102e+8 
           4470      4.23396e+8 
           4490      4.32545e+8 
           4510      4.26199e+8 
           4530      4.19782e+8 
           4550      4.13497e+8 
           4570      4.07342e+8 
           4590      4.01315e+8 
           4610      3.95394e+8 
           4630       3.8956e+8 
           4650      3.83777e+8 
           4670      3.78251e+8 
           4690       3.7272e+8 
           4710      3.62989e+8 
           4730      3.61964e+8 
           4750      3.56668e+8 
           4770      3.51713e+8 
           4790       3.4668e+8 
           4810      3.41719e+8 
           4830      3.35536e+8 
           4850      3.13828e+8 
           4870      2.79915e+8 
           4890      3.20798e+8 
           4910      3.17956e+8 
           4930      3.07507e+8 
           4950      3.09548e+8 
           4970      3.05277e+8 
           4990      3.01049e+8 
           5010      2.93593e+8 
           5030      2.92841e+8 
           5050      2.87128e+8 
           5070      2.84926e+8 
           5090      2.81063e+8 
           5110      2.77251e+8 
           5130      2.73519e+8 
           5150       2.6985e+8 
           5170      2.66244e+8 
           5190      2.62686e+8 
           5210      2.59188e+8 
           5230      2.55763e+8 
           5250      2.52397e+8 
           5270      2.49074e+8 
           5290      2.45808e+8 
           5310      2.42597e+8 
           5330       2.3944e+8 
           5350      2.36324e+8 
           5370      2.33273e+8 
           5390      2.30262e+8 
           5410      2.27301e+8 
           5430       2.2439e+8 
           5450      2.21529e+8 
           5470      2.18703e+8 
           5490      2.15937e+8 
           5510      2.13206e+8 
           5530      2.10509e+8 
           5550      2.07869e+8 
           5570      2.05262e+8 
           5590      2.02699e+8 
           5610      2.00179e+8 
           5630      1.97701e+8 
           5650      1.95242e+8 
           5670      1.92836e+8 
           5690      1.90459e+8 
           5710      1.88145e+8 
           5730      1.85847e+8 
           5750      1.83576e+8 
           5770      1.81355e+8 
           5790      1.79161e+8 
           5810      1.77003e+8 
           5830      1.74871e+8 
           5850      1.72774e+8 
           5870      1.66121e+8 
           5890      1.68568e+8 
           5910      1.66674e+8 
           5930      1.64694e+8 
           5950      1.62748e+8 
           5970      1.60835e+8 
           5990      1.58944e+8 
           6010      1.57085e+8 
           6030      1.55257e+8 
           6050       1.5345e+8 
           6070      1.51664e+8 
           6090      1.49917e+8 
           6110      1.48181e+8 
           6130      1.46483e+8 
           6150      1.44805e+8 
           6170      1.43145e+8 
           6190      1.41514e+8 
           6210       1.3991e+8 
           6230      1.38324e+8 
           6250      1.36765e+8 
           6270      1.35224e+8 
           6290      1.33698e+8 
           6310      1.32199e+8 
           6330      1.30726e+8 
           6350      1.29259e+8 
           6370      1.27836e+8 
           6390      1.26419e+8 
           6410      1.25026e+8 
           6430      1.23648e+8 
           6450      1.22285e+8 
           6470      1.20945e+8 
           6490      1.19628e+8 
           6510      1.18325e+8 
           6530      1.16692e+8 
           6550       1.1231e+8 
           6570      9.99581e+7 
           6590      1.12469e+8 
           6610      1.11996e+8 
           6630      1.10876e+8 
           6650      1.09767e+8 
           6670      1.07678e+8 
           6690      1.06556e+8 
           6710      1.06306e+8 
           6730      1.05185e+8 
           6750      1.04074e+8 
           6770      1.02984e+8 
           6790      1.01904e+8 
           6810      1.00835e+8 
           6830      9.97852e+7 
           6850      9.87457e+7 
           6870      9.77246e+7 
           6890      9.67137e+7 
           6910      9.57128e+7 
           6930      9.47297e+7 
           6950      9.37563e+7 
           6970      9.28003e+7 
           6990      9.18382e+7 
           7010      9.09163e+7 
           7030      8.99881e+7 
           7050      8.90765e+7 
           7070      8.68171e+7 
           7090      8.72873e+7 
           7110      8.64094e+7 
           7130      8.55474e+7 
           7150      8.46863e+7 
           7170      8.38261e+7 
           7190      8.30106e+7 
           7210      8.21884e+7 
           7230      8.13379e+7 
           7250      8.05672e+7 
           7270      7.97753e+7 
           7290      7.83741e+7 
           7310      7.81996e+7 
           7330      7.74509e+7 
           7350      7.66953e+7 
           7370      7.59467e+7 
           7390      7.52119e+7 
           7410       7.4484e+7 
           7430      7.37628e+7 
           7450      7.30619e+7 
           7470      7.23606e+7 
           7490      7.16658e+7 
           7510      7.09506e+7 
           7530      7.03018e+7 
           7550      6.96324e+7 
           7570      6.89757e+7 
           7590      6.83184e+7 
           7610      6.76735e+7 
           7630      6.70345e+7 
           7650      6.64076e+7 
           7670        6.578e+7 
           7690      6.51643e+7 
           7710      6.45542e+7 
           7730      6.39558e+7 
           7750      6.33564e+7 
           7770      6.27686e+7 
           7790      6.21922e+7 
           7810       6.1572e+7 
           7830      6.10533e+7 
           7850      6.05622e+7 
           7870      6.00036e+7 
           7890       5.9422e+7 
           7910      5.89154e+7 
           7930      5.83202e+7 
           7950      5.77154e+7 
           7970      5.71521e+7 
           7990       5.6658e+7 
           8010      5.61259e+7 
           8030      5.56492e+7 
           8050      5.51829e+7 
           8070      5.47131e+7 
           8090      5.41234e+7 
           8110      5.36993e+7 
           8130       5.3294e+7 
           8150      5.27169e+7 
           8170      5.23603e+7 
           8190      5.18303e+7 
           8210      5.12924e+7 
           8230      5.10084e+7 
           8250      5.05721e+7 
           8270      4.98667e+7 
           8290      4.96286e+7 
           8310      4.92144e+7 
           8330      4.87758e+7 
           8350       4.8115e+7 
           8370      4.78058e+7 
           8390      4.74513e+7 
           8410      4.70038e+7 
           8430      4.65218e+7 
           8450      4.58897e+7 
           8470      4.54548e+7 
           8490      4.54317e+7 
           8510      4.44261e+7 
           8530      4.48917e+7 
           8550      4.29039e+7 
           8570      4.49014e+7 
