# Kurucz ODFNEW /NOVER (2003)
# teff = 8250 K (value for the effective temperature for the model. Temperatures are given in K)
# logg = 5 log(cm/s2) (value for Log(G) for the model.)
# meta = 0.5  (value for the Metallicity for the model.)
# lh = 1.25  (l/Hp where l is the  mixing length of the convective element and Hp is the pressure scale height)
# vtur = 2 km/s (Microturbulence velocity)
# alpha = 0  (Alpha)
#
# column 1: WAVELENGTH (ANGSTROM), Wavelength in Angstrom
# column 2: FLUX (ERG/CM2/S/A), Flux in erg/cm2/s/A
            318     9.92862e-24 
            328      2.1835e-22 
            338     2.31144e-21 
            348     2.10364e-20 
            357     1.37524e-19 
            366     5.72254e-20 
            375     2.85122e-19 
            385     1.54695e-18 
            395     7.65628e-18 
            405     3.48422e-17 
            414     1.27504e-16 
            422     3.84189e-16 
            430      1.1078e-15 
            441     4.44352e-15 
            451     1.47396e-14 
            460     4.13405e-14 
            470     1.23712e-13 
            480     3.52334e-13 
            490     9.58424e-13 
            500      2.4941e-12 
            506     5.72651e-12 
            512     1.10943e-11 
            520     2.22555e-11 
            530     5.18194e-11 
            540     1.14414e-10 
            550     2.48853e-10 
            560     5.21415e-10 
            570      1.06086e-9 
            580      2.07392e-9 
            590      4.04998e-9 
            600      7.62071e-9 
            610      1.40517e-8 
            620      2.52842e-8 
            630      4.45716e-8 
            640      7.69922e-8 
            650      1.30718e-7 
            658      1.96934e-7 
            665       2.7834e-7 
            675      4.52654e-7 
            685      7.24427e-7 
            695      1.14113e-6 
            705       1.7547e-6 
            716      2.82193e-6 
            726      4.25407e-6 
            735      6.08569e-6 
            745      8.94404e-6 
            755      1.30072e-5 
            765      1.87237e-5 
            775      2.66447e-5 
            785      3.76152e-5 
            795      5.17124e-5 
            805      7.17502e-5 
            815      9.89487e-5 
            825     0.000134286 
            835     0.000180658 
            845     0.000241109 
            855     0.000319266 
            865     0.000419383 
            875     0.000542933 
            885     0.000707548 
            895     0.000910048 
            905      0.00115347 
            915        0.300322 
            925        0.846604 
            935         1.10128 
            945         1.45187 
            955         1.93878 
            965         2.48064 
            975         3.06615 
            985         3.85782 
            995         4.74895 
           1005         6.13606 
           1015         7.61047 
           1025         9.07521 
           1035         11.4673 
           1045          14.047 
           1055         17.1264 
           1065          20.619 
           1075         25.1363 
           1085         30.4081 
           1095          36.186 
           1105          87.476 
           1115         256.499 
           1125         364.964 
           1135          505.63 
           1145         630.112 
           1155         693.689 
           1165         935.117 
           1175         1115.87 
           1185         1188.95 
           1195         823.488 
           1205         1053.84 
           1215         335.713 
           1225         1235.48 
           1235         2107.55 
           1245          4165.1 
           1255         9183.92 
           1265         8174.11 
           1275         11451.6 
           1285         14861.1 
           1295         17275.8 
           1305         14901.3 
           1315           20288 
           1325         23022.7 
           1335         25105.8 
           1345         29619.4 
           1355         30295.9 
           1365         33050.3 
           1375         35484.5 
           1385         37485.9 
           1395         42289.6 
           1405         46764.2 
           1415         48276.9 
           1425         53336.3 
           1435         54104.8 
           1442           61904 
           1447         64848.7 
           1455           71124 
           1465         72238.1 
           1475         78292.2 
           1485         85492.6 
           1495         94784.7 
           1505          103414 
           1512          104420 
           1517          112409 
           1525          127368 
           1535          188523 
           1545          283688 
           1555          308516 
           1565          288605 
           1575          416409 
           1585          506830 
           1595          599414 
           1605          624274 
           1615          647405 
           1625          599086 
           1635          840474 
           1645      1.56482e+6 
           1655          819637 
           1665      1.66008e+6 
           1672          949578 
           1677      2.70927e+6 
           1685       4.4636e+6 
           1695      2.45469e+6 
           1705       3.9693e+6 
           1715      8.14216e+6 
           1725      9.26813e+6 
           1735      1.36726e+7 
           1745      1.27518e+7 
           1755        1.776e+7 
           1765       9.3138e+6 
           1775      1.54955e+7 
           1785      1.66395e+7 
           1795      2.32093e+7 
           1805      1.72753e+7 
           1815      1.76321e+7 
           1825       1.5702e+7 
           1835      1.44014e+7 
           1845       1.1366e+7 
           1855      1.57413e+7 
           1865      2.10589e+7 
           1875      1.92982e+7 
           1885      2.02762e+7 
           1895      2.21032e+7 
           1905      1.97852e+7 
           1915      2.24514e+7 
           1925      1.97584e+7 
           1935      1.12137e+7 
           1945      2.33097e+7 
           1955      2.44863e+7 
           1967      2.81484e+7 
           1976      2.68708e+7 
           1984      2.44734e+7 
           1995      2.52634e+7 
           2005      2.19045e+7 
           2015      2.19901e+7 
           2025      1.97744e+7 
           2035      2.48204e+7 
           2045      2.73483e+7 
           2055      2.56537e+7 
           2065      2.46522e+7 
           2074      2.95158e+7 
           2078      3.37741e+7 
           2085      3.16412e+7 
           2095      2.84455e+7 
           2105      2.58361e+7 
           2115      2.75193e+7 
           2125      2.87551e+7 
           2135      2.27093e+7 
           2145      2.84908e+7 
           2155      2.84955e+7 
           2165      2.52687e+7 
           2175      2.52495e+7 
           2185      2.87939e+7 
           2195      3.08701e+7 
           2205      2.83909e+7 
           2215         2.37e+7 
           2225       2.3836e+7 
           2235       2.9557e+7 
           2245      2.65511e+7 
           2255      2.28178e+7 
           2265      2.25411e+7 
           2275       2.5153e+7 
           2285      2.80634e+7 
           2295       2.3894e+7 
           2305      2.59788e+7 
           2315      2.44713e+7 
           2325      2.36347e+7 
           2335      1.91135e+7 
           2345      1.43128e+7 
           2355      2.30106e+7 
           2365      1.52551e+7 
           2375      1.88424e+7 
           2385      1.26492e+7 
           2395       1.5674e+7 
           2405      1.54293e+7 
           2415       1.5982e+7 
           2425      2.19755e+7 
           2435      2.06339e+7 
           2445      2.34998e+7 
           2455        2.374e+7 
           2465       2.3288e+7 
           2475      2.07841e+7 
           2485      2.03616e+7 
           2495       1.9116e+7 
           2505      2.59783e+7 
           2513      1.89457e+7 
           2518      1.86424e+7 
           2525      1.62247e+7 
           2535      1.49766e+7 
           2545      1.32701e+7 
           2555      1.61668e+7 
           2565      1.64326e+7 
           2575       2.1246e+7 
           2585      2.17297e+7 
           2595      2.11133e+7 
           2605      1.90385e+7 
           2615      1.75362e+7 
           2625      2.29965e+7 
           2635      2.48873e+7 
           2645      3.12298e+7 
           2655      3.38093e+7 
           2665        2.533e+7 
           2675      2.92755e+7 
           2685      2.92804e+7 
           2695      2.59062e+7 
           2705      2.86714e+7 
           2715      2.49213e+7 
           2725      2.54546e+7 
           2735      2.82352e+7 
           2745      1.87779e+7 
           2755      2.11052e+7 
           2765      2.35901e+7 
           2775      2.73914e+7 
           2785      2.15792e+7 
           2795      9.27546e+6 
           2805      1.22786e+7 
           2815      2.79606e+7 
           2825      3.32223e+7 
           2835      3.10225e+7 
           2845      2.89374e+7 
           2855      2.41063e+7 
           2865      3.13561e+7 
           2875      3.09319e+7 
           2885      3.04268e+7 
           2895      2.90554e+7 
           2910      3.54352e+7 
           2930      3.24386e+7 
           2950      3.23708e+7 
           2970      3.47448e+7 
           2990      3.46056e+7 
           3010      3.57548e+7 
           3030      3.52023e+7 
           3050      3.51394e+7 
           3070      3.58994e+7 
           3090      3.65102e+7 
           3110      3.53161e+7 
           3130      3.49862e+7 
           3150      3.59952e+7 
           3170      3.56403e+7 
           3190      3.27266e+7 
           3210       3.4242e+7 
           3230      3.16892e+7 
           3250      3.38848e+7 
           3270      3.53832e+7 
           3290       3.5097e+7 
           3310       3.6029e+7 
           3330       3.5183e+7 
           3350       3.4593e+7 
           3370       3.3749e+7 
           3390       3.4165e+7 
           3410      3.39533e+7 
           3430      3.38051e+7 
           3450      3.39523e+7 
           3470      3.35245e+7 
           3490      3.36796e+7 
           3510      3.43212e+7 
           3530      3.36795e+7 
           3550      3.52292e+7 
           3570      3.27546e+7 
           3590      3.23351e+7 
           3610      3.25242e+7 
           3630      3.26842e+7 
           3640      3.21978e+7 
           3650      3.45242e+7 
           3670      3.40147e+7 
           3690      3.31351e+7 
           3710      3.26639e+7 
           3730      3.04705e+7 
           3750      3.35326e+7 
           3770      3.52479e+7 
           3790      4.17379e+7 
           3810       4.7859e+7 
           3830      3.79095e+7 
           3850      5.27663e+7 
           3870      5.91698e+7 
           3890      3.62461e+7 
           3910      5.86973e+7 
           3930      4.73689e+7 
           3950      5.72827e+7 
           3970      3.27755e+7 
           3990      5.89843e+7 
           4010      6.81857e+7 
           4030      6.88398e+7 
           4050      6.75116e+7 
           4070      6.39864e+7 
           4090      5.08316e+7 
           4110      3.98449e+7 
           4130      6.14671e+7 
           4150       6.7003e+7 
           4170      6.74646e+7 
           4190       6.6968e+7 
           4210      6.71282e+7 
           4230       6.4341e+7 
           4250      6.57308e+7 
           4270       6.1604e+7 
           4290       6.2605e+7 
           4310      5.60062e+7 
           4330      4.40227e+7 
           4350      3.77954e+7 
           4370      5.76766e+7 
           4390      6.02662e+7 
           4410      6.00773e+7 
           4430      5.84073e+7 
           4450      6.04061e+7 
           4470      6.05851e+7 
           4490         5.94e+7 
           4510      6.21675e+7 
           4530      5.90385e+7 
           4550      5.85916e+7 
           4570      6.05818e+7 
           4590       5.7793e+7 
           4610      5.87764e+7 
           4630      5.70061e+7 
           4650      5.73897e+7 
           4670      5.75573e+7 
           4690      5.44351e+7 
           4710      5.14214e+7 
           4730      5.53015e+7 
           4750      5.50639e+7 
           4770      5.40037e+7 
           4790      5.32236e+7 
           4810      5.13539e+7 
           4830       4.8286e+7 
           4850      3.68601e+7 
           4870       2.9715e+7 
           4890      4.46963e+7 
           4910      4.80989e+7 
           4930      4.80737e+7 
           4950      4.95264e+7 
           4970        4.994e+7 
           4990      4.76236e+7 
           5010      4.58032e+7 
           5030      4.73679e+7 
           5050      4.63672e+7 
           5070      4.75805e+7 
           5090      4.66955e+7 
           5110      4.68688e+7 
           5130      4.57296e+7 
           5150      4.44419e+7 
           5170      4.34236e+7 
           5190      4.29092e+7 
           5210      4.34964e+7 
           5230      4.31671e+7 
           5250       4.3715e+7 
           5270       4.0055e+7 
           5290       4.2639e+7 
           5310      4.22049e+7 
           5330      3.96556e+7 
           5350      4.14142e+7 
           5370      4.11338e+7 
           5390      4.06864e+7 
           5410      3.92985e+7 
           5430      4.00317e+7 
           5450      4.02331e+7 
           5470      3.96246e+7 
           5490      3.91277e+7 
           5510      3.90576e+7 
           5530      3.86032e+7 
           5550      3.85334e+7 
           5570      3.78686e+7 
           5590      3.73847e+7 
           5610      3.74705e+7 
           5630      3.74342e+7 
           5650      3.69808e+7 
           5670      3.62012e+7 
           5690       3.6259e+7 
           5710      3.59154e+7 
           5730      3.64499e+7 
           5750      3.55131e+7 
           5770       3.5462e+7 
           5790      3.49983e+7 
           5810      3.48827e+7 
           5830      3.47491e+7 
           5850      3.42389e+7 
           5870      3.39765e+7 
           5890      3.30055e+7 
           5910      3.34081e+7 
           5930      3.31156e+7 
           5950       3.2837e+7 
           5970      3.26226e+7 
           5990      3.21679e+7 
           6010      3.15421e+7 
           6030      3.14752e+7 
           6050      3.13992e+7 
           6070      3.13695e+7 
           6090      3.08936e+7 
           6110      3.04555e+7 
           6130      2.97599e+7 
           6150      2.91483e+7 
           6170      2.90259e+7 
           6190      2.96626e+7 
           6210      2.94289e+7 
           6230      2.89189e+7 
           6250       2.8006e+7 
           6270      2.87591e+7 
           6290      2.85527e+7 
           6310      2.78923e+7 
           6330       2.7767e+7 
           6350       2.7215e+7 
           6370      2.71158e+7 
           6390      2.71484e+7 
           6410      2.65758e+7 
           6430      2.65739e+7 
           6450      2.58959e+7 
           6470      2.59142e+7 
           6490      2.53066e+7 
           6510      2.49656e+7 
           6530      2.37227e+7 
           6550      2.00726e+7 
           6570      1.61148e+7 
           6590      2.20747e+7 
           6610      2.37667e+7 
           6630      2.41592e+7 
           6650       2.4193e+7 
           6670      2.39965e+7 
           6690      2.40308e+7 
           6710      2.38275e+7 
           6730       2.3672e+7 
           6750      2.32268e+7 
           6770      2.33857e+7 
           6790      2.31746e+7 
           6810      2.29785e+7 
           6830      2.27602e+7 
           6850      2.25279e+7 
           6870      2.24791e+7 
           6890       2.2306e+7 
           6910      2.21044e+7 
           6930      2.19049e+7 
           6950      2.17681e+7 
           6970       2.1558e+7 
           6990       2.1458e+7 
           7010      2.08864e+7 
           7030      2.09888e+7 
           7050      2.08934e+7 
           7070       2.0749e+7 
           7090      2.05931e+7 
           7110      1.98932e+7 
           7130      2.00744e+7 
           7150      1.99667e+7 
           7170      1.97661e+7 
           7190      1.95542e+7 
           7210      1.95481e+7 
           7230      1.93644e+7 
           7250      1.91223e+7 
           7270      1.91733e+7 
           7290      1.88081e+7 
           7310       1.8823e+7 
           7330      1.86791e+7 
           7350      1.86243e+7 
           7370      1.84769e+7 
           7390      1.81652e+7 
           7410      1.79164e+7 
           7430       1.7717e+7 
           7450      1.76994e+7 
           7470      1.74981e+7 
           7490      1.74578e+7 
           7510      1.74397e+7 
           7530      1.73333e+7 
           7550      1.72918e+7 
           7570      1.71092e+7 
           7590      1.70119e+7 
           7610      1.68498e+7 
           7630       1.6768e+7 
           7650      1.65884e+7 
           7670      1.62868e+7 
           7690      1.62252e+7 
           7710      1.61943e+7 
           7730      1.61302e+7 
           7750      1.59297e+7 
           7770      1.54728e+7 
           7790      1.58404e+7 
           7810      1.56618e+7 
           7830      1.54338e+7 
           7850       1.5266e+7 
           7870      1.52037e+7 
           7890      1.50378e+7 
           7910      1.48914e+7 
           7930      1.46984e+7 
           7950      1.46132e+7 
           7970      1.47985e+7 
           7990      1.45009e+7 
           8010      1.45237e+7 
           8030       1.4355e+7 
           8050      1.42995e+7 
           8070      1.42044e+7 
           8090      1.40755e+7 
           8110      1.40589e+7 
           8130       1.4004e+7 
           8150      1.38923e+7 
           8170      1.37961e+7 
           8190      1.33806e+7 
           8210      1.32943e+7 
           8230      1.32247e+7 
           8250      1.31895e+7 
           8270       1.3345e+7 
           8290      1.32204e+7 
           8310      1.30493e+7 
           8330      1.28461e+7 
           8350      1.29019e+7 
           8370      1.29065e+7 
           8390      1.27562e+7 
           8410      1.27302e+7 
           8430      1.25692e+7 
           8450      1.22507e+7 
           8470      1.23688e+7 
           8490      1.22385e+7 
           8510      1.17732e+7 
           8530      1.20603e+7 
           8550      1.07753e+7 
           8570      1.20746e+7 
           8590      1.16529e+7 
           8610       1.1518e+7 
           8630      1.18421e+7 
           8650      1.15029e+7 
           8670      9.97393e+6 
           8690      1.12207e+7 
           8710      1.16524e+7 
           8730      1.12446e+7 
           8750      9.81206e+6 
           8770      1.08974e+7 
           8790        1.147e+7 
           8810       1.1467e+7 
           8830      1.10416e+7 
           8850      1.00735e+7 
           8870      8.98383e+6 
           8890      1.06461e+7 
           8910       1.1109e+7 
           8930      1.11358e+7 
           8950      1.12536e+7 
           8970      1.09487e+7 
           8990      1.03785e+7 
           9010      8.51469e+6 
           9030      9.17881e+6 
           9050      1.03959e+7 
           9070      1.04526e+7 
           9090      1.03269e+7 
           9110      1.06625e+7 
           9130      1.07577e+7 
           9150      1.07251e+7 
           9170      1.04799e+7 
           9190      1.00873e+7 
           9210      9.21881e+6 
           9230      7.41272e+6 
           9250      8.83545e+6 
           9270      9.52861e+6 
           9290      1.00896e+7 
           9310      1.02014e+7 
           9330      1.01738e+7 
           9350      1.01811e+7 
