# Kurucz ODFNEW /NOVER (2003)
# teff = 9750 K (value for the effective temperature for the model. Temperatures are given in K)
# logg = 5 log(cm/s2) (value for Log(G) for the model.)
# meta = 0  (value for the Metallicity for the model.)
# lh = 1.25  (l/Hp where l is the  mixing length of the convective element and Hp is the pressure scale height)
# vtur = 2 km/s (Microturbulence velocity)
# alpha = 0  (Alpha)
#
# column 1: WAVELENGTH (ANGSTROM), Wavelength in Angstrom
# column 2: FLUX (ERG/CM2/S/A), Flux in erg/cm2/s/A
          273.5      3.1534e-23 
          278.5     1.64671e-22 
            284     7.30095e-22 
            290     3.41135e-21 
            296     1.49697e-20 
            301     4.93693e-20 
            308     2.47668e-19 
            318     2.21554e-18 
            328     1.74785e-17 
            338     1.23185e-16 
            348     7.79907e-16 
            357     3.76525e-15 
            366     1.69134e-14 
            375     7.06684e-14 
            385      3.2042e-13 
            395     1.34679e-12 
            405     5.26813e-12 
            414      1.6997e-11 
            422     4.61445e-11 
            430     1.20574e-10 
            441     4.26395e-10 
            451      1.27234e-9 
            460      3.26238e-9 
            470      8.89603e-9 
            480      2.32235e-8 
            490      5.81993e-8 
            500      1.40383e-7 
            506      2.35511e-7 
            512      3.96168e-7 
            520      7.52247e-7 
            530      1.63205e-6 
            540      3.43359e-6 
            550       7.0261e-6 
            560      1.40024e-5 
            570      2.72001e-5 
            580      5.15718e-5 
            590      9.56152e-5 
            600       0.0001734 
            610     0.000308106 
            620     0.000536712 
            630     0.000917496 
            640      0.00154095 
            650      0.00254402 
            658      0.00375482 
            665      0.00523524 
            675      0.00831058 
            685        0.013001 
            695       0.0200569 
            705       0.0305355 
            716       0.0477805 
            726       0.0708692 
            735         0.10005 
            745        0.145214 
            755        0.208514 
            765         0.29633 
            775        0.416982 
            785        0.581199 
            795        0.802724 
            805         1.09893 
            815         1.49177 
            825         2.00861 
            835         2.68337 
            845         3.55781 
            855         4.68293 
            865         6.12052 
            875          7.9457 
            885         10.2481 
            895         13.1339 
            905         16.7301 
            915         121.682 
            925         818.469 
            935          1335.8 
            945         2099.16 
            955          2917.8 
            965         3781.03 
            975         3436.09 
            985         5180.58 
            995         5728.05 
           1005         7127.84 
           1015         8169.22 
           1025         6691.04 
           1035         10604.2 
           1045         12543.9 
           1055         14368.5 
           1065         15953.7 
           1075         18737.6 
           1085         21314.9 
           1095         23415.8 
           1105         38903.2 
           1115         93371.4 
           1125          134850 
           1135          198234 
           1145          209390 
           1155          222009 
           1165          243548 
           1175          236523 
           1185          227552 
           1195          135451 
           1205          126529 
           1215         31713.4 
           1225          132857 
           1235          263128 
           1245          405646 
           1255      1.03371e+6 
           1265      2.07591e+6 
           1275      5.65155e+6 
           1285       1.4763e+7 
           1295      2.02339e+7 
           1305      1.19784e+7 
           1315      2.62631e+7 
           1325      3.30352e+7 
           1335       3.4637e+7 
           1345      4.54131e+7 
           1355       4.1097e+7 
           1365      3.92111e+7 
           1375      4.16258e+7 
           1385      3.24405e+7 
           1395        3.503e+7 
           1405      4.52451e+7 
           1415      5.20212e+7 
           1425      6.05884e+7 
           1435      5.12307e+7 
           1442      6.43933e+7 
           1447      6.79038e+7 
           1455      7.00118e+7 
           1465      6.31122e+7 
           1475      6.31806e+7 
           1485      6.64292e+7 
           1495      7.46422e+7 
           1505      7.64395e+7 
           1512      6.73011e+7 
           1517      7.58193e+7 
           1525      6.84637e+7 
           1535      7.31418e+7 
           1545      9.16609e+7 
           1555      6.08463e+7 
           1565      5.10945e+7 
           1575      7.89338e+7 
           1585      9.78704e+7 
           1595      1.07497e+8 
           1605       1.0763e+8 
           1615      1.06314e+8 
           1625      8.87501e+7 
           1635      9.42238e+7 
           1645      1.22032e+8 
           1655       8.6222e+7 
           1665      1.18455e+8 
           1672      8.09711e+7 
           1677      1.12679e+8 
           1685      1.29008e+8 
           1695      1.03241e+8 
           1705      1.06177e+8 
           1715      1.12088e+8 
           1725      1.10063e+8 
           1735      1.19994e+8 
           1745      1.15605e+8 
           1755      1.29053e+8 
           1765       1.0349e+8 
           1775      1.23435e+8 
           1785      1.22505e+8 
           1795      1.35152e+8 
           1805      1.24257e+8 
           1815      1.24093e+8 
           1825      1.17364e+8 
           1835      1.13638e+8 
           1845      1.02556e+8 
           1855      1.10555e+8 
           1865      1.13423e+8 
           1875      1.16771e+8 
           1885      1.16065e+8 
           1895      1.16753e+8 
           1905      1.08969e+8 
           1915      1.16392e+8 
           1925      1.17015e+8 
           1935      1.07639e+8 
           1945      1.19491e+8 
           1955      1.17779e+8 
           1967      1.22062e+8 
           1976      1.18859e+8 
           1984      1.15261e+8 
           1995      1.11589e+8 
           2005      1.07883e+8 
           2015      1.04885e+8 
           2025      1.01867e+8 
           2035      1.07664e+8 
           2045      1.12631e+8 
           2055      1.07246e+8 
           2065      1.05221e+8 
           2074      1.10922e+8 
           2078      1.14107e+8 
           2085      1.11791e+8 
           2095      1.07405e+8 
           2105      1.03241e+8 
           2115       1.0364e+8 
           2125      1.05645e+8 
           2135      8.98139e+7 
           2145      1.00941e+8 
           2155      1.00704e+8 
           2165      9.48248e+7 
           2175      9.33815e+7 
           2185      9.51722e+7 
           2195      1.00234e+8 
           2205      9.59253e+7 
           2215       8.7536e+7 
           2225      8.70021e+7 
           2235      9.70704e+7 
           2245      8.70435e+7 
           2255       8.4547e+7 
           2265      8.43896e+7 
           2275       8.9538e+7 
           2285        9.271e+7 
           2295      8.63891e+7 
           2305      8.54285e+7 
           2315      8.31315e+7 
           2325      8.23761e+7 
           2335      7.84867e+7 
           2345      7.18105e+7 
           2355      8.24304e+7 
           2365      7.28103e+7 
           2375      7.70206e+7 
           2385      6.77199e+7 
           2395      7.42816e+7 
           2405      7.07863e+7 
           2415      7.21843e+7 
           2425      7.71188e+7 
           2435      7.32653e+7 
           2445      7.82066e+7 
           2455      7.54331e+7 
           2465      7.54361e+7 
           2475      7.17958e+7 
           2485      7.49588e+7 
           2495      7.19868e+7 
           2505      8.02265e+7 
           2513      7.17109e+7 
           2518       7.2585e+7 
           2525      6.77869e+7 
           2535      6.66259e+7 
           2545       6.5702e+7 
           2555      7.03826e+7 
           2565      7.05048e+7 
           2575      7.58956e+7 
           2585      7.64033e+7 
           2595      7.52169e+7 
           2605      7.20036e+7 
           2615      7.08589e+7 
           2625      7.54867e+7 
           2635      7.55062e+7 
           2645      8.33691e+7 
           2655      8.23949e+7 
           2665      7.53382e+7 
           2675      7.86456e+7 
           2685      7.86305e+7 
           2695      7.47284e+7 
           2705      7.63187e+7 
           2715      7.23435e+7 
           2725      7.28993e+7 
           2735      7.80229e+7 
           2745      6.70511e+7 
           2755      6.79898e+7 
           2765      7.02682e+7 
           2775      7.46157e+7 
           2785        7.207e+7 
           2795      5.29647e+7 
           2805      6.04929e+7 
           2815      7.61377e+7 
           2825      7.70583e+7 
           2835      7.41626e+7 
           2845      7.12777e+7 
           2855       6.8815e+7 
           2865      7.35814e+7 
           2875      7.15982e+7 
           2885      7.29449e+7 
           2895      7.03831e+7 
           2910      7.68798e+7 
           2930      7.35432e+7 
           2950      7.32333e+7 
           2970      7.39245e+7 
           2990      7.39418e+7 
           3010      7.45924e+7 
           3030      7.36971e+7 
           3050      7.30254e+7 
           3070      7.23088e+7 
           3090      7.26384e+7 
           3110      7.10294e+7 
           3130      7.06937e+7 
           3150      7.12454e+7 
           3170      7.06117e+7 
           3190      6.78854e+7 
           3210      6.88885e+7 
           3230      6.72797e+7 
           3250      6.79415e+7 
           3270      6.81417e+7 
           3290      6.83007e+7 
           3310      6.82687e+7 
           3330      6.68362e+7 
           3350       6.5725e+7 
           3370      6.55078e+7 
           3390      6.48748e+7 
           3410      6.54249e+7 
           3430       6.5058e+7 
           3450      6.44515e+7 
           3470      6.36794e+7 
           3490      6.33476e+7 
           3510      6.36368e+7 
           3530       6.3347e+7 
           3550      6.31973e+7 
           3570      6.19177e+7 
           3590      6.14753e+7 
           3610      6.11256e+7 
           3630      6.08913e+7 
           3640      6.05231e+7 
           3650      6.12636e+7 
           3670        6.109e+7 
           3690      5.98264e+7 
           3710      5.82771e+7 
           3730      5.51681e+7 
           3750      6.16269e+7 
           3770      6.36651e+7 
           3790      7.62476e+7 
           3810      8.96089e+7 
           3830      7.17714e+7 
           3850      1.00676e+8 
           3870      1.17087e+8 
           3890      6.32509e+7 
           3910      1.18718e+8 
           3930      1.28523e+8 
           3950       1.1902e+8 
           3970      6.07657e+7 
           3990        1.128e+8 
           4010      1.39494e+8 
           4030      1.42857e+8 
           4050      1.40058e+8 
           4070      1.27363e+8 
           4090       8.8198e+7 
           4110      6.69799e+7 
           4130      1.16977e+8 
           4150      1.30996e+8 
           4170      1.32964e+8 
           4190      1.32069e+8 
           4210      1.30992e+8 
           4230      1.27943e+8 
           4250      1.26604e+8 
           4270      1.22272e+8 
           4290      1.19673e+8 
           4310      1.06322e+8 
           4330      7.26276e+7 
           4350      6.19431e+7 
           4370      1.01658e+8 
           4390       1.1069e+8 
           4410      1.12404e+8 
           4430       1.1162e+8 
           4450      1.12571e+8 
           4470      1.11249e+8 
           4490      1.08453e+8 
           4510      1.09036e+8 
           4530      1.07156e+8 
           4550      1.04957e+8 
           4570      1.05252e+8 
           4590      1.03191e+8 
           4610      1.03233e+8 
           4630      1.00728e+8 
           4650       1.0051e+8 
           4670      9.92104e+7 
           4690      9.62868e+7 
           4710      9.28438e+7 
           4730      9.51401e+7 
           4750      9.38597e+7 
           4770      9.21503e+7 
           4790      9.00919e+7 
           4810      8.63986e+7 
           4830      7.83838e+7 
           4850      5.67244e+7 
           4870       4.6346e+7 
           4890      7.22104e+7 
           4910      8.03649e+7 
           4930      8.14765e+7 
           4950      8.22708e+7 
           4970      8.22201e+7 
           4990      8.10555e+7 
           5010       7.9269e+7 
           5030      7.92965e+7 
           5050       7.7835e+7 
           5070       7.7911e+7 
           5090      7.70338e+7 
           5110      7.62055e+7 
           5130      7.52173e+7 
           5150       7.4103e+7 
           5170      7.22792e+7 
           5190      7.17148e+7 
           5210      7.16191e+7 
           5230      7.02846e+7 
           5250      7.03269e+7 
           5270      6.83739e+7 
           5290      6.87033e+7 
           5310      6.74987e+7 
           5330      6.64414e+7 
           5350       6.6455e+7 
           5370      6.55219e+7 
           5390      6.48615e+7 
           5410       6.3792e+7 
           5430      6.34226e+7 
           5450      6.28844e+7 
           5470      6.21887e+7 
           5490      6.15664e+7 
           5510      6.09391e+7 
           5530      6.01271e+7 
           5550      5.96493e+7 
           5570      5.89388e+7 
           5590      5.82803e+7 
           5610      5.77613e+7 
           5630      5.72174e+7 
           5650      5.65664e+7 
           5670      5.59102e+7 
           5690      5.53864e+7 
           5710      5.48165e+7 
           5730      5.43278e+7 
           5750      5.36691e+7 
           5770      5.31449e+7 
           5790      5.25694e+7 
           5810      5.20473e+7 
           5830      5.15301e+7 
           5850      5.09836e+7 
           5870      5.04159e+7 
           5890      4.95213e+7 
           5910      4.94208e+7 
           5930      4.89316e+7 
           5950      4.83712e+7 
           5970      4.79197e+7 
           5990      4.73672e+7 
           6010      4.68605e+7 
           6030      4.64746e+7 
           6050      4.59949e+7 
           6070      4.55788e+7 
           6090      4.51133e+7 
           6110      4.46399e+7 
           6130      4.41395e+7 
           6150       4.3326e+7 
           6170      4.32089e+7 
           6190      4.29301e+7 
           6210      4.25036e+7 
           6230      4.20457e+7 
           6250      4.14347e+7 
           6270      4.12771e+7 
           6290       4.0878e+7 
           6310       4.0412e+7 
           6330      4.00527e+7 
           6350      3.93094e+7 
           6370       3.9036e+7 
           6390      3.88151e+7 
           6410      3.83486e+7 
           6430      3.79883e+7 
           6450      3.73184e+7 
           6470      3.70323e+7 
           6490      3.63187e+7 
           6510       3.5375e+7 
           6530      3.33033e+7 
           6550      2.77517e+7 
           6570      2.26684e+7 
           6590      3.07599e+7 
           6610      3.32608e+7 
           6630      3.38995e+7 
           6650      3.39565e+7 
           6670      3.38049e+7 
           6690      3.36089e+7 
           6710      3.33587e+7 
           6730      3.30542e+7 
           6750      3.27702e+7 
           6770      3.25621e+7 
           6790      3.22692e+7 
           6810      3.19841e+7 
           6830      3.16646e+7 
           6850      3.13941e+7 
           6870      3.11221e+7 
           6890      3.08489e+7 
           6910      3.05656e+7 
           6930      3.02828e+7 
           6950      3.00182e+7 
           6970       2.9747e+7 
           6990      2.94952e+7 
           7010      2.91562e+7 
           7030      2.89448e+7 
           7050      2.86959e+7 
           7070      2.84622e+7 
           7090      2.82164e+7 
           7110      2.77002e+7 
           7130      2.76688e+7 
           7150      2.74324e+7 
           7170      2.72188e+7 
           7190      2.69772e+7 
           7210      2.67531e+7 
           7230      2.65181e+7 
           7250      2.62515e+7 
           7270      2.60759e+7 
           7290      2.58196e+7 
           7310      2.56144e+7 
           7330      2.53991e+7 
           7350      2.51983e+7 
           7370      2.49868e+7 
           7390      2.47565e+7 
           7410      2.45215e+7 
           7430      2.42573e+7 
           7450       2.4094e+7 
           7470      2.38166e+7 
           7490      2.36668e+7 
           7510      2.35128e+7 
           7530      2.33316e+7 
           7550       2.3154e+7 
           7570      2.29575e+7 
           7590      2.27693e+7 
           7610      2.25828e+7 
           7630      2.23901e+7 
           7650       2.2196e+7 
           7670      2.19926e+7 
           7690       2.1821e+7 
           7710      2.16446e+7 
           7730      2.14855e+7 
           7750      2.13026e+7 
           7770      2.07201e+7 
           7790      2.09664e+7 
           7810      2.07956e+7 
           7830      2.06028e+7 
           7850      2.04093e+7 
           7870      2.01877e+7 
           7890      1.99875e+7 
           7910      1.99112e+7 
           7930      1.97738e+7 
           7950      1.95456e+7 
           7970      1.94939e+7 
           7990      1.91586e+7 
           8010      1.91747e+7 
           8030      1.90121e+7 
           8050      1.88735e+7 
           8070      1.87165e+7 
           8090      1.85711e+7 
           8110      1.84326e+7 
           8130      1.82959e+7 
           8150      1.81523e+7 
           8170      1.80116e+7 
           8190       1.7753e+7 
           8210      1.76672e+7 
           8230      1.75158e+7 
           8250       1.7416e+7 
           8270      1.74057e+7 
           8290      1.72659e+7 
           8310      1.71474e+7 
           8330      1.69338e+7 
           8350      1.69052e+7 
           8370      1.67933e+7 
           8390      1.66598e+7 
           8410      1.65407e+7 
           8430      1.63987e+7 
           8450      1.60785e+7 
           8470      1.61035e+7 
           8490      1.60016e+7 
           8510      1.56211e+7 
           8530      1.57685e+7 
           8550      1.49666e+7 
           8570      1.56386e+7 
           8590      1.50185e+7 
           8610      1.48167e+7 
           8630      1.54381e+7 
           8650      1.48597e+7 
           8670      1.33353e+7 
           8690      1.48809e+7 
           8710      1.53261e+7 
           8730      1.46282e+7 
           8750      1.23201e+7 
           8770      1.39259e+7 
           8790      1.51079e+7 
           8810      1.52437e+7 
           8830      1.46862e+7 
           8850      1.29249e+7 
           8870      1.13713e+7 
           8890      1.38123e+7 
           8910      1.47293e+7 
           8930      1.49884e+7 
           8950       1.5008e+7 
           8970      1.45268e+7 
           8990      1.34121e+7 
           9010      1.08438e+7 
           9030      1.16247e+7 
           9050      1.34947e+7 
           9070      1.40109e+7 
           9090       1.4128e+7 
           9110      1.44056e+7 
           9130      1.43995e+7 
           9150      1.42417e+7 
           9170      1.38754e+7 
           9190      1.31893e+7 
           9210      1.18321e+7 
