# Kurucz ODFNEW /NOVER (2003)
# teff = 7500 K (value for the effective temperature for the model. Temperatures are given in K)
# logg = 2 log(cm/s2) (value for Log(G) for the model.)
# meta = -1  (value for the Metallicity for the model.)
# lh = 1.25  (l/Hp where l is the  mixing length of the convective element and Hp is the pressure scale height)
# vtur = 2 km/s (Microturbulence velocity)
# alpha = 0  (Alpha)
#
# column 1: WAVELENGTH (ANGSTROM), Wavelength in Angstrom
# column 2: FLUX (ERG/CM2/S/A), Flux in erg/cm2/s/A
            366     6.94928e-24 
            375     8.72941e-23 
            385     7.11599e-22 
            395     5.05364e-21 
            405     3.24237e-20 
            414     1.44227e-20 
            422     5.22286e-20 
            430     1.79783e-19 
            441     9.10244e-19 
            451     3.69467e-18 
            460     1.23341e-17 
            470     4.44486e-17 
            480     1.51235e-16 
            490     4.87991e-16 
            500      1.4961e-15 
            506     3.80443e-15 
            512     8.07181e-15 
            520     1.82666e-14 
            530      4.9184e-14 
            540      1.2523e-13 
            550     3.11247e-13 
            560     7.42275e-13 
            570     1.71239e-12 
            580     3.78454e-12 
            590     8.30396e-12 
            600     1.75127e-11 
            610     3.59609e-11 
            620     7.19677e-11 
            630     1.40583e-10 
            640     2.68484e-10 
            650     5.01679e-10 
            658     8.14743e-10 
            665       1.2321e-9 
            675       2.1884e-9 
            685      3.81486e-9 
            695      6.53369e-9 
            705      1.09943e-8 
            716      1.91453e-8 
            726      3.11725e-8 
            735      4.77396e-8 
            745      7.56344e-8 
            755      1.18195e-7 
            765      1.82286e-7 
            775      2.77612e-7 
            785      4.17711e-7 
            795      6.20148e-7 
            805       9.1301e-7 
            815       1.3286e-6 
            825      1.91319e-6 
            835      2.72768e-6 
            845      3.85211e-6 
            855      5.38947e-6 
            865      7.47341e-6 
            875      1.02707e-5 
            885      1.40095e-5 
            895      1.89502e-5 
            905      2.54158e-5 
            915       0.0607555 
            925        0.226832 
            935        0.296303 
            945        0.403705 
            955        0.567268 
            965        0.728842 
            975        0.828973 
            985         1.18351 
            995         1.44101 
           1005         1.91516 
           1015         2.28058 
           1025         2.51663 
           1035         3.68386 
           1045         4.63725 
           1055         5.72189 
           1065         6.84754 
           1075         8.48829 
           1085         10.3669 
           1095         12.2653 
           1105         35.0805 
           1115         103.329 
           1125         140.738 
           1135         183.583 
           1145         211.732 
           1155         209.462 
           1165         240.018 
           1175         229.273 
           1185         327.922 
           1195         86.8863 
           1205          56.236 
           1215         14.6088 
           1225         66.0332 
           1235         169.632 
           1245         350.596 
           1255         648.012 
           1265         896.419 
           1275         1357.35 
           1285         2071.55 
           1295         2812.74 
           1305         2991.89 
           1315         4337.38 
           1325         5585.41 
           1335          6702.7 
           1345         8798.77 
           1355         9920.41 
           1365         12024.8 
           1375         14216.5 
           1385         16359.1 
           1395         19513.8 
           1405           24573 
           1415         30031.5 
           1425         36384.9 
           1435         38217.7 
           1442         49009.7 
           1447         52694.8 
           1455         70465.5 
           1465         72166.1 
           1475         82467.1 
           1485           96233 
           1495          115192 
           1505          133198 
           1512          129959 
           1517          139459 
           1525          171791 
           1535          606435 
           1545      1.07806e+6 
           1555       1.0103e+6 
           1565          799519 
           1575      1.10591e+6 
           1585       1.1526e+6 
           1595        1.296e+6 
           1605       1.2138e+6 
           1615       1.4948e+6 
           1625      1.76308e+6 
           1635      2.45678e+6 
           1645      3.54131e+6 
           1655      2.19777e+6 
           1665      4.09979e+6 
           1672      2.04496e+6 
           1677      4.54862e+6 
           1685      5.62807e+6 
           1695      5.49538e+6 
           1705      5.32367e+6 
           1715      6.17758e+6 
           1725       6.2905e+6 
           1735      7.14105e+6 
           1745       6.7932e+6 
           1755      7.90844e+6 
           1765      6.35496e+6 
           1775      7.51671e+6 
           1785      7.41736e+6 
           1795      8.92475e+6 
           1805      7.89958e+6 
           1815      8.43089e+6 
           1825      7.47718e+6 
           1835      7.53923e+6 
           1845      6.77588e+6 
           1855      7.31163e+6 
           1865      7.70686e+6 
           1875      7.80061e+6 
           1885      7.98387e+6 
           1895      8.34663e+6 
           1905      7.71921e+6 
           1915      8.46125e+6 
           1925      8.66616e+6 
           1935      7.39357e+6 
           1945      9.07252e+6 
           1955      9.12079e+6 
           1967      9.65531e+6 
           1976      9.41743e+6 
           1984      9.18324e+6 
           1995      8.90628e+6 
           2005      8.57982e+6 
           2015       8.4521e+6 
           2025      7.89569e+6 
           2035      8.81541e+6 
           2045      9.53889e+6 
           2055      9.00202e+6 
           2065      8.67457e+6 
           2074      1.00009e+7 
           2078      1.02792e+7 
           2085      9.97194e+6 
           2095      9.57225e+6 
           2105      9.07342e+6 
           2115      9.24048e+6 
           2125      9.51663e+6 
           2135      7.65282e+6 
           2145      9.01493e+6 
           2155      9.10911e+6 
           2165      8.54774e+6 
           2175      8.50277e+6 
           2185       8.8599e+6 
           2195      9.68482e+6 
           2205      9.28724e+6 
           2215      8.33819e+6 
           2225      8.33723e+6 
           2235      9.74173e+6 
           2245      8.66847e+6 
           2255      8.24504e+6 
           2265      8.22013e+6 
           2275      9.04842e+6 
           2285      9.38284e+6 
           2295      8.70543e+6 
           2305       9.0165e+6 
           2315      8.86215e+6 
           2325      8.67388e+6 
           2335       7.6628e+6 
           2345      6.49871e+6 
           2355      8.69069e+6 
           2365      6.78059e+6 
           2375      8.07942e+6 
           2385       5.8712e+6 
           2395      6.99271e+6 
           2405      6.72691e+6 
           2415      7.21133e+6 
           2425      8.75675e+6 
           2435      8.55218e+6 
           2445      9.11507e+6 
           2455      8.91033e+6 
           2465      8.91258e+6 
           2475      8.38683e+6 
           2485      8.73187e+6 
           2495      8.43386e+6 
           2505      9.88918e+6 
           2513      8.49542e+6 
           2518      8.78733e+6 
           2525      7.96047e+6 
           2535      7.65861e+6 
           2545      7.75326e+6 
           2555      8.56064e+6 
           2565      8.41786e+6 
           2575      9.25542e+6 
           2585      9.15012e+6 
           2595      8.78771e+6 
           2605      8.26237e+6 
           2615      7.93486e+6 
           2625      9.21564e+6 
           2635       9.6157e+6 
           2645      1.15377e+7 
           2655      1.15386e+7 
           2665      1.03022e+7 
           2675      1.08871e+7 
           2685      1.09425e+7 
           2695      1.02608e+7 
           2705      1.05754e+7 
           2715      9.81071e+6 
           2725      9.98439e+6 
           2735      1.08765e+7 
           2745      8.36252e+6 
           2755      9.10203e+6 
           2765      9.67937e+6 
           2775      1.08176e+7 
           2785       1.0302e+7 
           2795      5.81151e+6 
           2805      6.99447e+6 
           2815      1.13049e+7 
           2825      1.17032e+7 
           2835      1.12753e+7 
           2845       1.0902e+7 
           2855      1.03183e+7 
           2865      1.13071e+7 
           2875      1.10358e+7 
           2885      1.13496e+7 
           2895      1.08667e+7 
           2910      1.23067e+7 
           2930      1.19287e+7 
           2950      1.18653e+7 
           2970      1.22309e+7 
           2990      1.23957e+7 
           3010      1.26182e+7 
           3030      1.26163e+7 
           3050      1.26308e+7 
           3070      1.26514e+7 
           3090      1.29554e+7 
           3110      1.26646e+7 
           3130      1.26533e+7 
           3150      1.30596e+7 
           3170      1.30959e+7 
           3190      1.24979e+7 
           3210      1.28955e+7 
           3230      1.25788e+7 
           3250      1.29584e+7 
           3270      1.31263e+7 
           3290      1.33619e+7 
           3310      1.35341e+7 
           3330      1.32956e+7 
           3350      1.31359e+7 
           3370      1.31536e+7 
           3390      1.32097e+7 
           3410      1.34984e+7 
           3430      1.36399e+7 
           3450       1.3568e+7 
           3470      1.34248e+7 
           3490      1.34162e+7 
           3510      1.37184e+7 
           3530      1.38149e+7 
           3550      1.39873e+7 
           3570      1.36369e+7 
           3590      1.36256e+7 
           3610      1.37049e+7 
           3630      1.38453e+7 
           3640      1.37068e+7 
           3650      1.40713e+7 
           3670      1.38825e+7 
           3690      1.44061e+7 
           3710      1.81006e+7 
           3730      2.26307e+7 
           3750      3.19708e+7 
           3770      3.42036e+7 
           3790      4.21313e+7 
           3810      4.85779e+7 
           3830      3.81432e+7 
           3850      5.22986e+7 
           3870      5.70192e+7 
           3890      3.45507e+7 
           3910      5.58807e+7 
           3930      5.01472e+7 
           3950      5.56263e+7 
           3970      3.18337e+7 
           3990      5.45118e+7 
           4010      5.72986e+7 
           4030      5.66408e+7 
           4050      5.61012e+7 
           4070      5.43185e+7 
           4090      4.64288e+7 
           4110      3.58038e+7 
           4130      5.23475e+7 
           4150      5.32704e+7 
           4170      5.23793e+7 
           4190      5.18075e+7 
           4210      5.14355e+7 
           4230      5.03944e+7 
           4250       5.0063e+7 
           4270      4.91592e+7 
           4290       4.8708e+7 
           4310      4.60688e+7 
           4330      3.85352e+7 
           4350      3.30252e+7 
           4370      4.62249e+7 
           4390      4.60256e+7 
           4410      4.51848e+7 
           4430      4.54746e+7 
           4450      4.51029e+7 
           4470      4.46097e+7 
           4490      4.41534e+7 
           4510      4.41219e+7 
           4530      4.30815e+7 
           4550      4.20849e+7 
           4570      4.27203e+7 
           4590      4.17945e+7 
           4610      4.22303e+7 
           4630      4.11791e+7 
           4650      4.12769e+7 
           4670      4.08308e+7 
           4690      4.01031e+7 
           4710      3.89192e+7 
           4730      3.95995e+7 
           4750      3.93418e+7 
           4770      3.88007e+7 
           4790      3.83246e+7 
           4810      3.77802e+7 
           4830      3.67623e+7 
           4850      3.09151e+7 
           4870      2.50466e+7 
           4890      3.50922e+7 
           4910      3.57804e+7 
           4930      3.51435e+7 
           4950      3.52444e+7 
           4970      3.51962e+7 
           4990      3.45364e+7 
           5010      3.37104e+7 
           5030      3.39476e+7 
           5050      3.35197e+7 
           5070      3.34214e+7 
           5090      3.30517e+7 
           5110      3.27704e+7 
           5130      3.22749e+7 
           5150      3.18627e+7 
           5170      3.10318e+7 
           5190      3.07917e+7 
           5210      3.08305e+7 
           5230      3.03335e+7 
           5250      3.05826e+7 
           5270      2.95994e+7 
           5290      2.99495e+7 
           5310      2.94477e+7 
           5330      2.90084e+7 
           5350      2.92039e+7 
           5370      2.87581e+7 
           5390      2.85308e+7 
           5410      2.81375e+7 
           5430       2.7937e+7 
           5450      2.78033e+7 
           5470      2.75916e+7 
           5490      2.74097e+7 
           5510      2.71453e+7 
           5530      2.67879e+7 
           5550      2.67212e+7 
           5570      2.64045e+7 
           5590      2.61376e+7 
           5610      2.59479e+7 
           5630      2.57782e+7 
           5650      2.54957e+7 
           5670      2.52517e+7 
           5690      2.50885e+7 
           5710      2.48645e+7 
           5730      2.46958e+7 
           5750      2.44548e+7 
           5770      2.42505e+7 
           5790       2.4027e+7 
           5810      2.38284e+7 
           5830      2.36253e+7 
           5850      2.34046e+7 
           5870      2.32126e+7 
           5890      2.27805e+7 
           5910      2.28142e+7 
           5930      2.26188e+7 
           5950      2.24234e+7 
           5970      2.22417e+7 
           5990      2.20273e+7 
           6010      2.18308e+7 
           6030      2.16624e+7 
           6050      2.14875e+7 
           6070      2.13227e+7 
           6090        2.113e+7 
           6110      2.09394e+7 
           6130      2.07158e+7 
           6150      2.04508e+7 
           6170       2.0363e+7 
           6190       2.0267e+7 
           6210      2.01064e+7 
           6230      1.99125e+7 
           6250      1.96039e+7 
           6270       1.9619e+7 
           6290      1.94582e+7 
           6310      1.92565e+7 
           6330      1.91256e+7 
           6350      1.89157e+7 
           6370      1.87748e+7 
           6390      1.86648e+7 
           6410      1.84669e+7 
           6430      1.83486e+7 
           6450      1.81055e+7 
           6470       1.8054e+7 
           6490      1.77971e+7 
           6510      1.76666e+7 
           6530      1.73642e+7 
           6550      1.57638e+7 
           6570      1.26141e+7 
           6590      1.66686e+7 
           6610      1.69524e+7 
           6630      1.69146e+7 
           6650      1.68164e+7 
           6670      1.66962e+7 
           6690      1.65806e+7 
           6710      1.64501e+7 
           6730      1.63233e+7 
           6750      1.61846e+7 
           6770      1.60792e+7 
           6790       1.5952e+7 
           6810      1.58308e+7 
           6830      1.56986e+7 
           6850      1.55822e+7 
           6870      1.54701e+7 
           6890      1.53534e+7 
           6910      1.52355e+7 
           6930      1.51186e+7 
           6950      1.50052e+7 
           6970      1.48898e+7 
           6990      1.47808e+7 
           7010       1.4649e+7 
           7030      1.45498e+7 
           7050      1.44469e+7 
           7070      1.43411e+7 
           7090      1.42349e+7 
           7110      1.40453e+7 
           7130      1.40052e+7 
           7150      1.39071e+7 
           7170      1.38069e+7 
           7190      1.36966e+7 
           7210      1.35983e+7 
           7230      1.34951e+7 
           7250      1.34021e+7 
           7270       1.3312e+7 
           7290      1.31994e+7 
           7310      1.30984e+7 
           7330      1.30095e+7 
           7350      1.29255e+7 
           7370      1.28374e+7 
           7390      1.27342e+7 
           7410      1.26272e+7 
           7430      1.25354e+7 
           7450      1.24505e+7 
           7470       1.2338e+7 
           7490      1.22601e+7 
           7510      1.21842e+7 
           7530      1.21083e+7 
           7550       1.2031e+7 
           7570      1.19399e+7 
           7590      1.18581e+7 
           7610      1.17744e+7 
           7630      1.16908e+7 
           7650      1.16027e+7 
           7670      1.15121e+7 
           7690      1.14396e+7 
           7710      1.13442e+7 
           7730      1.12843e+7 
           7750      1.12017e+7 
           7770       1.0975e+7 
           7790      1.10522e+7 
           7810      1.09734e+7 
           7830      1.08879e+7 
           7850      1.08044e+7 
           7870      1.07258e+7 
           7890      1.06455e+7 
           7910      1.05857e+7 
           7930      1.05084e+7 
           7950      1.04336e+7 
           7970      1.03824e+7 
           7990      1.02869e+7 
           8010       1.0235e+7 
           8030       1.0163e+7 
           8050      1.00969e+7 
           8070      1.00272e+7 
           8090      9.95757e+6 
           8110      9.89592e+6 
           8130      9.83019e+6 
           8150      9.76329e+6 
           8170      9.69749e+6 
           8190      9.58503e+6 
           8210      9.56466e+6 
           8230       9.4982e+6 
           8250      9.42619e+6 
           8270       9.4104e+6 
           8290      9.34477e+6 
           8310       9.2682e+6 
           8330      9.13145e+6 
           8350      9.12774e+6 
           8370      8.97555e+6 
           8390      8.91729e+6 
           8410      8.83178e+6 
           8430      8.92192e+6 
           8450      8.81273e+6 
           8470      8.47132e+6 
           8490      9.10986e+6 
           8510      8.22488e+6 
           8530      9.20014e+6 
           8550      7.84251e+6 
           8570      9.33348e+6 
           8590      8.69528e+6 
           8610      8.40846e+6 
           8630      9.48388e+6 
           8650       9.2276e+6 
           8670      7.52868e+6 
           8690      9.32892e+6 
           8710      9.56422e+6 
           8730      9.30888e+6 
           8750       7.4935e+6 
           8770      8.95721e+6 
           8790      9.38458e+6 
           8810      9.33911e+6 
           8830      9.19586e+6 
           8850      8.56224e+6 
           8870      7.28877e+6 
           8890      8.90484e+6 
           8910      9.02151e+6 
           8930      8.99059e+6 
           8950       8.9909e+6 
           8970      8.89607e+6 
           8990      8.67008e+6 
           9010      7.16657e+6 
           9030      7.87455e+6 
           9050      8.58218e+6 
           9070       8.5027e+6 
           9090      8.39648e+6 
           9110      8.48902e+6 
           9130      8.49661e+6 
           9150      8.43836e+6 
           9170      8.36351e+6 
           9190      8.25043e+6 
           9210      7.88686e+6 
           9230      6.37929e+6 
           9250      7.65765e+6 
           9270      7.93372e+6 
           9290      8.04408e+6 
           9310      8.01521e+6 
           9330      7.97266e+6 
           9350      7.92652e+6 
           9370      7.87727e+6 
           9390      7.81427e+6 
           9410      7.65983e+6 
           9430       7.7066e+6 
           9450        7.666e+6 
