# Kurucz ODFNEW /NOVER (2003)
# teff = 3500 K (value for the effective temperature for the model. Temperatures are given in K)
# logg = 2.5 log(cm/s2) (value for Log(G) for the model.)
# meta = -2.5  (value for the Metallicity for the model.)
# lh = 1.25  (l/Hp where l is the  mixing length of the convective element and Hp is the pressure scale height)
# vtur = 2 km/s (Microturbulence velocity)
# alpha = 0.4  (Alpha)
#
# column 1: WAVELENGTH (ANGSTROM), Wavelength in Angstrom
# column 2: FLUX (ERG/CM2/S/A), Flux in erg/cm2/s/A
          147.2     1.73866e-35 
            151     1.65225e-35 
          155.2     1.56403e-35 
          158.8     1.49392e-35 
            162     1.43549e-35 
            166     1.36714e-35 
          170.3     1.29897e-35 
          173.4     1.25294e-35 
          176.8     1.20522e-35 
          180.2     1.16017e-35 
          181.7     1.14109e-35 
          186.1     1.08777e-35 
            191     1.03267e-35 
          193.9     1.00201e-35 
          198.4     9.57076e-36 
          201.8     9.25097e-36 
            205     8.96441e-36 
          210.5     8.50208e-36 
          216.2     8.05969e-36 
          219.8     7.79784e-36 
            223     7.57565e-36 
          226.8     7.32392e-36 
            230     7.12154e-36 
            234     6.88015e-36 
            240     6.54044e-36 
          246.5     6.20006e-36 
          252.4     5.91358e-36 
          256.8     5.71267e-36 
            260     5.57292e-36 
            264     5.40532e-36 
          268.5     5.22566e-36 
          273.5     5.03634e-36 
          278.5     4.85712e-36 
            284     4.67082e-36 
            290     4.47954e-36 
            296     4.29978e-36 
            301     4.15812e-36 
            308     3.97126e-36 
            318     3.72542e-36 
            328     3.50172e-36 
            338     3.29759e-36 
            348     3.11079e-36 
            357     2.95592e-36 
            366     2.81234e-36 
            375     2.67896e-36 
            385     2.54161e-36 
            395     2.41455e-36 
            405     2.29678e-36 
            414     2.19801e-36 
            422     2.11546e-36 
            430     2.03748e-36 
            441      1.9371e-36 
            451     1.85215e-36 
            460     1.78038e-36 
            470     1.70543e-36 
            480     1.63511e-36 
            490     1.56905e-36 
            500     1.50692e-36 
            506     1.47139e-36 
            512     1.43711e-36 
            520     1.39323e-36 
            530     1.34115e-36 
            540     1.29194e-36 
            550     1.24539e-36 
            560     1.20131e-36 
            570     1.15952e-36 
            580     1.11989e-36 
            590     1.08224e-36 
            600     1.04647e-36 
            610     1.01244e-36 
            620     9.80045e-37 
            630      9.4918e-37 
            640      9.1975e-37 
            650     8.91667e-37 
            658     8.70117e-37 
            665     8.51895e-37 
            675     8.26841e-37 
            685     8.02876e-37 
            695     7.79938e-37 
            705     7.57969e-37 
            716     7.34858e-37 
            726     7.14754e-37 
            735     6.97357e-37 
            745     6.78761e-37 
            755       6.609e-37 
            765     6.43734e-37 
            775     6.27229e-37 
            785      6.1135e-37 
            795     5.96067e-37 
            805      5.8135e-37 
            815     5.67171e-37 
            825     5.53505e-37 
            835     5.40327e-37 
            845     5.27614e-37 
            855     5.15344e-37 
            865     5.03498e-37 
            875     4.92055e-37 
            885     4.80998e-37 
            895     4.70309e-37 
            905     4.59973e-37 
            915     3.54377e-22 
            925     1.38262e-21 
            935     3.28243e-21 
            945     7.30657e-21 
            955     1.53104e-20 
            965     2.92168e-20 
            975     8.62381e-20 
            985     1.63536e-19 
            995     2.93324e-19 
           1005     6.02006e-19 
           1015     1.16885e-18 
           1025     2.10158e-18 
           1035     4.52613e-18 
           1045     8.17746e-18 
           1055     1.23583e-17 
           1065     2.43832e-17 
           1075     4.47462e-17 
           1085     8.77641e-17 
           1095     1.19599e-16 
           1105     1.84976e-16 
           1115     4.48963e-16 
           1125      6.3545e-16 
           1135     1.38301e-15 
           1145     2.15266e-15 
           1155     4.04708e-15 
           1165     6.66398e-15 
           1175     1.88746e-14 
           1185     1.90682e-14 
           1195     2.65342e-14 
           1205     4.83461e-14 
           1215     6.23959e-14 
           1225     1.20511e-13 
           1235     1.47115e-13 
           1245     4.22708e-13 
           1255     1.58224e-12 
           1265      4.7433e-12 
           1275     8.64314e-12 
           1285     2.53248e-11 
           1295     3.90045e-11 
           1305     1.25485e-10 
           1315     1.92861e-10 
           1325     3.68527e-10 
           1335      5.1036e-10 
           1345     8.94517e-10 
           1355      1.38241e-9 
           1365      1.93565e-9 
           1375      2.18451e-9 
           1385      2.91921e-9 
           1395      4.47152e-9 
           1405      6.39955e-9 
           1415      1.01258e-8 
           1425      9.01572e-9 
           1435      1.74261e-8 
           1442      3.07273e-8 
           1447      1.96101e-8 
           1455      2.70719e-8 
           1465      3.60313e-8 
           1475       3.9463e-8 
           1485      4.64312e-8 
           1495      8.74356e-8 
           1505      1.44084e-7 
           1512      6.57175e-8 
           1517      8.96179e-8 
           1525      1.54205e-7 
           1535      2.46418e-7 
           1545       1.3153e-7 
           1555      2.06295e-7 
           1565       1.7295e-7 
           1575      2.90343e-7 
           1585      2.77078e-7 
           1595      2.43865e-7 
           1605      2.63723e-7 
           1615      2.74073e-7 
           1625      2.82951e-7 
           1635      4.37113e-7 
           1645      7.64617e-7 
           1655      5.65075e-7 
           1665       1.3618e-6 
           1672      1.04695e-6 
           1677        2.208e-6 
           1685      3.20613e-6 
           1695      6.03221e-6 
           1705      6.57606e-6 
           1715      8.57125e-6 
           1725       1.2991e-5 
           1735       1.6501e-5 
           1745      2.37034e-5 
           1755      2.23406e-5 
           1765      3.67052e-5 
           1775      2.98789e-5 
           1785      8.47676e-5 
           1795       5.3117e-5 
           1805     0.000151673 
           1815      7.70127e-5 
           1825     0.000166906 
           1835     0.000117151 
           1845     0.000292129 
           1855     0.000138046 
           1865     0.000419574 
           1875     0.000325291 
           1885     0.000492495 
           1895     0.000598892 
           1905     0.000684316 
           1915      0.00113875 
           1925      0.00076605 
           1935     0.000348071 
           1945      0.00133981 
           1955      0.00247899 
           1967      0.00239937 
           1976      0.00313274 
           1984      0.00479772 
           1995      0.00355326 
           2005      0.00463374 
           2015      0.00513771 
           2025      0.00475819 
           2035      0.00588061 
           2045      0.00562163 
           2055      0.00760689 
           2065      0.00632623 
           2074      0.00399222 
           2078      0.00891727 
           2085       0.0160243 
           2095       0.0351475 
           2105       0.0394378 
           2115        0.031753 
           2125       0.0467055 
           2135       0.0734966 
           2145       0.0343648 
           2155       0.0666038 
           2165       0.0583874 
           2175       0.0671541 
           2185        0.053322 
           2195        0.160567 
           2205       0.0954759 
           2215        0.170096 
           2225       0.0957533 
           2235        0.307833 
           2245        0.316302 
           2255        0.603801 
           2265        0.110781 
           2275        0.624371 
           2285        0.352131 
           2295         1.14148 
           2305         0.11082 
           2315         2.02071 
           2325        0.872336 
           2335         2.20832 
           2345          1.0588 
           2355        0.506735 
           2365         1.15742 
           2375        0.786169 
           2385         3.19399 
           2395         2.37241 
           2405         7.76903 
           2415         2.47888 
           2425         4.41777 
           2435         8.50516 
           2445         14.3526 
           2455         18.0188 
           2465         8.07991 
           2475          23.607 
           2485         3.16148 
           2495         4.64014 
           2505          14.276 
           2513         6.63718 
           2518         7.80515 
           2525         13.7807 
           2535         51.6135 
           2545          82.366 
           2555         84.6484 
           2565         27.8251 
           2575         74.8502 
           2585         31.9008 
           2595         52.9126 
           2605         83.6396 
           2615         56.3864 
           2625         123.593 
           2635         263.957 
           2645         197.136 
           2655          319.73 
           2665         247.094 
           2675         186.648 
           2685         275.659 
           2695         142.563 
           2705         377.341 
           2715         324.991 
           2725         256.144 
           2735         271.469 
           2745         448.474 
           2755         399.228 
           2765          618.37 
           2775         800.754 
           2785         400.892 
           2795         451.172 
           2805           481.3 
           2815         497.331 
           2825         496.271 
           2835         331.725 
           2845         156.537 
           2855          44.723 
           2865         348.373 
           2875         483.216 
           2885         907.512 
           2895         1222.06 
           2910         1702.16 
           2930         2165.79 
           2950         2201.59 
           2970         2109.68 
           2990         2854.68 
           3010         3159.25 
           3030         3618.63 
           3050         4465.68 
           3070         3443.32 
           3090         2979.32 
           3110         4589.49 
           3130         4361.45 
           3150         5687.48 
           3170         8470.03 
           3190         8219.03 
           3210         9614.84 
           3230         10575.5 
           3250         15369.5 
           3270         18547.7 
           3290         21054.7 
           3310         19395.7 
           3330         19216.1 
           3350           17559 
           3370         11785.3 
           3390         17060.5 
           3410         20872.2 
           3430         26038.3 
           3450         25061.2 
           3470         27382.2 
           3490         32457.8 
           3510         40522.5 
           3530         39889.3 
           3550           52074 
           3570         39346.3 
           3590         38491.1 
           3610         47671.9 
           3630         54335.6 
           3640         59732.6 
           3650         59728.1 
           3670         70641.8 
           3690         65816.5 
           3710         61632.7 
           3730         36684.9 
           3750         47141.7 
           3770         75627.4 
           3790         80302.3 
           3810         82085.2 
           3830         50673.5 
           3850         73254.1 
           3870         71097.9 
           3890         74536.3 
           3910         83280.1 
           3930         36182.8 
           3950         73863.4 
           3970         50635.7 
           3990          111624 
           4010          131510 
           4030          119763 
           4050          130351 
           4070          128373 
           4090          131884 
           4110         85858.7 
           4130          106776 
           4150         95181.5 
           4170         94045.3 
           4190          109265 
           4210          108382 
           4230         99272.9 
           4250          129370 
           4270          128706 
           4290          130739 
           4310          140926 
           4330          176679 
           4350          183410 
           4370          187683 
           4390          183574 
           4410          191837 
           4430          202965 
           4450          209458 
           4470          224670 
           4490          234838 
           4510          248170 
           4530          230544 
           4550          247702 
           4570          257155 
           4590          261732 
           4610          269658 
           4630          277193 
           4650          272479 
           4670          288944 
           4690          287855 
           4710          286248 
           4730          288446 
           4750          287876 
           4770          265813 
           4790          272678 
           4810          305179 
           4830          305758 
           4850          322076 
           4870          324725 
           4890          331843 
           4910          336661 
           4930          329068 
           4950          324969 
           4970          318653 
           4990          304711 
           5010          281345 
           5030          289967 
           5050          276138 
           5070          269215 
           5090          262203 
           5110          257413 
           5130          248854 
           5150          234482 
           5170          239380 
           5190          271889 
           5210          288000 
           5230          396949 
           5250          405221 
           5270          388518 
           5290          417438 
           5310          436492 
           5330          417150 
           5350          434451 
           5370          437584 
           5390          434991 
           5410          440005 
           5430          437945 
           5450          439189 
           5470          449128 
           5490          454199 
           5510          446800 
           5530          471292 
           5550          477551 
           5570          476022 
           5590          468198 
           5610          476728 
           5630          492851 
           5650          504957 
           5670          503604 
           5690          512777 
           5710          506753 
           5730          520341 
           5750          526458 
           5770          528835 
           5790          531043 
           5810          534111 
           5830          541027 
           5850          537785 
           5870          537057 
           5890          482975 
           5910          536941 
           5930          541436 
           5950          544070 
           5970          553865 
           5990          558215 
           6010          562496 
           6030          568561 
           6050          572878 
           6070          573137 
           6090          574316 
           6110          576960 
           6130          564459 
           6150          581731 
           6170          554710 
           6190          575112 
           6210          574442 
           6230          570478 
           6250          567035 
           6270          580404 
           6290          589898 
           6310          596118 
           6330          601505 
           6350          609429 
           6370          609210 
           6390          612368 
           6410          611294 
           6430          611206 
           6450          609740 
           6470          613518 
           6490          612050 
           6510          624153 
           6530          632572 
           6550          627029 
           6570          627703 
           6590          634699 
           6610          636529 
           6630          640399 
           6650          637644 
           6670          634012 
           6690          633240 
           6710          632893 
           6730          630709 
           6750          629755 
           6770          641123 
           6790          639100 
           6810          644718 
           6830          650526 
           6850          653661 
           6870          654315 
           6890          659981 
           6910          663646 
           6930          664630 
           6950          666472 
           6970          671346 
           6990          671388 
           7010          674033 
           7030          676004 
           7050          671856 
           7070          658760 
           7090          651436 
           7110          653887 
           7130          640983 
           7150          641050 
           7170          655418 
           7190          663400 
           7210          658695 
           7230          675005 
           7250          672232 
           7270          683472 
           7290          687283 
           7310          688780 
           7330          687600 
           7350          686561 
           7370          693258 
           7390          694932 
           7410          694891 
           7430          696410 
           7450          697427 
           7470          698153 
           7490          699466 
           7510          700889 
           7530          702486 
           7550          702669 
           7570          703957 
           7590          701887 
           7610          701845 
           7630          701471 
           7650          701284 
           7670          690395 
           7690          698467 
           7710          693010 
           7730          700966 
           7750          699235 
           7770          701942 
           7790          702874 
           7810          705456 
           7830          704744 
           7850          704459 
           7870          707026 
           7890          707985 
           7910          707179 
           7930          708290 
           7950          706638 
           7970          710509 
           7990          709730 
           8010          710477 
           8030          710740 
           8050          709363 
           8070          709265 
           8090          711000 
           8110          710992 
           8130          711431 
           8150          711914 
           8170          711762 
           8190          703629 
           8210          707303 
           8230          709487 
           8250          709538 
           8270          710297 
           8290          709121 
           8310          706967 
           8330          700699 
           8350          706802 
           8370          703751 
           8390          679741 
           8410          701972 
           8430          683908 
           8450          704681 
           8470          700097 
           8490          702029 
           8510          683751 
           8530          701880 
           8550          655002 
           8570          705295 
