# Kurucz ODFNEW /NOVER (2003)
# teff = 28000 K (value for the effective temperature for the model. Temperatures are given in K)
# logg = 4.5 log(cm/s2) (value for Log(G) for the model.)
# meta = -4  (value for the Metallicity for the model.)
# lh = 1.25  (l/Hp where l is the  mixing length of the convective element and Hp is the pressure scale height)
# vtur = 2 km/s (Microturbulence velocity)
# alpha = 0.4  (Alpha)
#
# column 1: WAVELENGTH (ANGSTROM), Wavelength in Angstrom
# column 2: FLUX (ERG/CM2/S/A), Flux in erg/cm2/s/A
          147.2     2.30355e-10 
            151     9.32546e-10 
          155.2      4.02676e-9 
          158.8      1.32318e-8 
            162      3.63738e-8 
            166       1.2158e-7 
          170.3      4.16386e-7 
          173.4      9.72046e-7 
          176.8      2.37633e-6 
          180.2      5.60696e-6 
          181.7      8.10094e-6 
          186.1      2.29954e-5 
            191      6.92325e-5 
          193.9      0.00012929 
          198.4     0.000327961 
          201.8     0.000643581 
            205      0.00118778 
          210.5      0.00325137 
          216.2      0.00871575 
          219.8       0.0157969 
            223        0.026342 
          226.8       0.0473872 
            230        0.244475 
            234        0.536012 
            240         1.14791 
          246.5         2.52082 
          252.4         4.99426 
          256.8         7.59614 
            260         11.2952 
            264         17.0154 
          268.5         26.5432 
          273.5         42.7197 
          278.5         67.6452 
            284         109.895 
            290         182.425 
            296         295.816 
            301         432.486 
            308         701.404 
            318         1484.02 
            328         2860.28 
            338         5284.71 
            348         9401.75 
            357         15310.8 
            366         24312.9 
            375         37644.8 
            385         59613.3 
            395         91953.1 
            405          138526 
            414          196590 
            422          264496 
            430          351404 
            441          509826 
            451          702151 
            460          923842 
            470      1.23581e+6 
            480      1.62973e+6 
            490      2.12199e+6 
            500      2.72797e+6 
            506      1.61176e+7 
            512       5.3048e+7 
            520      5.86285e+7 
            530      7.25885e+7 
            540      7.28473e+7 
            550       8.8344e+7 
            560      9.67183e+7 
            570      1.06154e+8 
            580      1.05345e+8 
            590      1.24177e+8 
            600      1.37831e+8 
            610      1.49953e+8 
            620      1.62511e+8 
            630      1.76016e+8 
            640      1.89836e+8 
            650      2.04985e+8 
            658      2.17355e+8 
            665      2.28512e+8 
            675      2.44505e+8 
            685      2.60638e+8 
            695      2.80044e+8 
            705      2.97495e+8 
            716      3.18789e+8 
            726      3.38407e+8 
            735      3.57291e+8 
            745      3.78077e+8 
            755      3.99342e+8 
            765      4.21028e+8 
            775      4.43344e+8 
            785      4.66014e+8 
            795      4.88948e+8 
            805      5.12414e+8 
            815      5.36102e+8 
            825      5.60203e+8 
            835      5.79393e+8 
            845      6.09183e+8 
            855      6.33925e+8 
            865      6.58978e+8 
            875      6.84202e+8 
            885       7.0952e+8 
            895      7.34905e+8 
            905      7.59645e+8 
            915      1.01901e+9 
            925       6.1056e+9 
            935     1.46874e+10 
            945     3.55972e+10 
            955     4.53839e+10 
            965     5.92144e+10 
            975     3.04938e+10 
            985     6.41029e+10 
            995     6.03513e+10 
           1005     6.28787e+10 
           1015      5.8139e+10 
           1025     2.33752e+10 
           1035     5.32691e+10 
           1045     5.67289e+10 
           1055     5.56687e+10 
           1065      5.3934e+10 
           1075     5.27266e+10 
           1085     4.91063e+10 
           1095     5.04128e+10 
           1105     4.87147e+10 
           1115     4.77417e+10 
           1125     4.61199e+10 
           1135     4.56207e+10 
           1145     4.44394e+10 
           1155     4.33626e+10 
           1165     4.23105e+10 
           1175     3.93095e+10 
           1185     4.01485e+10 
           1195     3.88278e+10 
           1205     3.53295e+10 
           1215     1.50842e+10 
           1225     3.31986e+10 
           1235     3.52937e+10 
           1245     3.46974e+10 
           1255     3.40941e+10 
           1265     3.33429e+10 
           1275     3.25833e+10 
           1285      3.1834e+10 
           1295     3.06636e+10 
           1305     3.02242e+10 
           1315     2.97466e+10 
           1325      2.9089e+10 
           1335     2.81581e+10 
           1345      2.7843e+10 
           1355     2.72202e+10 
           1365     2.66065e+10 
           1375     2.60236e+10 
           1385     2.54567e+10 
           1395     2.46381e+10 
           1405     2.41779e+10 
           1415     2.38957e+10 
           1425     2.34113e+10 
           1435     2.29269e+10 
           1442     2.25907e+10 
           1447     2.23485e+10 
           1455     2.19771e+10 
           1465     2.15254e+10 
           1475     2.10787e+10 
           1485      2.0642e+10 
           1495     2.02151e+10 
           1505     1.97976e+10 
           1512     1.95208e+10 
           1517     1.93236e+10 
           1525     1.90226e+10 
           1535     1.86508e+10 
           1545     1.81955e+10 
           1555     1.78594e+10 
           1565     1.76027e+10 
           1575     1.72675e+10 
           1585     1.69288e+10 
           1595     1.65958e+10 
           1605     1.62668e+10 
           1615     1.59533e+10 
           1625     1.56577e+10 
           1635     1.52835e+10 
           1645     1.46444e+10 
           1655      1.4805e+10 
           1665     1.45352e+10 
           1672     1.43518e+10 
           1677     1.42235e+10 
           1685     1.40184e+10 
           1695     1.37683e+10 
           1705     1.35217e+10 
           1715     1.32761e+10 
           1725     1.30315e+10 
           1735     1.27991e+10 
           1745     1.25674e+10 
           1755     1.23427e+10 
           1765      1.2121e+10 
           1775     1.19086e+10 
           1785     1.17059e+10 
           1795     1.15095e+10 
           1805     1.13174e+10 
           1815     1.11282e+10 
           1825     1.09398e+10 
           1835     1.07573e+10 
           1845     1.05738e+10 
           1855     1.03852e+10 
           1865     1.02173e+10 
           1875     1.00529e+10 
           1885       9.8815e+9 
           1895       9.7094e+9 
           1905      9.55728e+9 
           1915      9.39311e+9 
           1925      9.24341e+9 
           1935      9.09811e+9 
           1945       8.9559e+9 
           1955      8.81011e+9 
           1967      8.64919e+9 
           1976      8.52939e+9 
           1984      8.42188e+9 
           1995      8.27597e+9 
           2005      8.15324e+9 
           2015      8.02695e+9 
           2025      7.90138e+9 
           2035      7.77771e+9 
           2045       7.6585e+9 
           2055       7.3588e+9 
           2065      7.23275e+9 
           2074        7.147e+9 
           2078        7.112e+9 
           2085      7.08062e+9 
           2095       7.0495e+9 
           2105       6.9888e+9 
           2115      6.89398e+9 
           2125      6.79379e+9 
           2135      6.69401e+9 
           2145      6.59441e+9 
           2155      6.50244e+9 
           2165      6.40216e+9 
           2175       6.3142e+9 
           2185      6.21693e+9 
           2195      6.13429e+9 
           2205      6.04562e+9 
           2215      5.95099e+9 
           2225      5.87327e+9 
           2235      5.78961e+9 
           2245       5.7075e+9 
           2255      5.61891e+9 
           2265      5.54869e+9 
           2275      5.47193e+9 
           2285      5.39657e+9 
           2295      5.31059e+9 
           2305      5.24065e+9 
           2315      5.17691e+9 
           2325      5.10641e+9 
           2335      5.03727e+9 
           2345      4.96939e+9 
           2355      4.90269e+9 
           2365      4.83727e+9 
           2375      4.77271e+9 
           2385      4.70218e+9 
           2395      4.64578e+9 
           2405      4.58378e+9 
           2415      4.52297e+9 
           2425      4.46351e+9 
           2435      4.40532e+9 
           2445      4.34787e+9 
           2455      4.29108e+9 
           2465      4.23526e+9 
           2475      4.18038e+9 
           2485      4.12655e+9 
           2495      4.04113e+9 
           2505      4.02177e+9 
           2513      3.96781e+9 
           2518      3.95569e+9 
           2525      3.92067e+9 
           2535      3.87145e+9 
           2545      3.82277e+9 
           2555       3.7749e+9 
           2565      3.72777e+9 
           2575      3.68137e+9 
           2585      3.63581e+9 
           2595      3.59083e+9 
           2605       3.5682e+9 
           2615      3.52416e+9 
           2625      3.48047e+9 
           2635      3.43424e+9 
           2645      3.39077e+9 
           2655      3.34539e+9 
           2665      3.29917e+9 
           2675      3.25496e+9 
           2685      3.23432e+9 
           2695      3.17348e+9 
           2705      3.15732e+9 
           2715      3.11974e+9 
           2725      3.05858e+9 
           2735      3.04301e+9 
           2745      3.01048e+9 
           2755      2.97516e+9 
           2765        2.915e+9 
           2775      2.90572e+9 
           2785      2.87187e+9 
           2795      2.83814e+9 
           2805      2.80559e+9 
           2815      2.77333e+9 
           2825      2.71191e+9 
           2835      2.69656e+9 
           2845      2.67917e+9 
           2855      2.64861e+9 
           2865      2.61849e+9 
           2875      2.58882e+9 
           2885      2.55959e+9 
           2895       2.5307e+9 
           2910      2.48817e+9 
           2930      2.43304e+9 
           2950      2.36129e+9 
           2970      2.32707e+9 
           2990      2.27632e+9 
           3010      2.22696e+9 
           3030      2.17903e+9 
           3050       2.1324e+9 
           3070      2.08708e+9 
           3090      2.04291e+9 
           3110      1.99993e+9 
           3130      1.96011e+9 
           3150      1.91924e+9 
           3170      1.87909e+9 
           3190      1.82373e+9 
           3210      1.80122e+9 
           3230       1.7649e+9 
           3250       1.7288e+9 
           3270      1.69599e+9 
           3290      1.65966e+9 
           3310      1.62894e+9 
           3330      1.59659e+9 
           3350      1.56217e+9 
           3370      1.53436e+9 
           3390      1.50445e+9 
           3410      1.47525e+9 
           3430      1.44045e+9 
           3450      1.40763e+9 
           3470      1.38494e+9 
           3490       1.3585e+9 
           3510      1.33542e+9 
           3530       1.3128e+9 
           3550      1.28846e+9 
           3570      1.27217e+9 
           3590      1.23968e+9 
           3610      1.22089e+9 
           3630      1.19455e+9 
           3640      1.19275e+9 
           3650      1.17901e+9 
           3670      1.16253e+9 
           3690      1.14028e+9 
           3710      1.10117e+9 
           3730      1.05617e+9 
           3750      1.06926e+9 
           3770      1.05449e+9 
           3790      1.10296e+9 
           3810      1.14819e+9 
           3830      1.00184e+9 
           3850      1.17539e+9 
           3870      1.18893e+9 
           3890      9.44182e+8 
           3910      1.16567e+9 
           3930      1.15432e+9 
           3950      1.12769e+9 
           3970      8.76133e+8 
           3990       1.0799e+9 
           4010      1.07569e+9 
           4030      1.01087e+9 
           4050      1.05043e+9 
           4070      1.02808e+9 
           4090      9.40467e+8 
           4110      8.20115e+8 
           4130       9.6227e+8 
           4150      9.53674e+8 
           4170      9.46043e+8 
           4190      9.32097e+8 
           4210      9.16121e+8 
           4230      9.00635e+8 
           4250        8.854e+8 
           4270      8.70452e+8 
           4290      8.54596e+8 
           4310      8.35124e+8 
           4330      7.52076e+8 
           4350      6.85688e+8 
           4370       7.9203e+8 
           4390      7.62603e+8 
           4410      7.74124e+8 
           4430      7.58531e+8 
           4450      7.49483e+8 
           4470      7.02178e+8 
           4490      7.24883e+8 
           4510      7.13949e+8 
           4530      7.02555e+8 
           4550      6.91242e+8 
           4570      6.80407e+8 
           4590       6.6968e+8 
           4610      6.59167e+8 
           4630      6.48845e+8 
           4650      6.38728e+8 
           4670       6.2883e+8 
           4690      6.18049e+8 
           4710      6.01959e+8 
           4730      6.00315e+8 
           4750      5.91163e+8 
           4770      5.82142e+8 
           4790      5.73301e+8 
           4810      5.63447e+8 
           4830      5.51653e+8 
           4850      5.06272e+8 
           4870       4.5196e+8 
           4890      5.25012e+8 
           4910      5.21431e+8 
           4930      5.02003e+8 
           4950      5.08425e+8 
           4970      5.00986e+8 
           4990       4.9368e+8 
           5010      4.80366e+8 
           5030      4.79472e+8 
           5050      4.69787e+8 
           5070      4.65795e+8 
           5090      4.59103e+8 
           5110      4.52544e+8 
           5130      4.46116e+8 
           5150      4.39789e+8 
           5170       4.3356e+8 
           5190      4.27455e+8 
           5210       4.2146e+8 
           5230       4.1557e+8 
           5250      4.09786e+8 
           5270      4.04104e+8 
           5290       3.9851e+8 
           5310      3.93029e+8 
           5330      3.87631e+8 
           5350      3.82343e+8 
           5370      3.77123e+8 
           5390      3.72008e+8 
           5410      3.66907e+8 
           5430      3.62012e+8 
           5450       3.5714e+8 
           5470      3.52355e+8 
           5490      3.47655e+8 
           5510      3.43039e+8 
           5530      3.38492e+8 
           5550      3.34014e+8 
           5570      3.29617e+8 
           5590      3.25285e+8 
           5610      3.21031e+8 
           5630      3.16852e+8 
           5650      3.12725e+8 
           5670      3.08671e+8 
           5690      3.04678e+8 
           5710      3.00756e+8 
           5730      2.96893e+8 
           5750      2.93088e+8 
           5770      2.89351e+8 
           5790      2.85682e+8 
           5810      2.82055e+8 
           5830      2.78494e+8 
           5850      2.74997e+8 
           5870      2.62816e+8 
           5890      2.67713e+8 
           5910      2.64814e+8 
           5930      2.61531e+8 
           5950      2.58297e+8 
           5970       2.5511e+8 
           5990      2.51961e+8 
           6010      2.48868e+8 
           6030      2.45821e+8 
           6050      2.42819e+8 
           6070      2.39872e+8 
           6090      2.36959e+8 
           6110      2.34098e+8 
           6130       2.3128e+8 
           6150      2.28503e+8 
           6170      2.25767e+8 
           6190      2.23072e+8 
           6210      2.20416e+8 
           6230        2.178e+8 
           6250      2.15222e+8 
           6270      2.12682e+8 
           6290      2.10189e+8 
           6310      2.07723e+8 
           6330      2.05294e+8 
           6350        2.029e+8 
           6370      2.00542e+8 
           6390      1.98218e+8 
           6410      1.95929e+8 
           6430      1.93664e+8 
           6450      1.91441e+8 
           6470      1.89252e+8 
           6490      1.87085e+8 
           6510      1.84755e+8 
           6530      1.81849e+8 
           6550      1.73206e+8 
           6570      1.53729e+8 
           6590      1.74701e+8 
           6610      1.74293e+8 
           6630      1.72788e+8 
           6650      1.70967e+8 
           6670      1.67183e+8 
           6690      1.65368e+8 
           6710      1.65346e+8 
           6730      1.63516e+8 
           6750      1.61722e+8 
           6770      1.59946e+8 
           6790      1.58196e+8 
           6810      1.56464e+8 
           6830      1.54766e+8 
           6850      1.53084e+8 
           6870      1.51428e+8 
           6890      1.49788e+8 
           6910      1.48173e+8 
           6930      1.46582e+8 
           6950      1.45014e+8 
           6970      1.43462e+8 
           6990      1.41932e+8 
           7010      1.40426e+8 
           7030      1.38942e+8 
           7050      1.37473e+8 
           7070      1.33712e+8 
           7090      1.34592e+8 
           7110       1.3318e+8 
           7130      1.31789e+8 
           7150      1.30412e+8 
           7170      1.29033e+8 
           7190      1.27719e+8 
           7210      1.26395e+8 
           7230      1.25091e+8 
           7250      1.23807e+8 
           7270      1.22535e+8 
           7290      1.20227e+8 
           7310      1.20021e+8 
           7330      1.18813e+8 
           7350      1.17609e+8 
           7370      1.16417e+8 
           7390      1.15236e+8 
           7410      1.14079e+8 
           7430      1.12927e+8 
           7450      1.11812e+8 
           7470      1.10695e+8 
           7490      1.09587e+8 
           7510      1.08456e+8 
           7530      1.07416e+8 
           7550      1.06352e+8 
           7570      1.05304e+8 
           7590      1.04266e+8 
           7610      1.03237e+8 
           7630      1.02225e+8 
           7650      1.01221e+8 
           7670      1.00233e+8 
           7690      9.92595e+7 
           7710      9.82953e+7 
           7730      9.73396e+7 
           7750      9.63988e+7 
           7770      9.54726e+7 
           7790      9.45547e+7 
           7810      9.35893e+7 
           7830      9.27492e+7 
           7850      9.19593e+7 
           7870      9.10789e+7 
           7890      9.01699e+7 
           7910      8.93593e+7 
           7930      8.85137e+7 
           7950      8.76755e+7 
           7970      8.66904e+7 
           7990      8.58498e+7 
           8010      8.50223e+7 
           8030      8.42196e+7 
           8050      8.34354e+7 
           8070      8.27215e+7 
           8090      8.18122e+7 
           8110      8.11858e+7 
           8130       8.0462e+7 
           8150      7.96536e+7 
           8170       7.9027e+7 
           8190      7.81978e+7 
           8210      7.73869e+7 
           8230      7.68889e+7 
           8250      7.62177e+7 
           8270      7.51554e+7 
           8290      7.47877e+7 
           8310      7.41445e+7 
           8330      7.34306e+7 
           8350      7.24092e+7 
           8370      7.20098e+7 
           8390      7.14689e+7 
           8410      7.08311e+7 
           8430      7.01402e+7 
           8450      6.90277e+7 
           8470      6.88701e+7 
           8490      6.80966e+7 
           8510      6.75324e+7 
           8530      6.68847e+7 
           8550      6.58816e+7 
           8570      6.62618e+7 
