# Kurucz ODFNEW /NOVER (2003)
# teff = 20000 K (value for the effective temperature for the model. Temperatures are given in K)
# logg = 3.5 log(cm/s2) (value for Log(G) for the model.)
# meta = -1  (value for the Metallicity for the model.)
# lh = 1.25  (l/Hp where l is the  mixing length of the convective element and Hp is the pressure scale height)
# vtur = 2 km/s (Microturbulence velocity)
# alpha = 0  (Alpha)
#
# column 1: WAVELENGTH (ANGSTROM), Wavelength in Angstrom
# column 2: FLUX (ERG/CM2/S/A), Flux in erg/cm2/s/A
          147.2     4.83208e-20 
            151      3.0831e-19 
          155.2       2.164e-18 
          158.8     1.06441e-17 
            162     4.14856e-17 
            166     2.11798e-16 
          170.3     1.12592e-15 
          173.4     3.57515e-15 
          176.8     1.21377e-14 
          180.2     3.94062e-14 
          181.7     6.53525e-14 
          186.1     2.75456e-13 
            191     1.26668e-12 
          193.9     3.01466e-12 
          198.4     1.10188e-11 
          201.8     2.82497e-11 
            205     6.66074e-11 
          210.5     2.73699e-10 
          216.2      1.09741e-9 
          219.8      2.54163e-9 
            223       5.2397e-9 
          226.8      1.20427e-8 
            230      8.08366e-8 
            234      2.05338e-7 
            240       6.3214e-7 
          246.5      2.00057e-6 
          252.4       5.4428e-6 
          256.8      1.08844e-5 
            260      1.82998e-5 
            264      3.36546e-5 
          268.5      6.52267e-5 
          273.5     0.000132501 
          278.5      0.00026278 
            284     0.000542282 
            290      0.00115563 
            296      0.00238281 
            301      0.00426165 
            308       0.0091744 
            318        0.026712 
            328       0.0714527 
            338        0.180632 
            348        0.430938 
            357        0.903833 
            366         1.82566 
            375         3.53998 
            385         7.12691 
            395         13.7965 
            405         25.8112 
            414         44.1404 
            422         69.5224 
            430         107.383 
            441         190.944 
            451          313.31 
            460         478.977 
            470         752.691 
            480         1157.43 
            490         1747.45 
            500         2589.19 
            506         20612.7 
            512         68531.4 
            520         88787.8 
            530          129991 
            540          148315 
            550          224319 
            560          279364 
            570          359128 
            580          368644 
            590          509672 
            600          661683 
            610          820260 
            620          974665 
            630      1.17281e+6 
            640      1.34311e+6 
            650      1.54562e+6 
            658      1.86283e+6 
            665      2.05579e+6 
            675      2.32797e+6 
            685      2.67815e+6 
            695      3.19377e+6 
            705      3.62013e+6 
            716      4.19361e+6 
            726      4.70494e+6 
            735      5.25486e+6 
            745      6.01443e+6 
            755      6.76695e+6 
            765      7.56388e+6 
            775      8.47763e+6 
            785      9.44781e+6 
            795      1.03746e+7 
            805      1.14282e+7 
            815      1.24653e+7 
            825       1.3816e+7 
            835      1.47709e+7 
            845      1.62442e+7 
            855      1.76212e+7 
            865      1.92694e+7 
            875      2.10609e+7 
            885       2.2945e+7 
            895      2.47274e+7 
            905      2.60193e+7 
            915      4.56814e+7 
            925         3.52e+8 
            935      1.38014e+9 
            945      4.30464e+9 
            955      6.33566e+9 
            965      8.04655e+9 
            975      2.00197e+9 
            985      8.97689e+9 
            995      8.60367e+9 
           1005      9.38742e+9 
           1015      8.68885e+9 
           1025       2.7278e+9 
           1035       6.6429e+9 
           1045     1.02591e+10 
           1055      9.76733e+9 
           1065      8.59696e+9 
           1075      9.60972e+9 
           1085      8.71048e+9 
           1095      9.59462e+9 
           1105      8.83954e+9 
           1115      8.81533e+9 
           1125      8.05594e+9 
           1135      9.01098e+9 
           1145      8.36318e+9 
           1155      8.65642e+9 
           1165      8.77826e+9 
           1175       7.0512e+9 
           1185      8.60195e+9 
           1195      7.49937e+9 
           1205       5.2832e+9 
           1215      2.01839e+9 
           1225      6.28324e+9 
           1235      7.72712e+9 
           1245      7.89661e+9 
           1255      7.66746e+9 
           1265       7.4516e+9 
           1275      7.67769e+9 
           1285      7.55227e+9 
           1295      6.22235e+9 
           1305      6.27269e+9 
           1315      7.24974e+9 
           1325      6.91948e+9 
           1335      6.50062e+9 
           1345      6.78666e+9 
           1355      6.75559e+9 
           1365      6.41879e+9 
           1375      6.32935e+9 
           1385      6.33589e+9 
           1395       5.7556e+9 
           1405      5.92797e+9 
           1415      5.94891e+9 
           1425        5.885e+9 
           1435      5.89968e+9 
           1442      5.94835e+9 
           1447      5.84776e+9 
           1455      5.74252e+9 
           1465       5.5345e+9 
           1475      5.47737e+9 
           1485      5.36234e+9 
           1495      5.29168e+9 
           1505      5.05777e+9 
           1512      4.73865e+9 
           1517      4.84677e+9 
           1525       4.8662e+9 
           1535      4.51441e+9 
           1545      4.60072e+9 
           1555      4.38625e+9 
           1565      4.48988e+9 
           1575      4.58218e+9 
           1585       4.5199e+9 
           1595       4.5253e+9 
           1605      4.39874e+9 
           1615       4.3388e+9 
           1625      4.27715e+9 
           1635      4.33801e+9 
           1645      4.27123e+9 
           1655      4.15746e+9 
           1665      4.24452e+9 
           1672      4.09963e+9 
           1677      4.19511e+9 
           1685      4.15126e+9 
           1695      4.01588e+9 
           1705      3.87923e+9 
           1715      3.74421e+9 
           1725      3.70105e+9 
           1735      3.74924e+9 
           1745      3.66074e+9 
           1755       3.7006e+9 
           1765      3.50508e+9 
           1775      3.49703e+9 
           1785      3.48846e+9 
           1795      3.52266e+9 
           1805       3.5012e+9 
           1815      3.31303e+9 
           1825      3.35747e+9 
           1835      3.28081e+9 
           1845      3.07712e+9 
           1855      3.01316e+9 
           1865      3.04483e+9 
           1875      3.13171e+9 
           1885      2.89415e+9 
           1895      2.74493e+9 
           1905      2.89433e+9 
           1915      2.77152e+9 
           1925      2.69542e+9 
           1935      2.76654e+9 
           1945      2.79951e+9 
           1955      2.61235e+9 
           1967      2.73023e+9 
           1976      2.79881e+9 
           1984      2.64765e+9 
           1995      2.57954e+9 
           2005      2.61872e+9 
           2015      2.60847e+9 
           2025      2.64644e+9 
           2035      2.50615e+9 
           2045      2.49998e+9 
           2055      2.43031e+9 
           2065       2.4495e+9 
           2074      2.51411e+9 
           2078      2.38666e+9 
           2085      2.41859e+9 
           2095      2.32551e+9 
           2105      2.35916e+9 
           2115      2.34128e+9 
           2125      2.36602e+9 
           2135      2.31878e+9 
           2145      2.23973e+9 
           2155      2.27691e+9 
           2165      2.24741e+9 
           2175      2.21723e+9 
           2185      2.18507e+9 
           2195      2.18413e+9 
           2205      2.14995e+9 
           2215      2.11983e+9 
           2225      2.07601e+9 
           2235      2.06736e+9 
           2245      2.05705e+9 
           2255      2.01129e+9 
           2265      2.01325e+9 
           2275      1.98744e+9 
           2285       1.9796e+9 
           2295      1.91983e+9 
           2305      1.92427e+9 
           2315      1.88631e+9 
           2325      1.86942e+9 
           2335      1.82228e+9 
           2345      1.79355e+9 
           2355      1.80477e+9 
           2365      1.76644e+9 
           2375       1.7552e+9 
           2385      1.72442e+9 
           2395      1.72155e+9 
           2405      1.69469e+9 
           2415      1.67229e+9 
           2425      1.67697e+9 
           2435      1.64124e+9 
           2445      1.63257e+9 
           2455      1.62717e+9 
           2465      1.59627e+9 
           2475      1.58247e+9 
           2485      1.56885e+9 
           2495      1.52277e+9 
           2505      1.53693e+9 
           2513      1.49107e+9 
           2518       1.5135e+9 
           2525      1.49129e+9 
           2535      1.46677e+9 
           2545      1.44788e+9 
           2555      1.45786e+9 
           2565      1.43357e+9 
           2575      1.43235e+9 
           2585      1.41807e+9 
           2595      1.40286e+9 
           2605      1.39577e+9 
           2615      1.38198e+9 
           2625      1.36737e+9 
           2635      1.35022e+9 
           2645      1.35328e+9 
           2655      1.33936e+9 
           2665      1.31639e+9 
           2675      1.30946e+9 
           2685      1.30328e+9 
           2695      1.27672e+9 
           2705      1.27409e+9 
           2715      1.25854e+9 
           2725      1.23638e+9 
           2735      1.23677e+9 
           2745      1.20223e+9 
           2755      1.19674e+9 
           2765      1.18677e+9 
           2775      1.19056e+9 
           2785      1.17552e+9 
           2795       1.1393e+9 
           2805      1.14661e+9 
           2815      1.14532e+9 
           2825      1.12396e+9 
           2835       1.1025e+9 
           2845      1.10729e+9 
           2855      1.09853e+9 
           2865       1.0911e+9 
           2875       1.0791e+9 
           2885      1.06969e+9 
           2895      1.05934e+9 
           2910      1.04427e+9 
           2930      1.02185e+9 
           2950      9.97657e+8 
           2970      9.86273e+8 
           2990      9.65748e+8 
           3010       9.4884e+8 
           3030      9.33565e+8 
           3050      9.16259e+8 
           3070      8.99523e+8 
           3090      8.81683e+8 
           3110      8.66874e+8 
           3130      8.52293e+8 
           3150      8.36911e+8 
           3170       8.2121e+8 
           3190      8.00727e+8 
           3210      7.92608e+8 
           3230      7.78598e+8 
           3250      7.65158e+8 
           3270       7.5262e+8 
           3290       7.3866e+8 
           3310      7.27147e+8 
           3330      7.14634e+8 
           3350      7.01192e+8 
           3370      6.90472e+8 
           3390      6.78907e+8 
           3410      6.67532e+8 
           3430      6.53622e+8 
           3450      6.40685e+8 
           3470      6.31788e+8 
           3490      6.21598e+8 
           3510       6.1426e+8 
           3530       6.0484e+8 
           3550      5.95234e+8 
           3570      5.87844e+8 
           3590      5.75467e+8 
           3610      5.66651e+8 
           3630      5.57279e+8 
           3640      5.55814e+8 
           3650      5.47399e+8 
           3670      5.40778e+8 
           3690      5.24529e+8 
           3710      5.16124e+8 
           3730      5.10821e+8 
           3750      5.70003e+8 
           3770       5.7802e+8 
           3790      6.07736e+8 
           3810      6.35629e+8 
           3830      5.54735e+8 
           3850      6.52481e+8 
           3870      6.51842e+8 
           3890      5.28394e+8 
           3910      6.42836e+8 
           3930      6.27407e+8 
           3950      6.22397e+8 
           3970      4.91609e+8 
           3990      5.98835e+8 
           4010      5.92923e+8 
           4030      5.62697e+8 
           4050      5.79593e+8 
           4070      5.66564e+8 
           4090       5.2953e+8 
           4110       4.6181e+8 
           4130      5.32774e+8 
           4150      5.28635e+8 
           4170      5.23815e+8 
           4190      5.17603e+8 
           4210      5.09891e+8 
           4230      5.01523e+8 
           4250      4.93289e+8 
           4270      4.82397e+8 
           4290      4.77705e+8 
           4310      4.68253e+8 
           4330      4.29356e+8 
           4350      3.90636e+8 
           4370      4.45994e+8 
           4390      4.31774e+8 
           4410      4.35092e+8 
           4430      4.26892e+8 
           4450      4.22664e+8 
           4470      4.01016e+8 
           4490      4.08514e+8 
           4510      4.04139e+8 
           4530       3.9777e+8 
           4550      3.91806e+8 
           4570      3.85985e+8 
           4590      3.80519e+8 
           4610      3.74742e+8 
           4630      3.69104e+8 
           4650      3.63113e+8 
           4670      3.58662e+8 
           4690      3.53812e+8 
           4710      3.43817e+8 
           4730      3.42296e+8 
           4750      3.37082e+8 
           4770      3.34029e+8 
           4790      3.29161e+8 
           4810      3.24019e+8 
           4830      3.18225e+8 
           4850      2.96755e+8 
           4870      2.64508e+8 
           4890      3.04477e+8 
           4910      3.01798e+8 
           4930      2.91837e+8 
           4950      2.94034e+8 
           4970      2.90132e+8 
           4990      2.86071e+8 
           5010      2.78148e+8 
           5030      2.78204e+8 
           5050      2.72016e+8 
           5070      2.70827e+8 
           5090      2.67176e+8 
           5110      2.63502e+8 
           5130      2.59748e+8 
           5150      2.56271e+8 
           5170      2.53193e+8 
           5190      2.49833e+8 
           5210      2.46086e+8 
           5230      2.43285e+8 
           5250      2.40095e+8 
           5270      2.36934e+8 
           5290      2.33907e+8 
           5310      2.30839e+8 
           5330       2.2781e+8 
           5350      2.24728e+8 
           5370      2.22051e+8 
           5390        2.192e+8 
           5410      2.16386e+8 
           5430       2.1344e+8 
           5450      2.10837e+8 
           5470      2.08177e+8 
           5490      2.05613e+8 
           5510      2.03006e+8 
           5530      2.00457e+8 
           5550      1.97987e+8 
           5570      1.95499e+8 
           5590      1.93102e+8 
           5610      1.90638e+8 
           5630      1.88371e+8 
           5650      1.85742e+8 
           5670      1.83496e+8 
           5690      1.81278e+8 
           5710      1.79271e+8 
           5730      1.77103e+8 
           5750      1.74939e+8 
           5770       1.7288e+8 
           5790      1.70789e+8 
           5810      1.68733e+8 
           5830      1.66702e+8 
           5850      1.64727e+8 
           5870      1.58457e+8 
           5890      1.60489e+8 
           5910      1.58919e+8 
           5930      1.57045e+8 
           5950      1.55129e+8 
           5970      1.53415e+8 
           5990      1.51573e+8 
           6010      1.49857e+8 
           6030      1.48108e+8 
           6050        1.464e+8 
           6070      1.44721e+8 
           6090      1.43041e+8 
           6110      1.41419e+8 
           6130      1.39806e+8 
           6150      1.38122e+8 
           6170      1.36624e+8 
           6190      1.35094e+8 
           6210      1.33561e+8 
           6230      1.32054e+8 
           6250      1.30535e+8 
           6270        1.291e+8 
           6290      1.27661e+8 
           6310       1.2621e+8 
           6330       1.2484e+8 
           6350      1.23242e+8 
           6370      1.21987e+8 
           6390      1.20735e+8 
           6410      1.19406e+8 
           6430      1.18117e+8 
           6450      1.16815e+8 
           6470      1.15509e+8 
           6490      1.14271e+8 
           6510      1.13027e+8 
           6530      1.11426e+8 
           6550       1.0705e+8 
           6570      9.50444e+7 
           6590      1.07073e+8 
           6610      1.06978e+8 
           6630      1.05965e+8 
           6650      1.04919e+8 
           6670      1.02945e+8 
           6690      1.01876e+8 
           6710      1.01629e+8 
           6730      1.00552e+8 
           6750      9.95103e+7 
           6770      9.84712e+7 
           6790      9.73526e+7 
           6810      9.64161e+7 
           6830      9.54161e+7 
           6850      9.44343e+7 
           6870      9.34622e+7 
           6890      9.24918e+7 
           6910      9.15469e+7 
           6930      9.05957e+7 
           6950       8.9685e+7 
           6970      8.87756e+7 
           6990      8.78597e+7 
           7010      8.69834e+7 
           7030      8.61004e+7 
           7050      8.52184e+7 
           7070      8.31165e+7 
           7090      8.35326e+7 
           7110      8.26907e+7 
           7130      8.18718e+7 
           7150      8.10533e+7 
           7170      8.02353e+7 
           7190      7.94544e+7 
           7210      7.86736e+7 
           7230      7.74966e+7 
           7250      7.71269e+7 
           7270      7.63753e+7 
           7290      7.50636e+7 
           7310       7.4879e+7 
           7330      7.41625e+7 
           7350      7.34386e+7 
           7370      7.27285e+7 
           7390      7.20318e+7 
           7410      7.13348e+7 
           7430      7.06441e+7 
           7450      6.99803e+7 
           7470      6.93022e+7 
           7490      6.86439e+7 
           7510      6.79715e+7 
           7530      6.73518e+7 
           7550      6.67112e+7 
           7570      6.60831e+7 
           7590      6.54606e+7 
           7610      6.48438e+7 
           7630      6.42357e+7 
           7650      6.36344e+7 
           7670      6.30404e+7 
           7690      6.24524e+7 
           7710      6.18715e+7 
           7730      6.12983e+7 
           7750      6.07271e+7 
           7770      6.00729e+7 
           7790      5.96177e+7 
           7810      5.90268e+7 
           7830      5.85296e+7 
           7850      5.80349e+7 
           7870      5.75086e+7 
           7890      5.69269e+7 
           7910      5.64834e+7 
           7930      5.59658e+7 
           7950      5.53472e+7 
           7970      5.48118e+7 
           7990      5.43171e+7 
           8010      5.38336e+7 
           8030      5.33759e+7 
           8050      5.29284e+7 
           8070       5.2479e+7 
           8090      5.19211e+7 
           8110      5.15112e+7 
           8130      5.11213e+7 
           8150      5.05769e+7 
           8170      5.02376e+7 
           8190      4.97325e+7 
           8210      4.91468e+7 
           8230      4.88565e+7 
           8250      4.84588e+7 
           8270      4.78017e+7 
           8290      4.75642e+7 
           8310      4.71691e+7 
           8330       4.6755e+7 
           8350      4.61391e+7 
           8370      4.58317e+7 
           8390       4.5493e+7 
           8410      4.50617e+7 
           8430      4.46043e+7 
           8450      4.39877e+7 
           8470      4.35696e+7 
           8490      4.35731e+7 
           8510      4.25831e+7 
           8530      4.30748e+7 
           8550      4.11162e+7 
           8570      4.30804e+7 
           8590      4.07709e+7 
