# Kurucz ODFNEW /NOVER (2003)
# teff = 19000 K (value for the effective temperature for the model. Temperatures are given in K)
# logg = 3.5 log(cm/s2) (value for Log(G) for the model.)
# meta = -1.5  (value for the Metallicity for the model.)
# lh = 1.25  (l/Hp where l is the  mixing length of the convective element and Hp is the pressure scale height)
# vtur = 2 km/s (Microturbulence velocity)
# alpha = 0  (Alpha)
#
# column 1: WAVELENGTH (ANGSTROM), Wavelength in Angstrom
# column 2: FLUX (ERG/CM2/S/A), Flux in erg/cm2/s/A
          147.2     1.04323e-21 
            151      7.6633e-21 
          155.2     6.13492e-20 
          158.8     3.34893e-19 
            162     1.42441e-18 
            166     8.06148e-18 
          170.3     4.75463e-17 
          173.4     1.61993e-16 
          176.8     5.92014e-16 
          180.2      2.0615e-15 
          181.7     3.52254e-15 
          186.1     1.61425e-14 
            191     8.09874e-14 
          193.9     2.02397e-13 
          198.4     7.95224e-13 
          201.8     2.14733e-12 
            205     5.30613e-12 
          210.5     2.35321e-11 
          216.2       1.016e-10 
          219.8     2.45944e-10 
            223     5.26553e-10 
          226.8      1.26367e-9 
            230       4.2314e-9 
            234      1.07296e-8 
            240      3.61955e-8 
          246.5      1.25719e-7 
          252.4      3.68813e-7 
          256.8      7.87721e-7 
            260      1.36514e-6 
            264       2.6352e-6 
          268.5      5.38556e-6 
          273.5      1.15785e-5 
          278.5      2.42196e-5 
            284      5.28456e-5 
            290     0.000119469 
            296      0.00026073 
            301     0.000487789 
            308       0.0011241 
            318      0.00351378 
            328       0.0101497 
            338       0.0274442 
            348       0.0698528 
            357        0.154382 
            366        0.327525 
            375         0.66808 
            385         1.41504 
            395         2.87645 
            405         5.63171 
            414         10.0069 
            422         16.3081 
            430         26.0491 
            441         48.1757 
            451         81.8651 
            460         129.101 
            470         209.427 
            480         332.254 
            490         516.375 
            500         786.852 
            506         6019.47 
            512         17422.1 
            520         23030.1 
            530         35036.2 
            540         40641.8 
            550         62545.8 
            560         80410.6 
            570          104320 
            580          109462 
            590          153646 
            600          205443 
            610          257190 
            620          312840 
            630          382586 
            640          453023 
            650          545727 
            658          638327 
            665          715072 
            675          831306 
            685          976217 
            695      1.16265e+6 
            705      1.34433e+6 
            716      1.57532e+6 
            726      1.80339e+6 
            735      2.04542e+6 
            745       2.3496e+6 
            755      2.67539e+6 
            765      3.02156e+6 
            775      3.42229e+6 
            785      3.84973e+6 
            795      4.29747e+6 
            805       4.7948e+6 
            815      5.30867e+6 
            825      5.91365e+6 
            835      6.44988e+6 
            845      7.16077e+6 
            855      7.83993e+6 
            865      8.64405e+6 
            875      9.48091e+6 
            885      1.03876e+7 
            895      1.12992e+7 
            905      1.20706e+7 
            915      2.19389e+7 
            925      1.46434e+8 
            935      6.57728e+8 
            945      2.69314e+9 
            955      4.44793e+9 
            965      5.86116e+9 
            975      1.73372e+9 
            985      7.23968e+9 
            995      7.08081e+9 
           1005      7.51351e+9 
           1015      6.64252e+9 
           1025       1.5824e+9 
           1035      5.28717e+9 
           1045      7.92942e+9 
           1055      7.71584e+9 
           1065      6.96579e+9 
           1075      7.58202e+9 
           1085       7.0208e+9 
           1095      7.54826e+9 
           1105      7.06237e+9 
           1115      7.08656e+9 
           1125      6.63818e+9 
           1135      7.04256e+9 
           1145      6.64192e+9 
           1155      6.84765e+9 
           1165      6.89659e+9 
           1175      5.95591e+9 
           1185      6.71887e+9 
           1195      5.90094e+9 
           1205      4.35203e+9 
           1215      1.07821e+9 
           1225      4.54172e+9 
           1235      5.93169e+9 
           1245      6.11774e+9 
           1255      5.95151e+9 
           1265      5.81212e+9 
           1275      5.93984e+9 
           1285      5.85916e+9 
           1295      5.18248e+9 
           1305      5.14871e+9 
           1315      5.61687e+9 
           1325      5.41353e+9 
           1335      5.14841e+9 
           1345      5.30725e+9 
           1355      5.28686e+9 
           1365      5.10515e+9 
           1375      5.03096e+9 
           1385      5.01514e+9 
           1395      4.75571e+9 
           1405       4.8083e+9 
           1415        4.772e+9 
           1425      4.72047e+9 
           1435      4.69497e+9 
           1442       4.6919e+9 
           1447      4.63812e+9 
           1455      4.56252e+9 
           1465      4.45639e+9 
           1475      4.40171e+9 
           1485      4.31426e+9 
           1495       4.2559e+9 
           1505      4.13267e+9 
           1512      3.99512e+9 
           1517      4.03562e+9 
           1525      3.99469e+9 
           1535      3.81138e+9 
           1545      3.86053e+9 
           1555      3.71662e+9 
           1565      3.73911e+9 
           1575      3.75663e+9 
           1585      3.70742e+9 
           1595      3.69381e+9 
           1605      3.57772e+9 
           1615      3.53153e+9 
           1625      3.49491e+9 
           1635      3.49062e+9 
           1645      3.43703e+9 
           1655      3.35574e+9 
           1665      3.39559e+9 
           1672      3.28232e+9 
           1677      3.33793e+9 
           1685      3.30776e+9 
           1695      3.22794e+9 
           1705      3.14379e+9 
           1715      3.06407e+9 
           1725      3.02662e+9 
           1735      3.03464e+9 
           1745      2.97187e+9 
           1755      2.98433e+9 
           1765      2.82956e+9 
           1775      2.85696e+9 
           1785      2.83497e+9 
           1795      2.83527e+9 
           1805       2.8066e+9 
           1815      2.72235e+9 
           1825      2.72009e+9 
           1835      2.67531e+9 
           1845      2.55751e+9 
           1855      2.49487e+9 
           1865      2.50068e+9 
           1875      2.53602e+9 
           1885      2.40241e+9 
           1895      2.31733e+9 
           1905      2.39282e+9 
           1915      2.30862e+9 
           1925       2.2661e+9 
           1935      2.28952e+9 
           1945      2.30189e+9 
           1955       2.1892e+9 
           1967      2.24017e+9 
           1976      2.26168e+9 
           1984      2.17945e+9 
           1995      2.11914e+9 
           2005      2.14125e+9 
           2015      2.13564e+9 
           2025      2.13858e+9 
           2035      2.07122e+9 
           2045      2.05164e+9 
           2055      1.99149e+9 
           2065      1.99672e+9 
           2074      2.02585e+9 
           2078      1.96466e+9 
           2085      1.97056e+9 
           2095      1.91643e+9 
           2105      1.92725e+9 
           2115      1.91084e+9 
           2125      1.91367e+9 
           2135       1.8824e+9 
           2145      1.84188e+9 
           2155       1.8434e+9 
           2165      1.81677e+9 
           2175      1.79476e+9 
           2185       1.7764e+9 
           2195      1.76682e+9 
           2205      1.74006e+9 
           2215      1.71678e+9 
           2225      1.68852e+9 
           2235      1.68084e+9 
           2245      1.66575e+9 
           2255      1.63804e+9 
           2265         1.63e+9 
           2275      1.60959e+9 
           2285      1.59928e+9 
           2295      1.56413e+9 
           2305       1.5586e+9 
           2315      1.53525e+9 
           2325      1.52277e+9 
           2335      1.49124e+9 
           2345      1.46224e+9 
           2355      1.46914e+9 
           2365      1.43903e+9 
           2375      1.43255e+9 
           2385      1.40513e+9 
           2395      1.40058e+9 
           2405      1.38329e+9 
           2415      1.36572e+9 
           2425      1.36672e+9 
           2435      1.34363e+9 
           2445      1.33247e+9 
           2455      1.32589e+9 
           2465      1.30412e+9 
           2475      1.29385e+9 
           2485      1.28163e+9 
           2495      1.25298e+9 
           2505       1.2565e+9 
           2513      1.23115e+9 
           2518      1.23887e+9 
           2525       1.2232e+9 
           2535      1.20349e+9 
           2545      1.19382e+9 
           2555      1.19505e+9 
           2565      1.17642e+9 
           2575       1.1723e+9 
           2585      1.15986e+9 
           2595      1.14719e+9 
           2605      1.14123e+9 
           2615       1.1307e+9 
           2625      1.11964e+9 
           2635      1.10525e+9 
           2645      1.10649e+9 
           2655      1.09459e+9 
           2665      1.07907e+9 
           2675      1.07165e+9 
           2685      1.06661e+9 
           2695      1.04792e+9 
           2705      1.04482e+9 
           2715      1.03264e+9 
           2725      1.01503e+9 
           2735      1.01422e+9 
           2745      9.89843e+8 
           2755      9.83911e+8 
           2765      9.75673e+8 
           2775      9.77216e+8 
           2785      9.66179e+8 
           2795      9.38541e+8 
           2805      9.41916e+8 
           2815      9.41131e+8 
           2825      9.24142e+8 
           2835      9.12853e+8 
           2845      9.12451e+8 
           2855      9.05054e+8 
           2865      8.97921e+8 
           2875      8.88814e+8 
           2885      8.81033e+8 
           2895      8.73024e+8 
           2910      8.61156e+8 
           2930      8.43822e+8 
           2950      8.24454e+8 
           2970       8.1484e+8 
           2990       7.9934e+8 
           3010      7.85801e+8 
           3030      7.72343e+8 
           3050      7.58562e+8 
           3070      7.45193e+8 
           3090      7.31908e+8 
           3110      7.19253e+8 
           3130      7.07553e+8 
           3150      6.95255e+8 
           3170      6.83023e+8 
           3190      6.66674e+8 
           3210      6.59819e+8 
           3230      6.48603e+8 
           3250      6.37685e+8 
           3270      6.27583e+8 
           3290      6.16461e+8 
           3310      6.06936e+8 
           3330      5.96915e+8 
           3350      5.86251e+8 
           3370      5.77456e+8 
           3390      5.68072e+8 
           3410      5.58869e+8 
           3430      5.48208e+8 
           3450      5.38009e+8 
           3470      5.30604e+8 
           3490      5.22221e+8 
           3510      5.15797e+8 
           3530      5.08004e+8 
           3550      5.00114e+8 
           3570      4.93876e+8 
           3590      4.84267e+8 
           3610      4.77268e+8 
           3630      4.69336e+8 
           3640      4.67813e+8 
           3650      4.61831e+8 
           3670      4.56224e+8 
           3690      4.41857e+8 
           3710      4.37133e+8 
           3730      4.35085e+8 
           3750      4.92662e+8 
           3770      5.01788e+8 
           3790      5.31651e+8 
           3810      5.59225e+8 
           3830      4.84366e+8 
           3850       5.7697e+8 
           3870      5.79524e+8 
           3890      4.60178e+8 
           3910      5.70906e+8 
           3930      5.60378e+8 
           3950      5.53341e+8 
           3970      4.28792e+8 
           3990      5.32435e+8 
           4010       5.2805e+8 
           4030      5.01273e+8 
           4050      5.16707e+8 
           4070      5.06046e+8 
           4090      4.69333e+8 
           4110      4.05318e+8 
           4130      4.75901e+8 
           4150      4.72156e+8 
           4170      4.67854e+8 
           4190      4.62068e+8 
           4210      4.54946e+8 
           4230       4.4777e+8 
           4250       4.4075e+8 
           4270      4.32374e+8 
           4290      4.27001e+8 
           4310      4.18545e+8 
           4330       3.8063e+8 
           4350      3.44845e+8 
           4370      3.98925e+8 
           4390       3.8611e+8 
           4410      3.89532e+8 
           4430      3.82068e+8 
           4450      3.78166e+8 
           4470      3.58801e+8 
           4490      3.66095e+8 
           4510      3.61633e+8 
           4530      3.56207e+8 
           4550      3.50953e+8 
           4570      3.45832e+8 
           4590      3.40857e+8 
           4610      3.35885e+8 
           4630      3.30969e+8 
           4650      3.26055e+8 
           4670      3.21575e+8 
           4690      3.17057e+8 
           4710      3.08732e+8 
           4730      3.07575e+8 
           4750       3.0297e+8 
           4770      2.99458e+8 
           4790      2.95222e+8 
           4810      2.90753e+8 
           4830      2.85427e+8 
           4850      2.64211e+8 
           4870      2.34025e+8 
           4890      2.72967e+8 
           4910      2.70748e+8 
           4930      2.62231e+8 
           4950      2.64083e+8 
           4970      2.60513e+8 
           4990      2.56962e+8 
           5010      2.50472e+8 
           5030      2.50032e+8 
           5050      2.44909e+8 
           5070      2.43406e+8 
           5090      2.40159e+8 
           5110      2.36955e+8 
           5130       2.3378e+8 
           5150      2.30675e+8 
           5170       2.2771e+8 
           5190      2.24728e+8 
           5210      2.21618e+8 
           5230      2.18893e+8 
           5250      2.16053e+8 
           5270       2.1325e+8 
           5290      2.10523e+8 
           5310      2.07804e+8 
           5330      2.05134e+8 
           5350      2.02458e+8 
           5370       1.9996e+8 
           5390      1.97415e+8 
           5410      1.94916e+8 
           5430      1.92384e+8 
           5450       1.9001e+8 
           5470      1.87629e+8 
           5490      1.85314e+8 
           5510      1.82991e+8 
           5530      1.80721e+8 
           5550      1.78492e+8 
           5570      1.76289e+8 
           5590      1.74126e+8 
           5610      1.71965e+8 
           5630      1.69901e+8 
           5650      1.67721e+8 
           5670      1.65708e+8 
           5690      1.63719e+8 
           5710        1.618e+8 
           5730      1.59858e+8 
           5750      1.57927e+8 
           5770      1.56054e+8 
           5790      1.54191e+8 
           5810      1.52361e+8 
           5830      1.50553e+8 
           5850      1.48776e+8 
           5870       1.4326e+8 
           5890      1.45134e+8 
           5910      1.43592e+8 
           5930      1.41918e+8 
           5950      1.40242e+8 
           5970      1.38638e+8 
           5990      1.37021e+8 
           6010      1.35464e+8 
           6030      1.33903e+8 
           6050      1.32371e+8 
           6070      1.30856e+8 
           6090      1.29358e+8 
           6110      1.27897e+8 
           6130      1.26452e+8 
           6150      1.24994e+8 
           6170      1.23611e+8 
           6190      1.22223e+8 
           6210      1.20861e+8 
           6230      1.19504e+8 
           6250      1.18162e+8 
           6270      1.16863e+8 
           6290      1.15569e+8 
           6310      1.14288e+8 
           6330      1.13041e+8 
           6350      1.11694e+8 
           6370      1.10521e+8 
           6390      1.09359e+8 
           6410      1.08165e+8 
           6430      1.07001e+8 
           6450       1.0584e+8 
           6470      1.04692e+8 
           6490      1.03565e+8 
           6510       1.0244e+8 
           6530      1.00939e+8 
           6550      9.66004e+7 
           6570      8.53777e+7 
           6590      9.71316e+7 
           6610      9.69758e+7 
           6630      9.60916e+7 
           6650      9.51397e+7 
           6670      9.34014e+7 
           6690      9.24397e+7 
           6710      9.21824e+7 
           6730      9.12194e+7 
           6750      9.02745e+7 
           6770      8.93391e+7 
           6790      8.83969e+7 
           6810      8.74966e+7 
           6830      8.65973e+7 
           6850       8.5707e+7 
           6870      8.48335e+7 
           6890      8.39688e+7 
           6910      8.31126e+7 
           6930      8.22649e+7 
           6950      8.14333e+7 
           6970      8.06099e+7 
           6990      7.97946e+7 
           7010      7.90026e+7 
           7030      7.82107e+7 
           7050      7.74189e+7 
           7070      7.55797e+7 
           7090      7.58958e+7 
           7110      7.51415e+7 
           7130      7.43945e+7 
           7150      7.36606e+7 
           7170      7.29248e+7 
           7190      7.22202e+7 
           7210      7.15128e+7 
           7230      7.06802e+7 
           7250      7.01231e+7 
           7270      6.94427e+7 
           7290      6.83094e+7 
           7310      6.80954e+7 
           7330      6.74467e+7 
           7350      6.67977e+7 
           7370      6.61568e+7 
           7390      6.55226e+7 
           7410       6.4897e+7 
           7430      6.42765e+7 
           7450      6.36739e+7 
           7470      6.30688e+7 
           7490      6.24725e+7 
           7510      6.18637e+7 
           7530      6.13003e+7 
           7550      6.07241e+7 
           7570      6.01552e+7 
           7590       5.9592e+7 
           7610      5.90366e+7 
           7630      5.84874e+7 
           7650      5.79438e+7 
           7670      5.74076e+7 
           7690      5.68763e+7 
           7710      5.63515e+7 
           7730      5.58339e+7 
           7750      5.53185e+7 
           7770      5.47732e+7 
           7790      5.43148e+7 
           7810      5.37924e+7 
           7830      5.33311e+7 
           7850      5.28855e+7 
           7870       5.2406e+7 
           7890      5.19034e+7 
           7910      5.14733e+7 
           7930      5.10103e+7 
           7950      5.05405e+7 
           7970      5.00565e+7 
           7990      4.96044e+7 
           8010      4.91497e+7 
           8030      4.87118e+7 
           8050      4.82997e+7 
           8070      4.78778e+7 
           8090      4.73945e+7 
           8110      4.70046e+7 
           8130      4.66363e+7 
           8150      4.61575e+7 
           8170      4.58269e+7 
           8190      4.53961e+7 
           8210      4.48801e+7 
           8230      4.46016e+7 
           8250      4.42361e+7 
           8270      4.36853e+7 
           8290      4.34424e+7 
           8310      4.30841e+7 
           8330      4.27097e+7 
           8350      4.21812e+7 
           8370      4.18841e+7 
           8390      4.15583e+7 
           8410      4.11495e+7 
           8430       4.0744e+7 
           8450       4.0248e+7 
           8470       3.9732e+7 
           8490      3.98581e+7 
           8510      3.88137e+7 
           8530       3.9452e+7 
           8550      3.74145e+7 
           8570      3.94693e+7 
