# Kurucz ODFNEW /NOVER (2003)
# teff = 24000 K (value for the effective temperature for the model. Temperatures are given in K)
# logg = 4 log(cm/s2) (value for Log(G) for the model.)
# meta = -1  (value for the Metallicity for the model.)
# lh = 1.25  (l/Hp where l is the  mixing length of the convective element and Hp is the pressure scale height)
# vtur = 2 km/s (Microturbulence velocity)
# alpha = 0  (Alpha)
#
# column 1: WAVELENGTH (ANGSTROM), Wavelength in Angstrom
# column 2: FLUX (ERG/CM2/S/A), Flux in erg/cm2/s/A
          147.2     3.33683e-15 
            151     1.62408e-14 
          155.2     8.58592e-14 
          158.8     3.35012e-13 
            162     1.07152e-12 
            166     4.31675e-12 
          170.3     1.79973e-11 
          173.4     4.82959e-11 
          176.8      1.3713e-10 
          180.2     3.74641e-10 
          181.7     5.76798e-10 
          186.1      1.96723e-9 
            191      7.22251e-9 
          193.9      1.51184e-8 
          198.4      4.55616e-8 
          201.8      1.01465e-7 
            205      2.10377e-7 
          210.5      6.99058e-7 
          216.2      2.27267e-6 
          219.8      4.63308e-6 
            223      8.55518e-6 
          226.8      1.73145e-5 
            230     0.000500601 
            234      0.00117396 
            240      0.00288656 
          246.5      0.00728073 
          252.4       0.0163653 
          256.8       0.0275745 
            260        0.043296 
            264       0.0702422 
          268.5        0.119088 
          273.5         0.20931 
          278.5        0.361487 
            284        0.646581 
            290         1.17884 
            296         2.09412 
            301         3.30616 
            308         5.91837 
            318         14.3134 
            328         30.9696 
            338         65.1438 
            348         129.633 
            357         238.274 
            366         419.376 
            375         699.772 
            385         1219.77 
            395         2051.81 
            405         3353.99 
            414         5134.98 
            422          7290.3 
            430         10264.6 
            441         16142.8 
            451           23865 
            460           33165 
            470           47428 
            480         66334.8 
            490         91740.9 
            500          125014 
            506          853672 
            512      2.94363e+6 
            520      3.54257e+6 
            530      4.58902e+6 
            540      5.02267e+6 
            550      6.88636e+6 
            560      7.98412e+6 
            570      9.68829e+6 
            580      9.74591e+6 
            590       1.2567e+7 
            600       1.4773e+7 
            610       1.7331e+7 
            620      1.94774e+7 
            630      2.21539e+7 
            640      2.36918e+7 
            650      2.53537e+7 
            658      3.00373e+7 
            665      3.27298e+7 
            675      3.52606e+7 
            685      3.84802e+7 
            695      4.49252e+7 
            705      4.82788e+7 
            716      5.41715e+7 
            726      5.83082e+7 
            735      6.28262e+7 
            745      6.97834e+7 
            755      7.57523e+7 
            765      8.19023e+7 
            775      8.89411e+7 
            785      9.62388e+7 
            795      1.02214e+8 
            805      1.09154e+8 
            815      1.15425e+8 
            825      1.24743e+8 
            835      1.27442e+8 
            845      1.38135e+8 
            855      1.45853e+8 
            865      1.55671e+8 
            875      1.66452e+8 
            885      1.77252e+8 
            895      1.86642e+8 
            905      1.92517e+8 
            915      2.87484e+8 
            925      1.95761e+9 
            935      5.74041e+9 
            945     1.47659e+10 
            955     1.96538e+10 
            965     2.49447e+10 
            975      7.17059e+9 
            985     2.59351e+10 
            995     2.43966e+10 
           1005     2.60899e+10 
           1015     2.44473e+10 
           1025      9.38072e+9 
           1035      2.0293e+10 
           1045     2.75175e+10 
           1055     2.61467e+10 
           1065     2.30377e+10 
           1075      2.5015e+10 
           1085     2.27111e+10 
           1095     2.46864e+10 
           1105     2.30291e+10 
           1115     2.28648e+10 
           1125     2.06039e+10 
           1135     2.25589e+10 
           1145     2.08131e+10 
           1155     2.14351e+10 
           1165     2.13004e+10 
           1175     1.65178e+10 
           1185     2.02666e+10 
           1195     1.87143e+10 
           1205     1.47773e+10 
           1215       6.8883e+9 
           1225     1.61228e+10 
           1235     1.82592e+10 
           1245     1.81291e+10 
           1255      1.7712e+10 
           1265     1.74754e+10 
           1275     1.76541e+10 
           1285     1.72672e+10 
           1295      1.4752e+10 
           1305     1.50455e+10 
           1315     1.63537e+10 
           1325     1.55981e+10 
           1335     1.49741e+10 
           1345       1.505e+10 
           1355     1.50526e+10 
           1365     1.43124e+10 
           1375     1.40509e+10 
           1385      1.3911e+10 
           1395     1.23202e+10 
           1405     1.26128e+10 
           1415     1.29041e+10 
           1425      1.2588e+10 
           1435     1.26051e+10 
           1442     1.26857e+10 
           1447     1.24552e+10 
           1455     1.22157e+10 
           1465     1.17481e+10 
           1475     1.16174e+10 
           1485     1.13744e+10 
           1495     1.11731e+10 
           1505     1.05927e+10 
           1512      9.95798e+9 
           1517     1.01252e+10 
           1525     1.01262e+10 
           1535      9.27919e+9 
           1545      9.33339e+9 
           1555      8.91179e+9 
           1565      9.21956e+9 
           1575      9.37471e+9 
           1585      9.22395e+9 
           1595       9.1664e+9 
           1605      8.88903e+9 
           1615      8.70895e+9 
           1625      8.65673e+9 
           1635      8.76509e+9 
           1645      8.55054e+9 
           1655      8.46856e+9 
           1665      8.45996e+9 
           1672      8.21975e+9 
           1677      8.45868e+9 
           1685      8.28195e+9 
           1695      8.01576e+9 
           1705      7.76416e+9 
           1715      7.49277e+9 
           1725      7.38779e+9 
           1735      7.42289e+9 
           1745      7.27187e+9 
           1755      7.28097e+9 
           1765      7.00485e+9 
           1775      6.85272e+9 
           1785      6.84544e+9 
           1795      6.86655e+9 
           1805      6.82849e+9 
           1815      6.46194e+9 
           1825      6.51088e+9 
           1835      6.36571e+9 
           1845      5.93256e+9 
           1855      5.87304e+9 
           1865      5.93132e+9 
           1875      6.01792e+9 
           1885       5.5435e+9 
           1895      5.23525e+9 
           1905      5.49996e+9 
           1915      5.27399e+9 
           1925      5.09704e+9 
           1935      5.25005e+9 
           1945      5.31082e+9 
           1955      4.92377e+9 
           1967      5.12921e+9 
           1976      5.27546e+9 
           1984      4.97115e+9 
           1995      4.84634e+9 
           2005      4.90598e+9 
           2015      4.90129e+9 
           2025      4.94938e+9 
           2035      4.67188e+9 
           2045      4.64963e+9 
           2055      4.51591e+9 
           2065       4.5282e+9 
           2074      4.65057e+9 
           2078      4.40637e+9 
           2085      4.45292e+9 
           2095      4.28563e+9 
           2105      4.35834e+9 
           2115       4.3211e+9 
           2125      4.35352e+9 
           2135      4.26589e+9 
           2145      4.11608e+9 
           2155      4.16891e+9 
           2165      4.12671e+9 
           2175      4.05954e+9 
           2185      4.00037e+9 
           2195      3.98003e+9 
           2205       3.9265e+9 
           2215      3.87885e+9 
           2225      3.80243e+9 
           2235      3.74744e+9 
           2245      3.73327e+9 
           2255      3.65911e+9 
           2265      3.64229e+9 
           2275      3.59411e+9 
           2285      3.56409e+9 
           2295      3.43911e+9 
           2305      3.46578e+9 
           2315      3.39703e+9 
           2325      3.35902e+9 
           2335      3.29051e+9 
           2345      3.26477e+9 
           2355      3.24715e+9 
           2365      3.20049e+9 
           2375      3.15576e+9 
           2385      3.11472e+9 
           2395      3.07943e+9 
           2405      3.03975e+9 
           2415      2.99673e+9 
           2425      2.98353e+9 
           2435       2.9303e+9 
           2445       2.9043e+9 
           2455      2.88106e+9 
           2465      2.84012e+9 
           2475      2.80596e+9 
           2485      2.77013e+9 
           2495       2.6558e+9 
           2505      2.70019e+9 
           2513      2.62027e+9 
           2518      2.65925e+9 
           2525      2.63572e+9 
           2535      2.60131e+9 
           2545      2.54973e+9 
           2555      2.54476e+9 
           2565       2.5131e+9 
           2575      2.49533e+9 
           2585      2.46602e+9 
           2595      2.43749e+9 
           2605      2.42203e+9 
           2615      2.39638e+9 
           2625      2.37187e+9 
           2635      2.34153e+9 
           2645      2.32036e+9 
           2655      2.29415e+9 
           2665      2.25537e+9 
           2675      2.23433e+9 
           2685      2.22482e+9 
           2695      2.17375e+9 
           2705      2.16785e+9 
           2715      2.14537e+9 
           2725      2.10692e+9 
           2735      2.10151e+9 
           2745      2.05973e+9 
           2755      2.04461e+9 
           2765      2.01368e+9 
           2775      2.01328e+9 
           2785      1.98841e+9 
           2795       1.9323e+9 
           2805      1.93406e+9 
           2815      1.92743e+9 
           2825      1.88798e+9 
           2835      1.85336e+9 
           2845      1.86409e+9 
           2855      1.84302e+9 
           2865      1.82641e+9 
           2875      1.80661e+9 
           2885      1.78809e+9 
           2895      1.76816e+9 
           2910      1.73926e+9 
           2930      1.70239e+9 
           2950      1.65592e+9 
           2970      1.63429e+9 
           2990      1.59847e+9 
           3010       1.5642e+9 
           3030      1.53742e+9 
           3050       1.5068e+9 
           3070      1.47687e+9 
           3090      1.44164e+9 
           3110      1.41817e+9 
           3130      1.39092e+9 
           3150      1.36405e+9 
           3170      1.33613e+9 
           3190      1.30021e+9 
           3210      1.28567e+9 
           3230       1.2603e+9 
           3250      1.23653e+9 
           3270      1.21416e+9 
           3290      1.18938e+9 
           3310      1.16921e+9 
           3330      1.14719e+9 
           3350      1.12386e+9 
           3370      1.10495e+9 
           3390      1.08487e+9 
           3410      1.06509e+9 
           3430      1.04035e+9 
           3450      1.01772e+9 
           3470      1.00236e+9 
           3490       9.8419e+8 
           3510      9.70009e+8 
           3530      9.54998e+8 
           3550      9.38468e+8 
           3570      9.26771e+8 
           3590      9.04225e+8 
           3610      8.89898e+8 
           3630      8.73543e+8 
           3640      8.72048e+8 
           3650      8.55739e+8 
           3670      8.45039e+8 
           3690      8.26248e+8 
           3710      7.98861e+8 
           3730      7.69982e+8 
           3750      8.14164e+8 
           3770      8.16204e+8 
           3790      8.57444e+8 
           3810      8.92403e+8 
           3830      7.81355e+8 
           3850       9.1447e+8 
           3870      9.17166e+8 
           3890      7.40856e+8 
           3910       9.0276e+8 
           3930      8.84277e+8 
           3950      8.72882e+8 
           3970       6.8852e+8 
           3990      8.38052e+8 
           4010      8.32337e+8 
           4030      7.85799e+8 
           4050      8.12256e+8 
           4070      7.91466e+8 
           4090      7.34199e+8 
           4110      6.44442e+8 
           4130      7.44474e+8 
           4150      7.38672e+8 
           4170      7.32492e+8 
           4190      7.22597e+8 
           4210      7.11879e+8 
           4230      6.99521e+8 
           4250      6.86967e+8 
           4270      6.71166e+8 
           4290      6.63981e+8 
           4310      6.49336e+8 
           4330      5.91852e+8 
           4350      5.40253e+8 
           4370      6.17128e+8 
           4390      5.96915e+8 
           4410        6.024e+8 
           4430      5.91771e+8 
           4450      5.85055e+8 
           4470      5.52059e+8 
           4490      5.65633e+8 
           4510      5.58738e+8 
           4530      5.49722e+8 
           4550      5.40896e+8 
           4570      5.32294e+8 
           4590      5.24483e+8 
           4610      5.16219e+8 
           4630      5.08289e+8 
           4650      4.98403e+8 
           4670      4.93107e+8 
           4690       4.8641e+8 
           4710      4.72047e+8 
           4730      4.70556e+8 
           4750      4.63029e+8 
           4770      4.58508e+8 
           4790      4.51584e+8 
           4810      4.44091e+8 
           4830      4.35318e+8 
           4850      4.03868e+8 
           4870      3.61545e+8 
           4890      4.15737e+8 
           4910      4.12247e+8 
           4930      3.97734e+8 
           4950      4.01522e+8 
           4970      3.96223e+8 
           4990      3.90481e+8 
           5010      3.79024e+8 
           5030      3.79456e+8 
           5050      3.71256e+8 
           5070      3.68978e+8 
           5090      3.63816e+8 
           5110      3.58679e+8 
           5130      3.53297e+8 
           5150      3.48442e+8 
           5170      3.44102e+8 
           5190      3.39413e+8 
           5210      3.34509e+8 
           5230       3.3022e+8 
           5250      3.25754e+8 
           5270      3.21292e+8 
           5290      3.17023e+8 
           5310      3.12729e+8 
           5330      3.08543e+8 
           5350      3.04319e+8 
           5370      3.00449e+8 
           5390      2.96447e+8 
           5410      2.92547e+8 
           5430      2.88595e+8 
           5450      2.84832e+8 
           5470      2.81116e+8 
           5490      2.77484e+8 
           5510      2.73922e+8 
           5530      2.70343e+8 
           5550      2.66906e+8 
           5570      2.63438e+8 
           5590      2.60098e+8 
           5610      2.56738e+8 
           5630      2.53515e+8 
           5650      2.50071e+8 
           5670       2.4674e+8 
           5690      2.43484e+8 
           5710      2.40857e+8 
           5730      2.37859e+8 
           5750      2.34772e+8 
           5770      2.32027e+8 
           5790      2.29134e+8 
           5810      2.26298e+8 
           5830      2.23474e+8 
           5850      2.20759e+8 
           5870      2.11626e+8 
           5890      2.14763e+8 
           5910      2.12719e+8 
           5930      2.10076e+8 
           5950      2.07485e+8 
           5970      2.05145e+8 
           5990      2.02591e+8 
           6010      2.00233e+8 
           6030      1.97819e+8 
           6050      1.95485e+8 
           6070      1.93186e+8 
           6090      1.90883e+8 
           6110      1.88637e+8 
           6130      1.86425e+8 
           6150      1.84109e+8 
           6170      1.82037e+8 
           6190      1.79948e+8 
           6210      1.77863e+8 
           6230        1.758e+8 
           6250      1.73732e+8 
           6270      1.71753e+8 
           6290      1.69787e+8 
           6310      1.67823e+8 
           6330      1.65927e+8 
           6350      1.63893e+8 
           6370      1.62114e+8 
           6390      1.60316e+8 
           6410      1.58501e+8 
           6430      1.56733e+8 
           6450      1.54966e+8 
           6470      1.53145e+8 
           6490       1.5147e+8 
           6510      1.49767e+8 
           6530      1.47526e+8 
           6550      1.41349e+8 
           6570      1.25696e+8 
           6590       1.4152e+8 
           6610      1.41493e+8 
           6630      1.40178e+8 
           6650       1.3874e+8 
           6670      1.35877e+8 
           6690      1.34434e+8 
           6710      1.34278e+8 
           6730      1.32799e+8 
           6750      1.31402e+8 
           6770      1.29985e+8 
           6790      1.28428e+8 
           6810      1.27195e+8 
           6830      1.25846e+8 
           6850      1.24526e+8 
           6870      1.23203e+8 
           6890      1.21894e+8 
           6910      1.20606e+8 
           6930      1.19338e+8 
           6950       1.1809e+8 
           6970      1.16863e+8 
           6990      1.15632e+8 
           7010      1.14437e+8 
           7030      1.13245e+8 
           7050      1.12073e+8 
           7070      1.09126e+8 
           7090      1.09778e+8 
           7110      1.08647e+8 
           7130      1.07534e+8 
           7150       1.0644e+8 
           7170      1.05334e+8 
           7190      1.04282e+8 
           7210      1.03226e+8 
           7230      1.01582e+8 
           7250      1.01144e+8 
           7270       1.0014e+8 
           7290       9.8315e+7 
           7310      9.81232e+7 
           7330      9.71607e+7 
           7350      9.61934e+7 
           7370       9.5235e+7 
           7390      9.42926e+7 
           7410      9.33657e+7 
           7430      9.24338e+7 
           7450      9.15445e+7 
           7470      9.06229e+7 
           7490      8.97568e+7 
           7510      8.88452e+7 
           7530      8.80151e+7 
           7550      8.71661e+7 
           7570      8.63182e+7 
           7590      8.54846e+7 
           7610      8.46586e+7 
           7630      8.38465e+7 
           7650      8.30417e+7 
           7670      8.22506e+7 
           7690      8.14602e+7 
           7710      8.06832e+7 
           7730      7.99195e+7 
           7750      7.91563e+7 
           7770      7.83375e+7 
           7790       7.7675e+7 
           7810      7.68824e+7 
           7830      7.62198e+7 
           7850       7.5569e+7 
           7870       7.4857e+7 
           7890      7.40967e+7 
           7910      7.34876e+7 
           7930      7.27879e+7 
           7950      7.19692e+7 
           7970      7.12585e+7 
           7990      7.06071e+7 
           8010      6.99555e+7 
           8030      6.93095e+7 
           8050      6.86923e+7 
           8070      6.81325e+7 
           8090      6.73643e+7 
           8110      6.68492e+7 
           8130      6.63155e+7 
           8150      6.56161e+7 
           8170      6.51597e+7 
           8190      6.44656e+7 
           8210       6.3688e+7 
           8230       6.3301e+7 
           8250       6.2773e+7 
           8270      6.18639e+7 
           8290      6.15931e+7 
           8310      6.10733e+7 
           8330      6.05089e+7 
           8350      5.96629e+7 
           8370      5.93297e+7 
           8390      5.88973e+7 
           8410      5.83725e+7 
           8430      5.77831e+7 
           8450      5.68715e+7 
           8470      5.66715e+7 
           8490      5.61644e+7 
           8510      5.54897e+7 
           8530      5.52764e+7 
           8550      5.38844e+7 
           8570      5.50181e+7 
           8590      5.26383e+7 
