# Kurucz ODFNEW /NOVER (2003)
# teff = 6500 K (value for the effective temperature for the model. Temperatures are given in K)
# logg = 3.5 log(cm/s2) (value for Log(G) for the model.)
# meta = -4  (value for the Metallicity for the model.)
# lh = 1.25  (l/Hp where l is the  mixing length of the convective element and Hp is the pressure scale height)
# vtur = 2 km/s (Microturbulence velocity)
# alpha = 0.4  (Alpha)
#
# column 1: WAVELENGTH (ANGSTROM), Wavelength in Angstrom
# column 2: FLUX (ERG/CM2/S/A), Flux in erg/cm2/s/A
          147.2     1.73866e-35 
            151     1.65225e-35 
          155.2     1.56403e-35 
          158.8     1.49392e-35 
            162     1.43549e-35 
            166     1.36714e-35 
          170.3     1.29897e-35 
          173.4     1.25294e-35 
          176.8     1.20522e-35 
          180.2     1.16017e-35 
          181.7     1.14109e-35 
          186.1     1.08777e-35 
            191     1.03267e-35 
          193.9     1.00201e-35 
          198.4     9.57076e-36 
          201.8     9.25097e-36 
            205     8.96441e-36 
          210.5     8.50208e-36 
          216.2     8.05969e-36 
          219.8     7.79784e-36 
            223     7.57565e-36 
          226.8     7.32392e-36 
            230     7.12154e-36 
            234     6.88015e-36 
            240     6.54044e-36 
          246.5     6.20006e-36 
          252.4     5.91358e-36 
          256.8     5.71267e-36 
            260     5.57292e-36 
            264     5.40532e-36 
          268.5     5.22566e-36 
          273.5     5.03634e-36 
          278.5     4.85712e-36 
            284     4.67082e-36 
            290     4.47954e-36 
            296     4.29978e-36 
            301     4.15812e-36 
            308     3.97126e-36 
            318     3.72542e-36 
            328     3.50172e-36 
            338     4.35908e-23 
            348     4.88426e-22 
            357     3.52642e-21 
            366      2.2943e-20 
            375      1.3596e-19 
            385     8.87579e-19 
            395     3.12201e-19 
            405     1.54107e-18 
            414     6.04737e-18 
            422      1.9341e-17 
            430     5.90685e-17 
            441     2.55504e-16 
            451     9.04794e-16 
            460     2.68518e-15 
            470     8.53533e-15 
            480     2.57481e-14 
            490     7.40279e-14 
            500     2.03148e-13 
            506     4.83912e-13 
            512     9.64343e-13 
            520     2.01141e-12 
            530     4.90955e-12 
            540     1.13696e-11 
            550     2.57907e-11 
            560      5.6316e-11 
            570     1.19315e-10 
            580     2.42892e-10 
            590       4.924e-10 
            600     9.61832e-10 
            610      1.83363e-9 
            620      3.41565e-9 
            630      6.22425e-9 
            640      1.11133e-8 
            650      1.94526e-8 
            658      3.00286e-8 
            665      4.34841e-8 
            675      7.27016e-8 
            685      1.19516e-7 
            695      1.93323e-7 
            705      3.07925e-7 
            716      5.05171e-7 
            726      7.80654e-7 
            735      1.14206e-6 
            745      1.72195e-6 
            755      2.56423e-6 
            765      3.77318e-6 
            775      5.48901e-6 
            785      7.89804e-6 
            795      1.12448e-5 
            805      1.58482e-5 
            815      2.21197e-5 
            825      3.05895e-5 
            835      4.19294e-5 
            845       5.6977e-5 
            855       7.6776e-5 
            865     0.000102623 
            875     0.000136112 
            885     0.000179201 
            895     0.000234228 
            905     0.000304019 
            915       0.0853961 
            925        0.309652 
            935        0.447693 
            945        0.654175 
            955        0.911644 
            965         1.10026 
            975        0.745275 
            985         2.02785 
            995         2.52619 
           1005         2.94554 
           1015         1.97253 
           1025         3.71987 
           1035         5.29315 
           1045          7.5113 
           1055         9.36116 
           1065           11.94 
           1075         14.4785 
           1085         17.7429 
           1095         20.9069 
           1105         24.6622 
           1115         28.9247 
           1125         33.6389 
           1135         38.6343 
           1145         43.4423 
           1155         24.1317 
           1165         16.8803 
           1175          13.587 
           1185         87.2026 
           1195         81.8211 
           1205         80.2793 
           1215         66.5326 
           1225           104.7 
           1235         145.732 
           1245          24.961 
           1255         34.5007 
           1265         50.7807 
           1275         74.9137 
           1285         121.438 
           1295         195.274 
           1305         363.363 
           1315         478.203 
           1325         559.507 
           1335         655.557 
           1345         763.465 
           1355         882.614 
           1365         1014.78 
           1375         1165.76 
           1385         1330.56 
           1395         1511.18 
           1405          1711.9 
           1415         1934.43 
           1425         2173.97 
           1435         2437.04 
           1442         2647.51 
           1447         2787.22 
           1455         3050.81 
           1465         3372.66 
           1475          3755.3 
           1485         4151.97 
           1495         4608.02 
           1505         5087.37 
           1512         5452.84 
           1517         5652.85 
           1525         6114.98 
           1535         6683.43 
           1545         7256.11 
           1555         7912.33 
           1565         8466.64 
           1575         9261.41 
           1585         10013.5 
           1595         10838.7 
           1605         11703.8 
           1615         12846.4 
           1625         14195.3 
           1635         15827.5 
           1645         18429.8 
           1655         21340.9 
           1665         34037.4 
           1672         56147.2 
           1677         99952.9 
           1685          212645 
           1695          472947 
           1705          839696 
           1715      1.28176e+6 
           1725      1.69372e+6 
           1735      2.06084e+6 
           1745      2.26543e+6 
           1755      2.52431e+6 
           1765      2.62119e+6 
           1775      2.81857e+6 
           1785       2.9668e+6 
           1795      3.16838e+6 
           1805      3.20634e+6 
           1815      3.32995e+6 
           1825      3.39434e+6 
           1835      3.55391e+6 
           1845      3.49479e+6 
           1855      3.71231e+6 
           1865      3.88673e+6 
           1875      3.96755e+6 
           1885      4.07771e+6 
           1895      4.19225e+6 
           1905      4.20971e+6 
           1915      4.40943e+6 
           1925      4.54124e+6 
           1935       4.5398e+6 
           1945      4.73015e+6 
           1955      4.82244e+6 
           1967      4.95998e+6 
           1976      4.93998e+6 
           1984       4.9944e+6 
           1995      5.18587e+6 
           2005      5.21655e+6 
           2015      5.31976e+6 
           2025       5.3029e+6 
           2035       5.5523e+6 
           2045      5.64802e+6 
           2055      5.64466e+6 
           2065      5.72989e+6 
           2074      5.93802e+6 
           2078      5.96456e+6 
           2085       5.9719e+6 
           2095      6.05845e+6 
           2105      6.11657e+6 
           2115      6.24709e+6 
           2125      6.25384e+6 
           2135      6.34846e+6 
           2145      6.48387e+6 
           2155      6.54308e+6 
           2165      6.50279e+6 
           2175      6.62295e+6 
           2185      6.76692e+6 
           2195      6.88564e+6 
           2205      6.85897e+6 
           2215      6.72169e+6 
           2225       6.9954e+6 
           2235      7.21621e+6 
           2245      7.22853e+6 
           2255      7.14441e+6 
           2265      7.09454e+6 
           2275      7.32841e+6 
           2285      7.43108e+6 
           2295      7.41797e+6 
           2305      7.57284e+6 
           2315      7.59262e+6 
           2325      7.64035e+6 
           2335      7.67593e+6 
           2345      7.48454e+6 
           2355      7.85517e+6 
           2365      7.63666e+6 
           2375      7.88105e+6 
           2385      7.56542e+6 
           2395      7.92928e+6 
           2405      8.00156e+6 
           2415      8.06074e+6 
           2425      8.37814e+6 
           2435      8.30057e+6 
           2445      8.40926e+6 
           2455      8.48528e+6 
           2465      8.43828e+6 
           2475      8.45325e+6 
           2485      8.39512e+6 
           2495      8.41692e+6 
           2505      8.68005e+6 
           2513      8.43458e+6 
           2518      8.40884e+6 
           2525         8.38e+6 
           2535      8.52624e+6 
           2545      8.69609e+6 
           2555      8.95768e+6 
           2565      8.92003e+6 
           2575      9.02815e+6 
           2585      9.09149e+6 
           2595      9.09372e+6 
           2605       9.0196e+6 
           2615      9.03063e+6 
           2625      9.09536e+6 
           2635      9.22341e+6 
           2645      9.54475e+6 
           2655       9.5772e+6 
           2665      9.50069e+6 
           2675      9.55772e+6 
           2685      9.69359e+6 
           2695      9.68092e+6 
           2705      9.74437e+6 
           2715      9.58635e+6 
           2725      9.61607e+6 
           2735      9.67128e+6 
           2745      9.37396e+6 
           2755      9.48769e+6 
           2765      9.74786e+6 
           2775      9.92773e+6 
           2785      9.88522e+6 
           2795      9.13609e+6 
           2805      9.56472e+6 
           2815      1.01511e+7 
           2825      1.01718e+7 
           2835      1.01133e+7 
           2845      1.01713e+7 
           2855      9.93609e+6 
           2865      1.01601e+7 
           2875      1.02573e+7 
           2885      1.02026e+7 
           2895      1.03759e+7 
           2910      1.04316e+7 
           2930      1.03862e+7 
           2950      1.03792e+7 
           2970      1.04718e+7 
           2990      1.04977e+7 
           3010      1.05703e+7 
           3030      1.05983e+7 
           3050      1.06756e+7 
           3070      1.06764e+7 
           3090      1.07573e+7 
           3110      1.08083e+7 
           3130      1.08529e+7 
           3150        1.087e+7 
           3170       1.0905e+7 
           3190      1.08705e+7 
           3210      1.09391e+7 
           3230      1.08535e+7 
           3250      1.09611e+7 
           3270      1.10536e+7 
           3290      1.10874e+7 
           3310      1.11068e+7 
           3330      1.10744e+7 
           3350      1.10392e+7 
           3370      1.10714e+7 
           3390      1.10858e+7 
           3410      1.11696e+7 
           3430      1.11809e+7 
           3450       1.1152e+7 
           3470      1.11762e+7 
           3490      1.12031e+7 
           3510      1.12214e+7 
           3530      1.12324e+7 
           3550      1.12461e+7 
           3570      1.12065e+7 
           3590      1.12179e+7 
           3610      1.12255e+7 
           3630      1.12414e+7 
           3640      1.12508e+7 
           3650      1.12822e+7 
           3670      1.12547e+7 
           3690      1.08978e+7 
           3710      1.16297e+7 
           3730      1.19981e+7 
           3750      1.40667e+7 
           3770      1.44212e+7 
           3790      1.56107e+7 
           3810       1.6987e+7 
           3830      1.49157e+7 
           3850      1.77437e+7 
           3870      1.83906e+7 
           3890      1.44387e+7 
           3910      1.83502e+7 
           3930      1.83253e+7 
           3950      1.83192e+7 
           3970      1.42066e+7 
           3990      1.80668e+7 
           4010      1.84763e+7 
           4030      1.84545e+7 
           4050       1.8374e+7 
           4070      1.81595e+7 
           4090      1.69126e+7 
           4110      1.46594e+7 
           4130      1.79003e+7 
           4150      1.80027e+7 
           4170      1.79754e+7 
           4190      1.79134e+7 
           4210       1.7834e+7 
           4230      1.77443e+7 
           4250      1.76807e+7 
           4270      1.75809e+7 
           4290        1.747e+7 
           4310      1.72614e+7 
           4330      1.57886e+7 
           4350       1.4317e+7 
           4370      1.70057e+7 
           4390       1.7072e+7 
           4410      1.70411e+7 
           4430      1.69876e+7 
           4450      1.69067e+7 
           4470      1.68301e+7 
           4490      1.67547e+7 
           4510      1.66758e+7 
           4530      1.65943e+7 
           4550      1.65146e+7 
           4570      1.64398e+7 
           4590      1.63625e+7 
           4610      1.62859e+7 
           4630      1.62066e+7 
           4650      1.61294e+7 
           4670      1.60515e+7 
           4690      1.59734e+7 
           4710      1.58941e+7 
           4730      1.58176e+7 
           4750      1.57401e+7 
           4770      1.56625e+7 
           4790       1.5572e+7 
           4810      1.54527e+7 
           4830      1.52717e+7 
           4850      1.42232e+7 
           4870      1.25987e+7 
           4890       1.4973e+7 
           4910      1.50601e+7 
           4930      1.50252e+7 
           4950      1.49714e+7 
           4970      1.48983e+7 
           4990      1.48217e+7 
           5010      1.47451e+7 
           5030      1.46727e+7 
           5050      1.45969e+7 
           5070      1.45234e+7 
           5090      1.44492e+7 
           5110       1.4375e+7 
           5130      1.43011e+7 
           5150      1.42269e+7 
           5170      1.41283e+7 
           5190      1.40686e+7 
           5210      1.40066e+7 
           5230      1.39327e+7 
           5250      1.38636e+7 
           5270      1.37871e+7 
           5290      1.37194e+7 
           5310       1.3647e+7 
           5330      1.35739e+7 
           5350      1.35055e+7 
           5370      1.34339e+7 
           5390      1.33629e+7 
           5410      1.32926e+7 
           5430      1.32229e+7 
           5450      1.31527e+7 
           5470      1.30844e+7 
           5490      1.30155e+7 
           5510       1.2946e+7 
           5530      1.28772e+7 
           5550      1.28102e+7 
           5570      1.27414e+7 
           5590      1.26733e+7 
           5610      1.26071e+7 
           5630      1.25403e+7 
           5650      1.24741e+7 
           5670      1.24073e+7 
           5690      1.23423e+7 
           5710      1.22757e+7 
           5730      1.22108e+7 
           5750      1.21454e+7 
           5770      1.20805e+7 
           5790      1.20163e+7 
           5810      1.19516e+7 
           5830      1.18886e+7 
           5850       1.1825e+7 
           5870       1.1761e+7 
           5890      1.16932e+7 
           5910      1.16358e+7 
           5930      1.15735e+7 
           5950      1.15107e+7 
           5970      1.14496e+7 
           5990      1.13879e+7 
           6010      1.13269e+7 
           6030      1.12664e+7 
           6050      1.12054e+7 
           6070       1.1145e+7 
           6090      1.10851e+7 
           6110      1.10258e+7 
           6130       1.0966e+7 
           6150      1.09077e+7 
           6170       1.0848e+7 
           6190      1.07908e+7 
           6210      1.07321e+7 
           6230       1.0675e+7 
           6250      1.06174e+7 
           6270      1.05603e+7 
           6290      1.05037e+7 
           6310      1.04467e+7 
           6330      1.03902e+7 
           6350      1.03342e+7 
           6370      1.02787e+7 
           6390      1.02237e+7 
           6410      1.01682e+7 
           6430      1.01142e+7 
           6450      1.00588e+7 
           6470      1.00048e+7 
           6490      9.94502e+6 
           6510      9.86535e+6 
           6530      9.75907e+6 
           6550      9.31583e+6 
           6570      8.10749e+6 
           6590      9.52752e+6 
           6610      9.58894e+6 
           6630      9.56717e+6 
           6650      9.53101e+6 
           6670      9.47986e+6 
           6690      9.42916e+6 
           6710      9.37805e+6 
           6730      9.32822e+6 
           6750      9.27798e+6 
           6770      9.22818e+6 
           6790       9.1788e+6 
           6810      9.12902e+6 
           6830      9.08048e+6 
           6850      9.03155e+6 
           6870      8.98303e+6 
           6890      8.93493e+6 
           6910      8.88722e+6 
           6930      8.83992e+6 
           6950      8.79302e+6 
           6970      8.74573e+6 
           6990      8.69884e+6 
           7010      8.65234e+6 
           7030      8.60623e+6 
           7050       8.5605e+6 
           7070       8.5144e+6 
           7090      8.46943e+6 
           7110      8.42408e+6 
           7130      8.37911e+6 
           7150      8.33451e+6 
           7170      8.29028e+6 
           7190      8.24568e+6 
           7210      8.20217e+6 
           7230      8.15829e+6 
           7250      8.11478e+6 
           7270      8.07162e+6 
           7290      8.02881e+6 
           7310      7.98564e+6 
           7330      7.94352e+6 
           7350      7.90105e+6 
           7370      7.85961e+6 
           7390      7.81782e+6 
           7410      7.77636e+6 
           7430      7.73455e+6 
           7450      7.69376e+6 
           7470      7.65329e+6 
           7490      7.61247e+6 
           7510      7.57198e+6 
           7530      7.53248e+6 
           7550      7.49262e+6 
           7570      7.45308e+6 
           7590      7.41386e+6 
           7610      7.37494e+6 
           7630      7.33568e+6 
           7650      7.29737e+6 
           7670      7.25872e+6 
           7690      7.22102e+6 
           7710      7.18297e+6 
           7730      7.14522e+6 
           7750      7.10776e+6 
           7770      7.06997e+6 
           7790      7.03309e+6 
           7810       6.9965e+6 
           7830      6.96019e+6 
           7850      6.92354e+6 
           7870      6.88779e+6 
           7890      6.85171e+6 
           7910       6.8159e+6 
           7930      6.78036e+6 
           7950       6.7451e+6 
           7970       6.7101e+6 
           7990      6.67537e+6 
           8010      6.64032e+6 
           8030      6.60611e+6 
           8050      6.57158e+6 
           8070      6.53731e+6 
           8090      6.50388e+6 
           8110      6.47012e+6 
           8130      6.43662e+6 
           8150      6.40337e+6 
           8170      6.37036e+6 
           8190      6.33704e+6 
           8210       6.3062e+6 
           8230      6.27392e+6 
           8250      6.24243e+6 
           8270      6.21117e+6 
           8290      6.18014e+6 
           8310      6.14825e+6 
           8330      6.11605e+6 
           8350      6.08462e+6 
           8370      6.04912e+6 
           8390      6.01764e+6 
           8410       5.9832e+6 
           8430      5.95749e+6 
           8450      5.92721e+6 
           8470      5.86775e+6 
           8490      5.88404e+6 
           8510      5.76642e+6 
           8530      5.83571e+6 
           8550      5.64405e+6 
           8570      5.79367e+6 
