# Kurucz ODFNEW /NOVER (2003)
# teff = 28000 K (value for the effective temperature for the model. Temperatures are given in K)
# logg = 5 log(cm/s2) (value for Log(G) for the model.)
# meta = 0.5  (value for the Metallicity for the model.)
# lh = 1.25  (l/Hp where l is the  mixing length of the convective element and Hp is the pressure scale height)
# vtur = 2 km/s (Microturbulence velocity)
# alpha = 0.4  (Alpha)
#
# column 1: WAVELENGTH (ANGSTROM), Wavelength in Angstrom
# column 2: FLUX (ERG/CM2/S/A), Flux in erg/cm2/s/A
          147.2     1.63288e-10 
            151     5.52248e-10 
          155.2      1.98382e-9 
          158.8      5.63389e-9 
            162      1.37277e-8 
            166       3.9874e-8 
          170.3      1.17884e-7 
          173.4      2.52568e-7 
          176.8      5.60884e-7 
          180.2      1.20959e-6 
          181.7      1.68003e-6 
          186.1      4.29919e-6 
            191      1.16888e-5 
          193.9      2.06295e-5 
          198.4      4.82902e-5 
          201.8      8.96363e-5 
            205      0.00015746 
          210.5      0.00039998 
          216.2       0.0010015 
          219.8      0.00174781 
            223      0.00282632 
          226.8      0.00503805 
            230       0.0800247 
            234        0.168261 
            240        0.352059 
          246.5        0.764219 
          252.4         1.50808 
          256.8         2.38087 
            260         3.57681 
            264         5.26084 
          268.5         8.44571 
          273.5           13.72 
          278.5         21.6939 
            284         39.6814 
            290          65.791 
            296         107.516 
            301         158.844 
            308         292.221 
            318          628.59 
            328         1191.95 
            338         2348.87 
            348         4285.12 
            357         24557.2 
            366         59098.5 
            375         83618.5 
            385          137864 
            395          358850 
            405          500951 
            414          791348 
            422      1.04648e+6 
            430      1.42558e+6 
            441       1.9894e+6 
            451      2.53226e+6 
            460      3.09484e+6 
            470      4.16636e+6 
            480      5.37101e+6 
            490      6.89285e+6 
            500      8.54829e+6 
            506      2.41455e+7 
            512       2.0989e+8 
            520      2.12328e+8 
            530      2.29163e+8 
            540      2.20754e+8 
            550      3.30986e+8 
            560      3.90653e+8 
            570      4.33488e+8 
            580      3.99239e+8 
            590      5.03752e+8 
            600       4.9316e+8 
            610      5.80777e+8 
            620      6.19251e+8 
            630      6.20469e+8 
            640      5.37704e+8 
            650      4.93752e+8 
            658      5.88495e+8 
            665      6.97063e+8 
            675       7.3335e+8 
            685      6.92087e+8 
            695      9.84281e+8 
            705      9.19037e+8 
            716      1.09619e+9 
            726      1.08056e+9 
            735      1.13334e+9 
            745      1.26698e+9 
            755      1.30819e+9 
            765      1.39072e+9 
            775      1.45937e+9 
            785      1.54005e+9 
            795      1.53463e+9 
            805      1.55703e+9 
            815      1.57209e+9 
            825      1.70164e+9 
            835       1.3305e+9 
            845      1.66642e+9 
            855      1.65848e+9 
            865      1.75021e+9 
            875      1.81534e+9 
            885       1.9414e+9 
            895      2.00112e+9 
            905      1.92646e+9 
            915      2.13427e+9 
            925      7.80955e+9 
            935     1.66714e+10 
            945     3.35136e+10 
            955     4.44008e+10 
            965     5.54318e+10 
            975      9.62961e+9 
            985      4.5597e+10 
            995     4.16637e+10 
           1005     4.87983e+10 
           1015     5.11655e+10 
           1025     2.38163e+10 
           1035     4.17094e+10 
           1045     6.41219e+10 
           1055     5.85119e+10 
           1065     4.05585e+10 
           1075     4.93689e+10 
           1085     4.59221e+10 
           1095     5.16853e+10 
           1105     4.49104e+10 
           1115     4.13236e+10 
           1125     2.77999e+10 
           1135     4.37959e+10 
           1145     3.80716e+10 
           1155     3.90108e+10 
           1165     3.92489e+10 
           1175     2.10638e+10 
           1185     3.65052e+10 
           1195     3.29923e+10 
           1205     2.09753e+10 
           1215     1.68311e+10 
           1225     2.92873e+10 
           1235     3.57531e+10 
           1245     3.45249e+10 
           1255     3.38477e+10 
           1265     3.51416e+10 
           1275     3.61892e+10 
           1285     3.63012e+10 
           1295     2.28034e+10 
           1305     2.50323e+10 
           1315     3.54088e+10 
           1325     3.22971e+10 
           1335     3.19334e+10 
           1345     3.07419e+10 
           1355     3.13342e+10 
           1365     2.72858e+10 
           1375       2.592e+10 
           1385     2.41507e+10 
           1395     1.36866e+10 
           1405     1.64238e+10 
           1415     2.18204e+10 
           1425     2.13686e+10 
           1435     2.26726e+10 
           1442     2.35618e+10 
           1447     2.32698e+10 
           1455     2.21586e+10 
           1465     2.00843e+10 
           1475     2.07652e+10 
           1485     2.02815e+10 
           1495     1.98291e+10 
           1505     1.71398e+10 
           1512     1.57991e+10 
           1517     1.63064e+10 
           1525     1.68324e+10 
           1535     1.37296e+10 
           1545     1.27645e+10 
           1555      1.2591e+10 
           1565     1.39205e+10 
           1575     1.49355e+10 
           1585     1.49449e+10 
           1595     1.49594e+10 
           1605     1.53527e+10 
           1615     1.47573e+10 
           1625     1.45235e+10 
           1635     1.54808e+10 
           1645     1.56913e+10 
           1655     1.53469e+10 
           1665     1.55735e+10 
           1672     1.46065e+10 
           1677     1.66923e+10 
           1685     1.59636e+10 
           1695     1.49589e+10 
           1705     1.45001e+10 
           1715      1.3718e+10 
           1725      1.3077e+10 
           1735     1.38616e+10 
           1745     1.36945e+10 
           1755     1.36196e+10 
           1765     1.34923e+10 
           1775     1.23686e+10 
           1785     1.26738e+10 
           1795     1.31246e+10 
           1805     1.32317e+10 
           1815       1.177e+10 
           1825     1.22069e+10 
           1835     1.17352e+10 
           1845     1.05928e+10 
           1855     1.09102e+10 
           1865     1.10195e+10 
           1875     1.13513e+10 
           1885     1.00946e+10 
           1895      9.46664e+9 
           1905     1.02882e+10 
           1915      9.56055e+9 
           1925      8.93862e+9 
           1935      9.66227e+9 
           1945      9.89926e+9 
           1955      8.75787e+9 
           1967      9.63515e+9 
           1976      1.0154e+10 
           1984       9.2643e+9 
           1995       9.1964e+9 
           2005      9.54094e+9 
           2015      9.38617e+9 
           2025       9.5592e+9 
           2035      8.75655e+9 
           2045      8.93479e+9 
           2055      8.33465e+9 
           2065      8.30855e+9 
           2074      8.50591e+9 
           2078      7.84259e+9 
           2085      8.29004e+9 
           2095      7.83685e+9 
           2105      8.31087e+9 
           2115      8.39838e+9 
           2125      8.38868e+9 
           2135      8.21846e+9 
           2145      7.82825e+9 
           2155      8.16243e+9 
           2165      8.05424e+9 
           2175      7.95113e+9 
           2185      7.67682e+9 
           2195      7.77968e+9 
           2205      7.77475e+9 
           2215      7.60228e+9 
           2225      7.37794e+9 
           2235      7.27519e+9 
           2245      7.32937e+9 
           2255      7.03217e+9 
           2265      7.15578e+9 
           2275      7.02051e+9 
           2285      6.92211e+9 
           2295      6.10832e+9 
           2305      6.67055e+9 
           2315      6.48455e+9 
           2325      6.43335e+9 
           2335      6.24114e+9 
           2345      6.32271e+9 
           2355      6.24556e+9 
           2365      6.19022e+9 
           2375      6.01538e+9 
           2385      5.96968e+9 
           2395      5.89038e+9 
           2405      5.79616e+9 
           2415      5.71855e+9 
           2425      5.70678e+9 
           2435      5.51679e+9 
           2445      5.52438e+9 
           2455      5.50934e+9 
           2465      5.42815e+9 
           2475      5.32798e+9 
           2485      5.13456e+9 
           2495      3.95949e+9 
           2505       4.8959e+9 
           2513      4.76772e+9 
           2518      4.89777e+9 
           2525      4.94138e+9 
           2535      4.92287e+9 
           2545      4.65416e+9 
           2555      4.74927e+9 
           2565      4.64222e+9 
           2575      4.69748e+9 
           2585      4.64474e+9 
           2595      4.59945e+9 
           2605      4.54677e+9 
           2615      4.47124e+9 
           2625      4.44309e+9 
           2635      4.39304e+9 
           2645      4.32456e+9 
           2655      4.29531e+9 
           2665      4.06724e+9 
           2675      4.10533e+9 
           2685      4.10925e+9 
           2695      3.93103e+9 
           2705      3.81455e+9 
           2715      3.84016e+9 
           2725      3.84846e+9 
           2735      3.81205e+9 
           2745      3.72718e+9 
           2755      3.71159e+9 
           2765      3.65902e+9 
           2775      3.71601e+9 
           2785      3.63701e+9 
           2795      3.45296e+9 
           2805      3.51327e+9 
           2815      3.54617e+9 
           2825      3.48934e+9 
           2835      3.33736e+9 
           2845       3.3993e+9 
           2855      3.32238e+9 
           2865      3.32296e+9 
           2875      3.27495e+9 
           2885      3.23011e+9 
           2895      3.17533e+9 
           2910       3.0788e+9 
           2930      3.08136e+9 
           2950      2.98154e+9 
           2970      2.93678e+9 
           2990      2.85043e+9 
           3010      2.70926e+9 
           3030      2.70468e+9 
           3050      2.67851e+9 
           3070      2.65856e+9 
           3090       2.5139e+9 
           3110      2.53032e+9 
           3130      2.44636e+9 
           3150      2.41824e+9 
           3170      2.34299e+9 
           3190      2.30426e+9 
           3210      2.27597e+9 
           3230      2.20873e+9 
           3250      2.18369e+9 
           3270      2.12542e+9 
           3290      2.08477e+9 
           3310      2.04287e+9 
           3330      1.99279e+9 
           3350      1.96124e+9 
           3370      1.91229e+9 
           3390      1.89301e+9 
           3410      1.85376e+9 
           3430      1.82052e+9 
           3450      1.77393e+9 
           3470      1.73958e+9 
           3490      1.70164e+9 
           3510      1.67282e+9 
           3530      1.65262e+9 
           3550      1.61713e+9 
           3570      1.59295e+9 
           3590       1.5381e+9 
           3610      1.52075e+9 
           3630      1.49118e+9 
           3640      1.49175e+9 
           3650      1.46823e+9 
           3670      1.45236e+9 
           3690      1.42778e+9 
           3710      1.36669e+9 
           3730      1.33003e+9 
           3750      1.31055e+9 
           3770      1.26119e+9 
           3790      1.30095e+9 
           3810      1.34333e+9 
           3830      1.17776e+9 
           3850      1.35269e+9 
           3870      1.34262e+9 
           3890      1.09961e+9 
           3910      1.36788e+9 
           3930      1.32845e+9 
           3950      1.29181e+9 
           3970      1.02019e+9 
           3990      1.25541e+9 
           4010       1.2655e+9 
           4030      1.18262e+9 
           4050       1.2169e+9 
           4070      1.13133e+9 
           4090      1.04199e+9 
           4110      9.33455e+8 
           4130      1.09843e+9 
           4150      1.09548e+9 
           4170      1.10402e+9 
           4190      1.08986e+9 
           4210      1.08514e+9 
           4230      1.05476e+9 
           4250      1.00714e+9 
           4270      9.79279e+8 
           4290      9.61715e+8 
           4310      9.20524e+8 
           4330      8.40186e+8 
           4350      7.74224e+8 
           4370       8.7879e+8 
           4390      8.85071e+8 
           4410      8.79831e+8 
           4430      8.81523e+8 
           4450      8.61403e+8 
           4470      8.16399e+8 
           4490      8.34724e+8 
           4510      8.36691e+8 
           4530       8.2495e+8 
           4550      8.14602e+8 
           4570      7.99442e+8 
           4590      7.84265e+8 
           4610      7.58153e+8 
           4630       7.4638e+8 
           4650      7.17341e+8 
           4670       7.2705e+8 
           4690      7.22284e+8 
           4710      6.84543e+8 
           4730      7.01296e+8 
           4750      6.89141e+8 
           4770      6.93193e+8 
           4790      6.78665e+8 
           4810      6.58085e+8 
           4830      6.40858e+8 
           4850        5.876e+8 
           4870      5.24806e+8 
           4890       6.1516e+8 
           4910      6.12503e+8 
           4930      5.88943e+8 
           4950      5.92666e+8 
           4970       5.9454e+8 
           4990      5.83701e+8 
           5010      5.52199e+8 
           5030      5.62275e+8 
           5050      5.48538e+8 
           5070        5.514e+8 
           5090      5.38656e+8 
           5110      5.29067e+8 
           5130      5.16389e+8 
           5150      5.11633e+8 
           5170      5.08697e+8 
           5190      5.03036e+8 
           5210      4.92728e+8 
           5230      4.89214e+8 
           5250      4.82624e+8 
           5270       4.7308e+8 
           5290      4.69416e+8 
           5310      4.62052e+8 
           5330      4.55594e+8 
           5350      4.47745e+8 
           5370      4.43972e+8 
           5390      4.36988e+8 
           5410      4.31356e+8 
           5430      4.24926e+8 
           5450      4.18223e+8 
           5470      4.12463e+8 
           5490      4.07914e+8 
           5510      4.03891e+8 
           5530        3.967e+8 
           5550      3.93137e+8 
           5570      3.87538e+8 
           5590      3.82925e+8 
           5610      3.77063e+8 
           5630      3.73165e+8 
           5650      3.64674e+8 
           5670      3.58063e+8 
           5690      3.52351e+8 
           5710      3.50557e+8 
           5730      3.47919e+8 
           5750      3.41389e+8 
           5770      3.40023e+8 
           5790      3.35059e+8 
           5810      3.30714e+8 
           5830      3.25379e+8 
           5850       3.2198e+8 
           5870       3.0714e+8 
           5890      3.09521e+8 
           5910      3.07764e+8 
           5930      3.04063e+8 
           5950      2.99575e+8 
           5970      2.99209e+8 
           5990      2.92888e+8 
           6010      2.91245e+8 
           6030       2.8655e+8 
           6050      2.83495e+8 
           6070       2.8071e+8 
           6090      2.77295e+8 
           6110      2.73908e+8 
           6130      2.70991e+8 
           6150      2.64779e+8 
           6170      2.62649e+8 
           6190      2.60847e+8 
           6210      2.58124e+8 
           6230      2.55285e+8 
           6250      2.50799e+8 
           6270      2.48368e+8 
           6290      2.45934e+8 
           6310      2.42277e+8 
           6330      2.40297e+8 
           6350      2.35768e+8 
           6370      2.34411e+8 
           6390      2.31645e+8 
           6410      2.28909e+8 
           6430      2.26794e+8 
           6450      2.23896e+8 
           6470      2.19328e+8 
           6490      2.17478e+8 
           6510      2.15023e+8 
           6530      2.10466e+8 
           6550      1.99866e+8 
           6570      1.75269e+8 
           6590      2.01359e+8 
           6610      2.02755e+8 
           6630      2.01396e+8 
           6650      1.98943e+8 
           6670      1.94526e+8 
           6690      1.92623e+8 
           6710      1.92841e+8 
           6730      1.89858e+8 
           6750      1.88892e+8 
           6770      1.86816e+8 
           6790       1.8235e+8 
           6810      1.82117e+8 
           6830       1.7968e+8 
           6850      1.78519e+8 
           6870      1.76468e+8 
           6890      1.74064e+8 
           6910      1.71472e+8 
           6930      1.70837e+8 
           6950      1.69184e+8 
           6970      1.67377e+8 
           6990      1.65418e+8 
           7010      1.63525e+8 
           7030      1.61727e+8 
           7050      1.60083e+8 
           7070      1.55312e+8 
           7090      1.56296e+8 
           7110      1.53756e+8 
           7130      1.52265e+8 
           7150      1.51267e+8 
           7170      1.50094e+8 
           7190      1.48801e+8 
           7210      1.47245e+8 
           7230      1.42972e+8 
           7250      1.43575e+8 
           7270      1.42672e+8 
           7290      1.39912e+8 
           7310      1.39676e+8 
           7330      1.38158e+8 
           7350      1.36828e+8 
           7370      1.35504e+8 
           7390      1.34116e+8 
           7410      1.32755e+8 
           7430      1.31182e+8 
           7450      1.29935e+8 
           7470      1.27087e+8 
           7490      1.27047e+8 
           7510      1.26017e+8 
           7530      1.24465e+8 
           7550      1.23608e+8 
           7570      1.22404e+8 
           7590      1.21092e+8 
           7610      1.19422e+8 
           7630      1.18694e+8 
           7650      1.17494e+8 
           7670      1.16428e+8 
           7690      1.15243e+8 
           7710      1.14088e+8 
           7730      1.12774e+8 
           7750      1.11935e+8 
           7770      1.09825e+8 
           7790      1.09777e+8 
           7810      1.08678e+8 
           7830      1.07669e+8 
           7850      1.06442e+8 
           7870      1.05056e+8 
           7890      1.03641e+8 
           7910      1.03334e+8 
           7930      1.02328e+8 
           7950      1.01147e+8 
           7970      1.00408e+8 
           7990      9.91805e+7 
           8010       9.8539e+7 
           8030      9.75755e+7 
           8050      9.66843e+7 
           8070      9.58297e+7 
           8090      9.48614e+7 
           8110      9.27732e+7 
           8130      9.31209e+7 
           8150      9.23128e+7 
           8170      9.15341e+7 
           8190      8.95599e+7 
           8210      8.90905e+7 
           8230      8.78682e+7 
           8250      8.80073e+7 
           8270      8.57038e+7 
           8290      8.61734e+7 
           8310      8.56554e+7 
           8330      8.49677e+7 
           8350      8.37561e+7 
           8370      8.30713e+7 
           8390      8.26596e+7 
           8410      8.17663e+7 
           8430       8.1172e+7 
           8450      7.95483e+7 
           8470      7.97612e+7 
           8490      7.87639e+7 
           8510      7.81289e+7 
           8530      7.74264e+7 
           8550      7.66111e+7 
           8570      7.63001e+7 
