# Kurucz ODFNEW /NOVER (2003)
# teff = 25000 K (value for the effective temperature for the model. Temperatures are given in K)
# logg = 5 log(cm/s2) (value for Log(G) for the model.)
# meta = -1  (value for the Metallicity for the model.)
# lh = 1.25  (l/Hp where l is the  mixing length of the convective element and Hp is the pressure scale height)
# vtur = 2 km/s (Microturbulence velocity)
# alpha = 0.4  (Alpha)
#
# column 1: WAVELENGTH (ANGSTROM), Wavelength in Angstrom
# column 2: FLUX (ERG/CM2/S/A), Flux in erg/cm2/s/A
          147.2     6.31098e-14 
            151     2.71828e-13 
          155.2     1.25988e-12 
          158.8     4.41051e-12 
            162     1.28607e-11 
            166     4.63885e-11 
          170.3     1.72828e-10 
          173.4     4.29597e-10 
          176.8      1.12637e-9 
          180.2       2.8547e-9 
          181.7      4.25752e-9 
          186.1      1.32925e-8 
            191      4.45764e-8 
          193.9      8.87484e-8 
          198.4      2.48801e-7 
          201.8      5.26741e-7 
            205      1.04426e-6 
          210.5      3.23207e-6 
          216.2       9.8304e-6 
          219.8      1.92833e-5 
            223      3.44798e-5 
          226.8      6.73266e-5 
            230      0.00133052 
            234      0.00303814 
            240      0.00731745 
          246.5       0.0180031 
          252.4        0.039595 
          256.8       0.0669126 
            260        0.102046 
            264         0.16376 
          268.5        0.274148 
          273.5        0.474977 
          278.5        0.809391 
            284         1.42684 
            290         2.56346 
            296         4.48725 
            301         7.02888 
            308         12.5424 
            318         29.2155 
            328         61.8685 
            338          127.64 
            348         249.364 
            357         451.488 
            366         783.264 
            375         1290.59 
            385         2214.22 
            395         3662.38 
            405         5901.12 
            414         8933.58 
            422         12535.8 
            430         17448.1 
            441         27063.2 
            451         39645.3 
            460         54540.3 
            470         76989.9 
            480          106576 
            490          145746 
            500          196758 
            506      1.16827e+6 
            512      4.33806e+6 
            520      5.25763e+6 
            530      6.90814e+6 
            540      7.42658e+6 
            550      1.00464e+7 
            560      1.15209e+7 
            570      1.37763e+7 
            580      1.38855e+7 
            590      1.76633e+7 
            600      2.05223e+7 
            610      2.38349e+7 
            620      2.65043e+7 
            630      2.99988e+7 
            640      3.20937e+7 
            650      3.60189e+7 
            658      4.03299e+7 
            665      4.33351e+7 
            675      4.66768e+7 
            685      5.07779e+7 
            695      5.86084e+7 
            705      6.29432e+7 
            716      7.01481e+7 
            726      7.53279e+7 
            735      8.14512e+7 
            745      8.94268e+7 
            755      9.67491e+7 
            765      1.04021e+8 
            775      1.12613e+8 
            785      1.21182e+8 
            795       1.2822e+8 
            805      1.36978e+8 
            815      1.45179e+8 
            825       1.5564e+8 
            835      1.59656e+8 
            845      1.72588e+8 
            855      1.81767e+8 
            865      1.93383e+8 
            875      2.04911e+8 
            885      2.17276e+8 
            895      2.28283e+8 
            905      2.34766e+8 
            915      2.97442e+8 
            925      1.18581e+9 
            935       3.0892e+9 
            945     1.05722e+10 
            955     1.88897e+10 
            965     2.66163e+10 
            975      7.37865e+9 
            985     3.48802e+10 
            995     3.39082e+10 
           1005     3.59921e+10 
           1015     2.97017e+10 
           1025      6.28154e+9 
           1035     2.39941e+10 
           1045     3.71512e+10 
           1055     3.62844e+10 
           1065     3.13793e+10 
           1075     3.40601e+10 
           1085     3.10261e+10 
           1095     3.35656e+10 
           1105     3.07061e+10 
           1115     3.00623e+10 
           1125     2.70251e+10 
           1135      2.9826e+10 
           1145     2.66887e+10 
           1155     2.79461e+10 
           1165     2.77373e+10 
           1175      2.2065e+10 
           1185     2.61852e+10 
           1195     2.30558e+10 
           1205     1.59957e+10 
           1215      5.00979e+9 
           1225      1.6414e+10 
           1235     2.22833e+10 
           1245     2.26741e+10 
           1255     2.21011e+10 
           1265     2.17983e+10 
           1275     2.20285e+10 
           1285     2.14898e+10 
           1295     1.77289e+10 
           1305     1.77235e+10 
           1315     2.01285e+10 
           1325     1.91669e+10 
           1335      1.8427e+10 
           1345     1.82887e+10 
           1355     1.83565e+10 
           1365     1.72824e+10 
           1375     1.70431e+10 
           1385     1.69167e+10 
           1395     1.46834e+10 
           1405      1.5056e+10 
           1415     1.56481e+10 
           1425     1.52966e+10 
           1435     1.51791e+10 
           1442      1.5312e+10 
           1447     1.50608e+10 
           1455     1.47462e+10 
           1465     1.42419e+10 
           1475     1.40074e+10 
           1485     1.36135e+10 
           1495     1.33998e+10 
           1505     1.26029e+10 
           1512     1.21745e+10 
           1517     1.23079e+10 
           1525     1.22071e+10 
           1535     1.13585e+10 
           1545     1.13933e+10 
           1555     1.09023e+10 
           1565     1.11143e+10 
           1575     1.12059e+10 
           1585     1.09767e+10 
           1595     1.09077e+10 
           1605     1.05681e+10 
           1615     1.03505e+10 
           1625     1.02797e+10 
           1635     1.02965e+10 
           1645     1.00253e+10 
           1655      9.89157e+9 
           1665      9.86239e+9 
           1672      9.58809e+9 
           1677      9.78243e+9 
           1685      9.60617e+9 
           1695      9.32663e+9 
           1705      9.04532e+9 
           1715      8.74865e+9 
           1725      8.60105e+9 
           1735      8.59104e+9 
           1745      8.43038e+9 
           1755      8.39867e+9 
           1765      8.03543e+9 
           1775      7.93378e+9 
           1785      7.85424e+9 
           1795      7.87863e+9 
           1805      7.79447e+9 
           1815      7.47792e+9 
           1825      7.47798e+9 
           1835      7.30607e+9 
           1845      6.86298e+9 
           1855      6.76411e+9 
           1865      6.78362e+9 
           1875      6.84165e+9 
           1885      6.40113e+9 
           1895      6.09288e+9 
           1905      6.32255e+9 
           1915      6.07743e+9 
           1925      5.90669e+9 
           1935       6.0092e+9 
           1945      6.04416e+9 
           1955       5.6787e+9 
           1967      5.83299e+9 
           1976      5.94458e+9 
           1984      5.65067e+9 
           1995      5.49785e+9 
           2005      5.54632e+9 
           2015      5.52166e+9 
           2025      5.54608e+9 
           2035      5.30413e+9 
           2045      5.25022e+9 
           2055      5.07917e+9 
           2065      5.09486e+9 
           2074      5.15425e+9 
           2078      4.98271e+9 
           2085      4.99143e+9 
           2095      4.82638e+9 
           2105      4.87816e+9 
           2115      4.83424e+9 
           2125      4.83857e+9 
           2135      4.74186e+9 
           2145      4.61882e+9 
           2155      4.62456e+9 
           2165      4.56868e+9 
           2175        4.493e+9 
           2185       4.4365e+9 
           2195      4.39703e+9 
           2205      4.33182e+9 
           2215      4.27629e+9 
           2225      4.19768e+9 
           2235      4.14067e+9 
           2245      4.10812e+9 
           2255      4.03473e+9 
           2265      4.00329e+9 
           2275      3.94808e+9 
           2285      3.90624e+9 
           2295      3.78709e+9 
           2305      3.79578e+9 
           2315      3.73058e+9 
           2325       3.6872e+9 
           2335      3.61105e+9 
           2345      3.57004e+9 
           2355      3.54855e+9 
           2365      3.49456e+9 
           2375      3.44843e+9 
           2385      3.40003e+9 
           2395      3.36231e+9 
           2405      3.31754e+9 
           2415      3.26925e+9 
           2425      3.25132e+9 
           2435      3.19487e+9 
           2445       3.1616e+9 
           2455      3.13165e+9 
           2465       3.0885e+9 
           2475      3.05123e+9 
           2485      3.01342e+9 
           2495      2.89817e+9 
           2505      2.93349e+9 
           2513       2.8568e+9 
           2518      2.88403e+9 
           2525      2.86044e+9 
           2535      2.82396e+9 
           2545      2.76285e+9 
           2555      2.75852e+9 
           2565      2.72062e+9 
           2575      2.70396e+9 
           2585      2.67355e+9 
           2595       2.6414e+9 
           2605      2.62333e+9 
           2615      2.59581e+9 
           2625      2.56853e+9 
           2635       2.5368e+9 
           2645      2.51335e+9 
           2655      2.48173e+9 
           2665      2.43864e+9 
           2675      2.41233e+9 
           2685       2.4025e+9 
           2695      2.34647e+9 
           2705      2.34321e+9 
           2715      2.31683e+9 
           2725       2.2679e+9 
           2735       2.2665e+9 
           2745      2.22237e+9 
           2755      2.20423e+9 
           2765      2.16575e+9 
           2775      2.16905e+9 
           2785      2.14214e+9 
           2795      2.06902e+9 
           2805      2.07885e+9 
           2815      2.07443e+9 
           2825      2.02422e+9 
           2835      1.98953e+9 
           2845      2.00489e+9 
           2855      1.98264e+9 
           2865      1.96318e+9 
           2875      1.94143e+9 
           2885      1.92112e+9 
           2895      1.90014e+9 
           2910      1.86788e+9 
           2930      1.82552e+9 
           2950      1.77237e+9 
           2970      1.75324e+9 
           2990       1.7138e+9 
           3010      1.67846e+9 
           3030      1.64665e+9 
           3050      1.61306e+9 
           3070       1.5806e+9 
           3090      1.54186e+9 
           3110      1.51633e+9 
           3130      1.48682e+9 
           3150      1.45748e+9 
           3170      1.42802e+9 
           3190      1.38484e+9 
           3210      1.37258e+9 
           3230      1.34484e+9 
           3250      1.31895e+9 
           3270      1.29512e+9 
           3290      1.26811e+9 
           3310      1.24626e+9 
           3330      1.22244e+9 
           3350      1.19687e+9 
           3370      1.17664e+9 
           3390      1.15493e+9 
           3410      1.13352e+9 
           3430      1.10727e+9 
           3450      1.08257e+9 
           3470      1.06593e+9 
           3490      1.04645e+9 
           3510      1.02906e+9 
           3530       1.0119e+9 
           3550      9.94578e+8 
           3570      9.83968e+8 
           3590      9.57279e+8 
           3610      9.44852e+8 
           3630      9.24662e+8 
           3640      9.25133e+8 
           3650       9.0876e+8 
           3670      8.97484e+8 
           3690      8.82635e+8 
           3710      8.53301e+8 
           3730      8.21619e+8 
           3750      8.17165e+8 
           3770      7.98021e+8 
           3790      8.38639e+8 
           3810      8.78415e+8 
           3830      7.58883e+8 
           3850      9.14063e+8 
           3870      9.41138e+8 
           3890      7.10508e+8 
           3910      9.31123e+8 
           3930      9.30134e+8 
           3950       9.0345e+8 
           3970       6.6182e+8 
           3990      8.60959e+8 
           4010      8.75844e+8 
           4030      8.08276e+8 
           4050      8.61339e+8 
           4070      8.33449e+8 
           4090      7.34109e+8 
           4110       6.3222e+8 
           4130      7.77383e+8 
           4150      7.80233e+8 
           4170      7.77793e+8 
           4190       7.6854e+8 
           4210      7.57578e+8 
           4230      7.44262e+8 
           4250      7.29953e+8 
           4270      7.11602e+8 
           4290      7.02321e+8 
           4310      6.81277e+8 
           4330      5.88737e+8 
           4350      5.33464e+8 
           4370      6.44608e+8 
           4390      6.20744e+8 
           4410      6.37151e+8 
           4430      6.26939e+8 
           4450      6.19128e+8 
           4470      5.68858e+8 
           4490      5.96803e+8 
           4510      5.92392e+8 
           4530      5.82712e+8 
           4550      5.73015e+8 
           4570      5.63843e+8 
           4590      5.55418e+8 
           4610      5.46798e+8 
           4630      5.38464e+8 
           4650        5.275e+8 
           4670      5.21765e+8 
           4690      5.14755e+8 
           4710      4.96722e+8 
           4730       4.9802e+8 
           4750      4.89928e+8 
           4770      4.84785e+8 
           4790      4.76164e+8 
           4810      4.66855e+8 
           4830      4.53825e+8 
           4850      4.02443e+8 
           4870      3.56462e+8 
           4890      4.30908e+8 
           4910      4.32046e+8 
           4930      4.13094e+8 
           4950      4.23139e+8 
           4970      4.18139e+8 
           4990       4.1201e+8 
           5010      3.98341e+8 
           5030      4.00093e+8 
           5050      3.90298e+8 
           5070      3.89115e+8 
           5090      3.83533e+8 
           5110      3.78041e+8 
           5130      3.72522e+8 
           5150      3.67319e+8 
           5170       3.6251e+8 
           5190      3.57511e+8 
           5210      3.51926e+8 
           5230       3.4778e+8 
           5250      3.43003e+8 
           5270      3.38275e+8 
           5290      3.33716e+8 
           5310      3.29176e+8 
           5330      3.24628e+8 
           5350       3.2006e+8 
           5370      3.16061e+8 
           5390        3.118e+8 
           5410      3.07633e+8 
           5430      3.03327e+8 
           5450      2.99392e+8 
           5470      2.95432e+8 
           5490      2.91671e+8 
           5510      2.87845e+8 
           5530      2.84054e+8 
           5550      2.80396e+8 
           5570      2.76722e+8 
           5590      2.73179e+8 
           5610      2.69558e+8 
           5630      2.66209e+8 
           5650       2.6238e+8 
           5670      2.59009e+8 
           5690      2.55748e+8 
           5710      2.52793e+8 
           5730      2.49643e+8 
           5750      2.46337e+8 
           5770      2.43433e+8 
           5790      2.40383e+8 
           5810      2.37358e+8 
           5830      2.34391e+8 
           5850      2.31492e+8 
           5870       2.1929e+8 
           5890      2.24612e+8 
           5910      2.22998e+8 
           5930      2.20264e+8 
           5950      2.17466e+8 
           5970      2.14986e+8 
           5990      2.12282e+8 
           6010      2.09808e+8 
           6030      2.07258e+8 
           6050      2.04789e+8 
           6070      2.02327e+8 
           6090      1.99903e+8 
           6110      1.97537e+8 
           6130      1.95198e+8 
           6150      1.92735e+8 
           6170      1.90577e+8 
           6190      1.88364e+8 
           6210      1.86156e+8 
           6230      1.83973e+8 
           6250      1.81775e+8 
           6270      1.79698e+8 
           6290      1.77614e+8 
           6310      1.75534e+8 
           6330      1.73543e+8 
           6350      1.71256e+8 
           6370      1.69439e+8 
           6390      1.67624e+8 
           6410      1.65699e+8 
           6430      1.63868e+8 
           6450      1.61993e+8 
           6470      1.60084e+8 
           6490      1.58124e+8 
           6510      1.55918e+8 
           6530      1.52941e+8 
           6550      1.42692e+8 
           6570      1.25321e+8 
           6590       1.4578e+8 
           6610      1.47106e+8 
           6630      1.46032e+8 
           6650      1.44814e+8 
           6670      1.41144e+8 
           6690      1.39712e+8 
           6710      1.40202e+8 
           6730      1.38647e+8 
           6750      1.37189e+8 
           6770      1.35698e+8 
           6790      1.34099e+8 
           6810      1.32776e+8 
           6830      1.31338e+8 
           6850      1.29953e+8 
           6870      1.28567e+8 
           6890      1.27187e+8 
           6910      1.25837e+8 
           6930      1.24499e+8 
           6950      1.23199e+8 
           6970      1.21904e+8 
           6990      1.20613e+8 
           7010      1.19351e+8 
           7030      1.18101e+8 
           7050      1.16871e+8 
           7070      1.13483e+8 
           7090       1.1447e+8 
           7110      1.13282e+8 
           7130      1.12114e+8 
           7150       1.1095e+8 
           7170      1.09804e+8 
           7190      1.08699e+8 
           7210      1.07589e+8 
           7230      1.05964e+8 
           7250      1.05395e+8 
           7270      1.04345e+8 
           7290      1.02313e+8 
           7310      1.02233e+8 
           7330       1.0122e+8 
           7350      1.00203e+8 
           7370      9.92023e+7 
           7390      9.82108e+7 
           7410      9.72354e+7 
           7430      9.62554e+7 
           7450      9.53252e+7 
           7470      9.43564e+7 
           7490      9.34502e+7 
           7510      9.25056e+7 
           7530      9.16295e+7 
           7550      9.07415e+7 
           7570      8.98551e+7 
           7590      8.89767e+7 
           7610      8.81128e+7 
           7630      8.72633e+7 
           7650      8.64213e+7 
           7670       8.5587e+7 
           7690      8.47665e+7 
           7710      8.39534e+7 
           7730      8.31476e+7 
           7750      8.23552e+7 
           7770      8.14013e+7 
           7790      8.07977e+7 
           7810      7.99891e+7 
           7830      7.92799e+7 
           7850      7.85646e+7 
           7870      7.78313e+7 
           7890      7.70136e+7 
           7910      7.64199e+7 
           7930      7.57114e+7 
           7950      7.49495e+7 
           7970      7.41764e+7 
           7990      7.34338e+7 
           8010      7.27681e+7 
           8030      7.20847e+7 
           8050      7.14189e+7 
           8070      7.07645e+7 
           8090      7.00524e+7 
           8110      6.94324e+7 
           8130      6.88689e+7 
           8150      6.82137e+7 
           8170      6.76487e+7 
           8190      6.69593e+7 
           8210      6.62199e+7 
           8230      6.57594e+7 
           8250      6.52195e+7 
           8270      6.43316e+7 
           8290       6.4038e+7 
           8310       6.3501e+7 
           8330      6.28978e+7 
           8350      6.20457e+7 
           8370      6.17012e+7 
           8390      6.12575e+7 
           8410      6.07215e+7 
           8430      6.01421e+7 
           8450      5.91508e+7 
           8470      5.91028e+7 
           8490      5.84379e+7 
           8510      5.80231e+7 
           8530      5.73889e+7 
           8550      5.67755e+7 
           8570      5.66903e+7 
           8590      5.50175e+7 
