# Kurucz ODFNEW /NOVER (2003)
# teff = 9000 K (value for the effective temperature for the model. Temperatures are given in K)
# logg = 3.5 log(cm/s2) (value for Log(G) for the model.)
# meta = -2  (value for the Metallicity for the model.)
# lh = 1.25  (l/Hp where l is the  mixing length of the convective element and Hp is the pressure scale height)
# vtur = 2 km/s (Microturbulence velocity)
# alpha = 0.4  (Alpha)
#
# column 1: WAVELENGTH (ANGSTROM), Wavelength in Angstrom
# column 2: FLUX (ERG/CM2/S/A), Flux in erg/cm2/s/A
          268.5     6.71654e-24 
          273.5     8.19463e-23 
          278.5     3.73693e-22 
            284     1.73133e-21 
            290     8.56175e-21 
            296     3.95339e-20 
            301     1.35002e-19 
            308      7.0335e-19 
            318      6.5288e-18 
            328     5.27079e-17 
            338     3.74441e-16 
            348     2.36927e-15 
            357     1.13765e-14 
            366      5.0473e-14 
            375     2.07912e-13 
            385     9.24839e-13 
            395     3.80243e-12 
            405     1.45421e-11 
            414     4.59163e-11 
            422     1.22212e-10 
            430      3.1316e-10 
            441      1.07807e-9 
            451      3.13958e-9 
            460      7.88141e-9 
            470      2.09904e-8 
            480      5.35531e-8 
            490      1.31279e-7 
            500      3.09807e-7 
            506       5.7605e-7 
            512      9.87696e-7 
            520      1.84812e-6 
            530      3.94875e-6 
            540      8.12307e-6 
            550      1.63594e-5 
            560      3.19824e-5 
            570      6.09852e-5 
            580     0.000113041 
            590     0.000206785 
            600     0.000368619 
            610     0.000643963 
            620      0.00110343 
            630       0.0018566 
            640      0.00307012 
            650      0.00499289 
            658       0.0072834 
            665       0.0100541 
            675       0.0157364 
            685       0.0242862 
            695       0.0369854 
            705          0.0556 
            716       0.0858314 
            726        0.125797 
            735        0.175755 
            745        0.252262 
            755        0.358307 
            765        0.503851 
            775        0.701744 
            785        0.968379 
            795          1.3247 
            805         1.79684 
            815         2.41723 
            825         3.22638 
            835          4.2735 
            845         5.61961 
            855         7.33747 
            865          9.5151 
            875         12.2581 
            885         15.6925 
            895         19.9684 
            905         25.2594 
            915         67.5996 
            925         342.732 
            935         602.224 
            945          1147.2 
            955          1855.3 
            965         2486.87 
            975          1681.8 
            985         4934.01 
            995          7518.8 
           1005          7581.4 
           1015         5413.85 
           1025          3058.3 
           1035         7293.16 
           1045         14300.6 
           1055         69505.5 
           1065          318526 
           1075          757028 
           1085      1.19231e+6 
           1095      1.25562e+6 
           1105      3.92395e+6 
           1115      1.19638e+7 
           1125      1.19595e+7 
           1135      1.19866e+7 
           1145      8.42668e+6 
           1155      4.41053e+6 
           1165      1.60568e+6 
           1175          264816 
           1185          305869 
           1195         34203.2 
           1205         24157.5 
           1215         9332.58 
           1225         26608.6 
           1235         50864.6 
           1245         65907.1 
           1255          187108 
           1265          970130 
           1275      3.74383e+6 
           1285      1.02803e+7 
           1295      1.52635e+7 
           1305      1.71795e+7 
           1315      2.52653e+7 
           1325      3.13658e+7 
           1335      3.54212e+7 
           1345      4.08524e+7 
           1355      4.07708e+7 
           1365      4.22218e+7 
           1375      4.19366e+7 
           1385      3.92672e+7 
           1395      3.80848e+7 
           1405      4.74608e+7 
           1415      5.64485e+7 
           1425      5.91599e+7 
           1435      5.64776e+7 
           1442      6.19348e+7 
           1447      6.19717e+7 
           1455      6.39454e+7 
           1465       6.1708e+7 
           1475      6.21243e+7 
           1485      6.22454e+7 
           1495      6.39995e+7 
           1505      6.49913e+7 
           1512      6.44206e+7 
           1517      6.40098e+7 
           1525      6.26952e+7 
           1535      6.16076e+7 
           1545      6.30191e+7 
           1555      5.90203e+7 
           1565      5.28603e+7 
           1575      5.73107e+7 
           1585      5.85543e+7 
           1595      6.01784e+7 
           1605      5.77095e+7 
           1615      5.95276e+7 
           1625      5.76773e+7 
           1635      6.04647e+7 
           1645      6.32095e+7 
           1655      5.76037e+7 
           1665       6.3642e+7 
           1672      5.85406e+7 
           1677      6.11524e+7 
           1685      6.36369e+7 
           1695      6.07194e+7 
           1705      6.02295e+7 
           1715        6.226e+7 
           1725      6.12744e+7 
           1735       6.2804e+7 
           1745      6.13612e+7 
           1755      6.26895e+7 
           1765      5.91453e+7 
           1775      6.17247e+7 
           1785      6.08589e+7 
           1795      6.24159e+7 
           1805      6.06023e+7 
           1815      6.00965e+7 
           1825      5.89409e+7 
           1835      5.91885e+7 
           1845      5.67901e+7 
           1855      5.82684e+7 
           1865      5.84055e+7 
           1875      5.86318e+7 
           1885      5.85977e+7 
           1895      5.80082e+7 
           1905       5.6371e+7 
           1915      5.70001e+7 
           1925      5.75419e+7 
           1935      5.63179e+7 
           1945       5.7704e+7 
           1955      5.73045e+7 
           1967      5.71965e+7 
           1976      5.59608e+7 
           1984      5.55601e+7 
           1995      5.56799e+7 
           2005      5.46451e+7 
           2015      5.33618e+7 
           2025      5.32623e+7 
           2035      5.41866e+7 
           2045      5.39588e+7 
           2055      5.22565e+7 
           2065      5.24973e+7 
           2074      5.33353e+7 
           2078      5.36327e+7 
           2085      5.33512e+7 
           2095      5.27144e+7 
           2105      5.25004e+7 
           2115      5.21087e+7 
           2125       5.1863e+7 
           2135      5.01435e+7 
           2145      5.16962e+7 
           2155      5.10464e+7 
           2165       4.9773e+7 
           2175      4.97791e+7 
           2185      4.98003e+7 
           2195      5.09364e+7 
           2205      4.95689e+7 
           2215      4.76173e+7 
           2225       4.7799e+7 
           2235      4.97457e+7 
           2245      4.83916e+7 
           2255      4.71765e+7 
           2265      4.66375e+7 
           2275      4.81995e+7 
           2285      4.84164e+7 
           2295      4.72043e+7 
           2305      4.73508e+7 
           2315      4.68899e+7 
           2325      4.70087e+7 
           2335      4.62559e+7 
           2345      4.39509e+7 
           2355      4.59729e+7 
           2365      4.41321e+7 
           2375      4.52873e+7 
           2385      4.26148e+7 
           2395      4.46845e+7 
           2405      4.40675e+7 
           2415      4.42427e+7 
           2425      4.50298e+7 
           2435      4.38899e+7 
           2445      4.46156e+7 
           2455      4.43948e+7 
           2465      4.35207e+7 
           2475       4.2936e+7 
           2485      4.37673e+7 
           2495      4.29972e+7 
           2505      4.42486e+7 
           2513      4.30385e+7 
           2518       4.2835e+7 
           2525      4.15886e+7 
           2535      4.13972e+7 
           2545      4.16663e+7 
           2555      4.29394e+7 
           2565      4.26241e+7 
           2575      4.34209e+7 
           2585       4.3619e+7 
           2595      4.32767e+7 
           2605      4.25931e+7 
           2615      4.23369e+7 
           2625      4.24288e+7 
           2635      4.26586e+7 
           2645      4.43673e+7 
           2655      4.40866e+7 
           2665      4.30133e+7 
           2675       4.3432e+7 
           2685      4.36902e+7 
           2695      4.30652e+7 
           2705       4.3046e+7 
           2715      4.22552e+7 
           2725      4.22429e+7 
           2735      4.28406e+7 
           2745      4.07216e+7 
           2755      4.08246e+7 
           2765      4.15898e+7 
           2775      4.24608e+7 
           2785       4.2138e+7 
           2795      3.80765e+7 
           2805       4.0041e+7 
           2815      4.25858e+7 
           2825      4.23528e+7 
           2835      4.17255e+7 
           2845       4.1381e+7 
           2855      4.07168e+7 
           2865      4.11275e+7 
           2875      4.10542e+7 
           2885      4.12744e+7 
           2895      4.15071e+7 
           2910      4.18713e+7 
           2930      4.10844e+7 
           2950      4.09197e+7 
           2970      4.09329e+7 
           2990      4.07491e+7 
           3010      4.08909e+7 
           3030       4.0771e+7 
           3050       4.0522e+7 
           3070      4.00557e+7 
           3090      4.01425e+7 
           3110      3.99356e+7 
           3130      3.96806e+7 
           3150      3.95087e+7 
           3170      3.94016e+7 
           3190      3.88424e+7 
           3210      3.89595e+7 
           3230      3.85074e+7 
           3250      3.85914e+7 
           3270      3.86422e+7 
           3290      3.85775e+7 
           3310      3.84566e+7 
           3330      3.80606e+7 
           3350      3.76981e+7 
           3370      3.76567e+7 
           3390      3.74858e+7 
           3410      3.75851e+7 
           3430      3.74107e+7 
           3450      3.72504e+7 
           3470      3.70569e+7 
           3490      3.69241e+7 
           3510      3.67981e+7 
           3530      3.66695e+7 
           3550      3.65146e+7 
           3570      3.63017e+7 
           3590       3.6141e+7 
           3610      3.59873e+7 
           3630      3.58234e+7 
           3640      3.57236e+7 
           3650      3.58957e+7 
           3670      3.56538e+7 
           3690      3.42889e+7 
           3710      3.71992e+7 
           3730      4.03106e+7 
           3750      5.38874e+7 
           3770      5.81307e+7 
           3790      7.23502e+7 
           3810      8.59833e+7 
           3830      6.76649e+7 
           3850      9.57906e+7 
           3870      1.09083e+8 
           3890      5.74377e+7 
           3910       1.0791e+8 
           3930       1.1439e+8 
           3950      1.06805e+8 
           3970      5.50888e+7 
           3990      1.01013e+8 
           4010      1.12273e+8 
           4030      1.12017e+8 
           4050      1.10434e+8 
           4070      1.06008e+8 
           4090      8.04441e+7 
           4110      6.03785e+7 
           4130      9.97255e+7 
           4150      1.03255e+8 
           4170      1.02711e+8 
           4190      1.01686e+8 
           4210      1.00435e+8 
           4230      9.89486e+7 
           4250      9.77108e+7 
           4270      9.62067e+7 
           4290      9.42617e+7 
           4310      8.98054e+7 
           4330      6.57517e+7 
           4350      5.53731e+7 
           4370       8.5565e+7 
           4390      8.80927e+7 
           4410       8.7894e+7 
           4430      8.71406e+7 
           4450       8.6205e+7 
           4470      8.51317e+7 
           4490      8.36705e+7 
           4510      8.31023e+7 
           4530      8.20709e+7 
           4550      8.09215e+7 
           4570      8.00813e+7 
           4590      7.91132e+7 
           4610      7.82545e+7 
           4630      7.72407e+7 
           4650      7.63721e+7 
           4670      7.54533e+7 
           4690      7.45166e+7 
           4710      7.34521e+7 
           4730      7.27581e+7 
           4750      7.17577e+7 
           4770      7.08029e+7 
           4790      6.97465e+7 
           4810      6.83291e+7 
           4830      6.52356e+7 
           4850      5.02893e+7 
           4870      4.03814e+7 
           4890      6.14924e+7 
           4910      6.41959e+7 
           4930      6.41148e+7 
           4950      6.37084e+7 
           4970      6.30976e+7 
           4990      6.25005e+7 
           5010      6.17248e+7 
           5030      6.11069e+7 
           5050      6.03801e+7 
           5070      5.97523e+7 
           5090      5.90859e+7 
           5110      5.84266e+7 
           5130      5.77729e+7 
           5150      5.71305e+7 
           5170      5.62524e+7 
           5190      5.57442e+7 
           5210      5.52615e+7 
           5230      5.46207e+7 
           5250        5.407e+7 
           5270      5.34338e+7 
           5290         5.29e+7 
           5310      5.23058e+7 
           5330      5.17377e+7 
           5350       5.1212e+7 
           5370      5.06562e+7 
           5390      5.01189e+7 
           5410      4.95765e+7 
           5430      4.90561e+7 
           5450      4.85445e+7 
           5470      4.80341e+7 
           5490      4.75297e+7 
           5510      4.70327e+7 
           5530      4.65342e+7 
           5550        4.606e+7 
           5570      4.55792e+7 
           5590      4.51042e+7 
           5610      4.46419e+7 
           5630      4.41851e+7 
           5650        4.373e+7 
           5670      4.32838e+7 
           5690      4.28439e+7 
           5710      4.24079e+7 
           5730      4.19793e+7 
           5750      4.15533e+7 
           5770      4.11356e+7 
           5790      4.07216e+7 
           5810      4.03145e+7 
           5830      3.99109e+7 
           5850       3.9513e+7 
           5870      3.91009e+7 
           5890      3.87099e+7 
           5910      3.83502e+7 
           5930       3.7973e+7 
           5950      3.75979e+7 
           5970      3.72312e+7 
           5990      3.68644e+7 
           6010      3.65078e+7 
           6030      3.61541e+7 
           6050      3.58043e+7 
           6070      3.54594e+7 
           6090      3.51182e+7 
           6110      3.47807e+7 
           6130      3.44458e+7 
           6150      3.41036e+7 
           6170      3.37918e+7 
           6190      3.34735e+7 
           6210      3.31567e+7 
           6230      3.28432e+7 
           6250      3.25282e+7 
           6270       3.2229e+7 
           6290      3.19263e+7 
           6310      3.16268e+7 
           6330      3.13332e+7 
           6350      3.10138e+7 
           6370      3.07395e+7 
           6390       3.0469e+7 
           6410      3.01847e+7 
           6430       2.9907e+7 
           6450      2.95715e+7 
           6470      2.92611e+7 
           6490      2.89165e+7 
           6510      2.84662e+7 
           6530      2.75668e+7 
           6550      2.38687e+7 
           6570      1.91511e+7 
           6590      2.60044e+7 
           6610      2.70372e+7 
           6630      2.70877e+7 
           6650      2.69463e+7 
           6670      2.67494e+7 
           6690      2.65737e+7 
           6710      2.63427e+7 
           6730      2.61074e+7 
           6750      2.58768e+7 
           6770       2.5651e+7 
           6790      2.54249e+7 
           6810      2.52019e+7 
           6830       2.4981e+7 
           6850      2.47631e+7 
           6870      2.45473e+7 
           6890      2.43336e+7 
           6910      2.41227e+7 
           6930      2.39138e+7 
           6950      2.37078e+7 
           6970      2.35037e+7 
           6990      2.33015e+7 
           7010      2.30997e+7 
           7030      2.29037e+7 
           7050      2.27087e+7 
           7070      2.25156e+7 
           7090      2.23243e+7 
           7110      2.21304e+7 
           7130      2.19478e+7 
           7150      2.17618e+7 
           7170      2.15798e+7 
           7190      2.13987e+7 
           7210      2.12193e+7 
           7230      2.10422e+7 
           7250      2.08668e+7 
           7270      2.06937e+7 
           7290      2.05207e+7 
           7310      2.03515e+7 
           7330      2.01831e+7 
           7350      2.00169e+7 
           7370      1.98522e+7 
           7390      1.96891e+7 
           7410      1.95267e+7 
           7430      1.93664e+7 
           7450      1.92096e+7 
           7470      1.90515e+7 
           7490      1.88975e+7 
           7510      1.87456e+7 
           7530      1.85943e+7 
           7550      1.84444e+7 
           7570      1.82958e+7 
           7590      1.81491e+7 
           7610      1.80031e+7 
           7630      1.78597e+7 
           7650      1.77169e+7 
           7670      1.75759e+7 
           7690      1.74362e+7 
           7710      1.72971e+7 
           7730       1.7161e+7 
           7750      1.70255e+7 
           7770      1.67951e+7 
           7790      1.67586e+7 
           7810      1.66272e+7 
           7830      1.64969e+7 
           7850      1.63677e+7 
           7870      1.62353e+7 
           7890      1.61047e+7 
           7910      1.59885e+7 
           7930      1.58642e+7 
           7950      1.57398e+7 
           7970      1.56205e+7 
           7990      1.54905e+7 
           8010      1.53809e+7 
           8030      1.52629e+7 
           8050      1.51459e+7 
           8070      1.50304e+7 
           8090      1.49159e+7 
           8110      1.48024e+7 
           8130      1.46897e+7 
           8150      1.45786e+7 
           8170      1.44683e+7 
           8190      1.43551e+7 
           8210       1.4288e+7 
           8230      1.41875e+7 
           8250      1.40873e+7 
           8270       1.4001e+7 
           8290      1.39056e+7 
           8310      1.38076e+7 
           8330      1.37012e+7 
           8350      1.35979e+7 
           8370      1.34722e+7 
           8390      1.33454e+7 
           8410      1.32032e+7 
           8430      1.31189e+7 
           8450      1.30146e+7 
           8470      1.26104e+7 
           8490      1.29994e+7 
           8510      1.21893e+7 
           8530      1.30098e+7 
           8550      1.15288e+7 
           8570      1.31487e+7 
           8590      1.20542e+7 
           8610      1.16934e+7 
           8630       1.3313e+7 
           8650      1.26891e+7 
           8670      1.03573e+7 
           8690      1.30535e+7 
           8710      1.35379e+7 
           8730      1.29213e+7 
           8750      9.95279e+6 
           8770      1.22066e+7 
           8790       1.3413e+7 
           8810      1.35366e+7 
           8830      1.31724e+7 
           8850      1.15666e+7 
           8870      9.63791e+6 
           8890      1.24046e+7 
           8910      1.30494e+7 
           8930      1.31242e+7 
           8950      1.30539e+7 
           8970      1.28117e+7 
           8990      1.21129e+7 
           9010      9.48319e+6 
           9030      1.04396e+7 
           9050      1.21088e+7 
           9070      1.24177e+7 
           9090      1.24224e+7 
           9110      1.24033e+7 
           9130      1.23269e+7 
           9150       1.2215e+7 
           9170      1.20533e+7 
