# Kurucz ODFNEW /NOVER (2003)
# teff = 25000 K (value for the effective temperature for the model. Temperatures are given in K)
# logg = 3.5 log(cm/s2) (value for Log(G) for the model.)
# meta = -1.5  (value for the Metallicity for the model.)
# lh = 1.25  (l/Hp where l is the  mixing length of the convective element and Hp is the pressure scale height)
# vtur = 2 km/s (Microturbulence velocity)
# alpha = 0  (Alpha)
#
# column 1: WAVELENGTH (ANGSTROM), Wavelength in Angstrom
# column 2: FLUX (ERG/CM2/S/A), Flux in erg/cm2/s/A
          147.2     7.97157e-14 
            151     3.70567e-13 
          155.2     1.85338e-12 
          158.8     6.87698e-12 
            162     2.09926e-11 
            166      7.9636e-11 
          170.3     3.10844e-10 
          173.4     7.94855e-10 
          176.8      2.14071e-9 
          180.2      5.54849e-9 
          181.7      8.34855e-9 
          186.1      2.66264e-8 
            191      9.08071e-8 
          193.9      1.82126e-7 
          198.4      5.14419e-7 
          201.8      1.09198e-6 
            205      2.16616e-6 
          210.5       6.6891e-6 
          216.2      2.02169e-5 
          219.8      3.94235e-5 
            223      7.00581e-5 
          226.8     0.000135676 
            230      0.00853089 
            234       0.0203267 
            240       0.0468315 
          246.5        0.111285 
          252.4        0.236608 
          256.8        0.365794 
            260        0.582203 
            264        0.904527 
          268.5          1.4786 
          273.5         2.49274 
          278.5         4.12491 
            284         7.07302 
            290         12.2932 
            296          20.841 
            301         31.3476 
            308         51.8646 
            318         122.365 
            328         248.465 
            338         493.319 
            348         927.918 
            357         1629.45 
            366         2744.31 
            375         4368.59 
            385         7289.83 
            395         11729.6 
            405         18367.1 
            414         27136.6 
            422         37272.3 
            430         50906.4 
            441         76916.5 
            451          109888 
            460          148025 
            470          205283 
            480          278328 
            490          373560 
            500          495143 
            506      3.63919e+6 
            512      1.09383e+7 
            520      1.25725e+7 
            530      1.54836e+7 
            540       1.6334e+7 
            550      2.15626e+7 
            560      2.45283e+7 
            570      2.87817e+7 
            580      2.85929e+7 
            590      3.57823e+7 
            600      4.08479e+7 
            610       4.6631e+7 
            620      5.15886e+7 
            630      5.76484e+7 
            640      6.11992e+7 
            650      6.70231e+7 
            658      7.51311e+7 
            665      8.04538e+7 
            675      8.51398e+7 
            685      9.14235e+7 
            695      1.04941e+8 
            705      1.10701e+8 
            716      1.23015e+8 
            726      1.30821e+8 
            735      1.39701e+8 
            745       1.5281e+8 
            755      1.63645e+8 
            765      1.74922e+8 
            775      1.87774e+8 
            785      2.01299e+8 
            795      2.11991e+8 
            805      2.24552e+8 
            815      2.34917e+8 
            825      2.51336e+8 
            835      2.53408e+8 
            845      2.74322e+8 
            855      2.87459e+8 
            865       3.0381e+8 
            875       3.2204e+8 
            885      3.39445e+8 
            895      3.54806e+8 
            905      3.65623e+8 
            915      6.16914e+8 
            925      6.05849e+9 
            935     1.32463e+10 
            945      2.3624e+10 
            955     2.65508e+10 
            965     3.08581e+10 
            975     1.38058e+10 
            985     2.95447e+10 
            995     2.79678e+10 
           1005      2.9201e+10 
           1015     2.82716e+10 
           1025     1.68147e+10 
           1035     2.56129e+10 
           1045     3.00038e+10 
           1055     2.87977e+10 
           1065     2.60755e+10 
           1075     2.74023e+10 
           1085     2.54149e+10 
           1095     2.71155e+10 
           1105     2.58855e+10 
           1115     2.56363e+10 
           1125     2.36365e+10 
           1135     2.50774e+10 
           1145     2.35628e+10 
           1155     2.40538e+10 
           1165     2.37939e+10 
           1175     1.94637e+10 
           1185     2.26168e+10 
           1195     2.15645e+10 
           1205     1.91387e+10 
           1215     1.18751e+10 
           1225     2.01582e+10 
           1235     2.09156e+10 
           1245     2.04354e+10 
           1255     2.02058e+10 
           1265     1.98532e+10 
           1275     1.98445e+10 
           1285     1.94686e+10 
           1295     1.76523e+10 
           1305     1.79312e+10 
           1315      1.8448e+10 
           1325     1.78066e+10 
           1335      1.7146e+10 
           1345     1.72206e+10 
           1355     1.71892e+10 
           1365     1.66048e+10 
           1375     1.63156e+10 
           1385     1.61022e+10 
           1395     1.46617e+10 
           1405     1.48018e+10 
           1415     1.51136e+10 
           1425     1.47248e+10 
           1435     1.46945e+10 
           1442     1.46861e+10 
           1447     1.44856e+10 
           1455     1.42303e+10 
           1465      1.3874e+10 
           1475     1.36737e+10 
           1485     1.34531e+10 
           1495     1.31859e+10 
           1505     1.27187e+10 
           1512     1.23387e+10 
           1517      1.2385e+10 
           1525     1.22335e+10 
           1535     1.14497e+10 
           1545     1.13725e+10 
           1555     1.09733e+10 
           1565     1.12118e+10 
           1575     1.12699e+10 
           1585     1.11239e+10 
           1595     1.09948e+10 
           1605     1.05662e+10 
           1615     1.03606e+10 
           1625     1.03288e+10 
           1635     1.03299e+10 
           1645     1.00126e+10 
           1655     1.00419e+10 
           1665      9.92504e+9 
           1672      9.72487e+9 
           1677      9.92885e+9 
           1685      9.72612e+9 
           1695      9.47755e+9 
           1705      9.24476e+9 
           1715      8.97152e+9 
           1725       8.8673e+9 
           1735      8.83959e+9 
           1745      8.68029e+9 
           1755      8.63034e+9 
           1765      8.36497e+9 
           1775      8.21693e+9 
           1785      8.18992e+9 
           1795      8.12815e+9 
           1805      8.07568e+9 
           1815       7.7851e+9 
           1825      7.74616e+9 
           1835      7.62303e+9 
           1845        7.194e+9 
           1855       7.0919e+9 
           1865      7.13324e+9 
           1875      7.15755e+9 
           1885      6.71062e+9 
           1895      6.41789e+9 
           1905      6.64343e+9 
           1915      6.39805e+9 
           1925      6.22205e+9 
           1935      6.34928e+9 
           1945      6.37986e+9 
           1955      5.98426e+9 
           1967      6.14301e+9 
           1976      6.24908e+9 
           1984      5.96966e+9 
           1995      5.79705e+9 
           2005      5.85539e+9 
           2015      5.85875e+9 
           2025      5.86065e+9 
           2035      5.61961e+9 
           2045       5.5574e+9 
           2055      5.33118e+9 
           2065       5.2886e+9 
           2074      5.42199e+9 
           2078      5.22865e+9 
           2085      5.26597e+9 
           2095      5.12826e+9 
           2105      5.18253e+9 
           2115       5.1429e+9 
           2125      5.13991e+9 
           2135      5.05014e+9 
           2145      4.91948e+9 
           2155      4.92001e+9 
           2165      4.86542e+9 
           2175      4.79028e+9 
           2185      4.73138e+9 
           2195      4.69072e+9 
           2205      4.62681e+9 
           2215      4.56785e+9 
           2225      4.49591e+9 
           2235      4.42733e+9 
           2245      4.39329e+9 
           2255      4.32048e+9 
           2265      4.28094e+9 
           2275      4.22709e+9 
           2285      4.17833e+9 
           2295      4.04458e+9 
           2305       4.0653e+9 
           2315      4.00396e+9 
           2325      3.95517e+9 
           2335      3.89289e+9 
           2345        3.861e+9 
           2355      3.81714e+9 
           2365       3.7693e+9 
           2375      3.71732e+9 
           2385      3.66946e+9 
           2395      3.62423e+9 
           2405      3.58126e+9 
           2415      3.53209e+9 
           2425      3.49796e+9 
           2435      3.44762e+9 
           2445      3.40996e+9 
           2455      3.37299e+9 
           2465      3.33092e+9 
           2475      3.28887e+9 
           2485      3.24787e+9 
           2495      3.09794e+9 
           2505      3.16716e+9 
           2513      3.09954e+9 
           2518       3.1163e+9 
           2525       3.0942e+9 
           2535      3.05776e+9 
           2545      2.99986e+9 
           2555       2.9796e+9 
           2565      2.94868e+9 
           2575      2.91759e+9 
           2585      2.88294e+9 
           2595      2.84963e+9 
           2605      2.83262e+9 
           2615       2.7997e+9 
           2625      2.76699e+9 
           2635      2.73007e+9 
           2645      2.69929e+9 
           2655      2.66681e+9 
           2665      2.62997e+9 
           2675      2.60018e+9 
           2685      2.58513e+9 
           2695      2.53388e+9 
           2705      2.52254e+9 
           2715      2.49566e+9 
           2725      2.45191e+9 
           2735        2.439e+9 
           2745      2.40936e+9 
           2755       2.3848e+9 
           2765      2.34196e+9 
           2775      2.33499e+9 
           2785      2.30786e+9 
           2795      2.25945e+9 
           2805      2.24945e+9 
           2815      2.23355e+9 
           2825      2.19071e+9 
           2835      2.16446e+9 
           2845      2.16104e+9 
           2855      2.13609e+9 
           2865      2.11418e+9 
           2875      2.09143e+9 
           2885       2.0694e+9 
           2895      2.04659e+9 
           2910      2.01282e+9 
           2930       1.9706e+9 
           2950      1.91722e+9 
           2970      1.88884e+9 
           2990      1.84886e+9 
           3010      1.80845e+9 
           3030      1.77419e+9 
           3050      1.73812e+9 
           3070      1.70291e+9 
           3090       1.6635e+9 
           3110      1.63439e+9 
           3130      1.60238e+9 
           3150       1.5707e+9 
           3170      1.53846e+9 
           3190      1.49754e+9 
           3210      1.47842e+9 
           3230      1.44923e+9 
           3250      1.42117e+9 
           3270      1.39497e+9 
           3290      1.36626e+9 
           3310      1.34213e+9 
           3330      1.31641e+9 
           3350      1.28932e+9 
           3370      1.26713e+9 
           3390      1.24354e+9 
           3410      1.22038e+9 
           3430      1.19194e+9 
           3450      1.16584e+9 
           3470      1.14769e+9 
           3490      1.12678e+9 
           3510      1.11128e+9 
           3530      1.09241e+9 
           3550      1.07305e+9 
           3570      1.05828e+9 
           3590      1.03354e+9 
           3610       1.0164e+9 
           3630      9.97253e+8 
           3640      9.94567e+8 
           3650      9.75184e+8 
           3670      9.61955e+8 
           3690      9.36117e+8 
           3710      9.11545e+8 
           3730      8.89178e+8 
           3750      9.51381e+8 
           3770      9.51015e+8 
           3790      9.78771e+8 
           3810      1.00979e+9 
           3830      9.01856e+8 
           3850      1.01771e+9 
           3870      1.00724e+9 
           3890      8.60109e+8 
           3910      9.86124e+8 
           3930      9.64526e+8 
           3950      9.52611e+8 
           3970      7.97779e+8 
           3990      9.17775e+8 
           4010      9.04168e+8 
           4030      8.65038e+8 
           4050      8.79966e+8 
           4070       8.6074e+8 
           4090      8.18765e+8 
           4110      7.32847e+8 
           4130      8.12037e+8 
           4150      8.01692e+8 
           4170      7.93175e+8 
           4190      7.81651e+8 
           4210      7.69417e+8 
           4230      7.56663e+8 
           4250      7.43573e+8 
           4270      7.28854e+8 
           4290      7.19434e+8 
           4310       7.0612e+8 
           4330      6.62922e+8 
           4350      6.10392e+8 
           4370      6.72048e+8 
           4390      6.52353e+8 
           4410      6.52532e+8 
           4430      6.41259e+8 
           4450      6.33301e+8 
           4470       6.0538e+8 
           4490      6.13416e+8 
           4510      6.04487e+8 
           4530      5.95067e+8 
           4550       5.8548e+8 
           4570       5.7629e+8 
           4590      5.67666e+8 
           4610      5.59118e+8 
           4630       5.5066e+8 
           4650      5.39922e+8 
           4670      5.33926e+8 
           4690      5.25819e+8 
           4710       5.1238e+8 
           4730       5.1048e+8 
           4750      5.02501e+8 
           4770       4.9611e+8 
           4790      4.88758e+8 
           4810      4.81412e+8 
           4830      4.73235e+8 
           4850      4.49897e+8 
           4870      4.08023e+8 
           4890      4.52445e+8 
           4910      4.47454e+8 
           4930       4.3357e+8 
           4950      4.34686e+8 
           4970      4.28785e+8 
           4990      4.22646e+8 
           5010      4.11924e+8 
           5030      4.10784e+8 
           5050      4.02825e+8 
           5070       3.9936e+8 
           5090       3.9377e+8 
           5110      3.88299e+8 
           5130      3.82758e+8 
           5150      3.77489e+8 
           5170      3.72418e+8 
           5190      3.67343e+8 
           5210       3.6228e+8 
           5230       3.5738e+8 
           5250       3.5253e+8 
           5270      3.47757e+8 
           5290      3.43072e+8 
           5310      3.38449e+8 
           5330      3.33938e+8 
           5350      3.29458e+8 
           5370      3.25114e+8 
           5390      3.20787e+8 
           5410      3.16527e+8 
           5430      3.12386e+8 
           5450      3.08271e+8 
           5470      3.04245e+8 
           5490      3.00283e+8 
           5510      2.96394e+8 
           5530      2.92542e+8 
           5550      2.88786e+8 
           5570      2.85052e+8 
           5590      2.81413e+8 
           5610      2.77806e+8 
           5630      2.74279e+8 
           5650      2.70747e+8 
           5670      2.67223e+8 
           5690      2.63719e+8 
           5710      2.60627e+8 
           5730      2.57365e+8 
           5750      2.54074e+8 
           5770      2.51014e+8 
           5790      2.47878e+8 
           5810      2.44824e+8 
           5830      2.41762e+8 
           5850      2.38813e+8 
           5870      2.30136e+8 
           5890      2.32768e+8 
           5910      2.30138e+8 
           5930      2.27292e+8 
           5950      2.24532e+8 
           5970      2.21888e+8 
           5990      2.19181e+8 
           6010      2.16567e+8 
           6030      2.13962e+8 
           6050      2.11417e+8 
           6070      2.08912e+8 
           6090      2.06435e+8 
           6110      2.03986e+8 
           6130      2.01584e+8 
           6150      1.99169e+8 
           6170      1.96861e+8 
           6190      1.94568e+8 
           6210      1.92301e+8 
           6230      1.90069e+8 
           6250      1.87861e+8 
           6270      1.85696e+8 
           6290      1.83556e+8 
           6310      1.81438e+8 
           6330      1.79363e+8 
           6350      1.77291e+8 
           6370      1.75288e+8 
           6390      1.73298e+8 
           6410      1.71338e+8 
           6430      1.69408e+8 
           6450       1.6749e+8 
           6470      1.65583e+8 
           6490      1.63732e+8 
           6510      1.61927e+8 
           6530      1.59903e+8 
           6550      1.55153e+8 
           6570      1.40027e+8 
           6590      1.53917e+8 
           6610      1.53133e+8 
           6630      1.51474e+8 
           6650      1.49891e+8 
           6670       1.4708e+8 
           6690      1.45503e+8 
           6710      1.45055e+8 
           6730      1.43462e+8 
           6750      1.41936e+8 
           6770      1.40408e+8 
           6790      1.38838e+8 
           6810      1.37398e+8 
           6830      1.35933e+8 
           6850       1.3449e+8 
           6870      1.33061e+8 
           6890      1.31639e+8 
           6910      1.30247e+8 
           6930      1.28877e+8 
           6950      1.27528e+8 
           6970      1.26192e+8 
           6990      1.24862e+8 
           7010      1.23568e+8 
           7030      1.22279e+8 
           7050       1.2101e+8 
           7070      1.17982e+8 
           7090      1.18516e+8 
           7110      1.17299e+8 
           7130      1.16094e+8 
           7150        1.149e+8 
           7170       1.1371e+8 
           7190      1.12568e+8 
           7210      1.11423e+8 
           7230      1.09993e+8 
           7250      1.09172e+8 
           7270      1.08073e+8 
           7290      1.06169e+8 
           7310      1.05899e+8 
           7330      1.04853e+8 
           7350      1.03808e+8 
           7370      1.02774e+8 
           7390       1.0175e+8 
           7410      1.00741e+8 
           7430      9.97425e+7 
           7450      9.87733e+7 
           7470       9.7786e+7 
           7490      9.68414e+7 
           7510      9.58521e+7 
           7530      9.49516e+7 
           7550      9.40262e+7 
           7570      9.31093e+7 
           7590      9.22073e+7 
           7610      9.13134e+7 
           7630      9.04341e+7 
           7650      8.95628e+7 
           7670      8.87057e+7 
           7690      8.78499e+7 
           7710      8.70081e+7 
           7730      8.61802e+7 
           7750      8.53533e+7 
           7770      8.45338e+7 
           7790      8.37527e+7 
           7810      8.28981e+7 
           7830      8.21802e+7 
           7850      8.14808e+7 
           7870      8.07144e+7 
           7890      7.99124e+7 
           7910      7.92197e+7 
           7930      7.84372e+7 
           7950      7.75782e+7 
           7970      7.68097e+7 
           7990      7.61247e+7 
           8010      7.54104e+7 
           8030      7.47372e+7 
           8050      7.40989e+7 
           8070      7.34602e+7 
           8090      7.26484e+7 
           8110      7.20443e+7 
           8130      7.14965e+7 
           8150      7.07093e+7 
           8170      7.02224e+7 
           8190      6.94867e+7 
           8210      6.86288e+7 
           8230      6.82122e+7 
           8250      6.76217e+7 
           8270      6.66671e+7 
           8290      6.63348e+7 
           8310      6.57595e+7 
           8330      6.51618e+7 
           8350      6.42827e+7 
           8370      6.38683e+7 
           8390      6.33822e+7 
           8410      6.27935e+7 
           8430      6.21566e+7 
           8450      6.12823e+7 
           8470       6.0841e+7 
           8490      6.05808e+7 
           8510      5.95161e+7 
           8530      5.97188e+7 
           8550      5.76876e+7 
           8570      5.94961e+7 
