# Kurucz ODFNEW /NOVER (2003)
# teff = 28000 K (value for the effective temperature for the model. Temperatures are given in K)
# logg = 4 log(cm/s2) (value for Log(G) for the model.)
# meta = 0.2  (value for the Metallicity for the model.)
# lh = 1.25  (l/Hp where l is the  mixing length of the convective element and Hp is the pressure scale height)
# vtur = 2 km/s (Microturbulence velocity)
# alpha = 0.4  (Alpha)
#
# column 1: WAVELENGTH (ANGSTROM), Wavelength in Angstrom
# column 2: FLUX (ERG/CM2/S/A), Flux in erg/cm2/s/A
          147.2     3.58181e-11 
            151     1.25597e-10 
          155.2     4.69945e-10 
          158.8      1.38307e-9 
            162      3.48106e-9 
            166      1.05359e-8 
          170.3      3.26822e-8 
          173.4      7.21432e-8 
          176.8      1.66332e-7 
          180.2      3.72332e-7 
          181.7      5.25894e-7 
          186.1      1.41105e-6 
            191      4.03806e-6 
          193.9      7.34507e-6 
          198.4      1.79997e-5 
          201.8      3.45644e-5 
            205      6.26917e-5 
          210.5     0.000167874 
          216.2     0.000442864 
          219.8     0.000797875 
            223      0.00132597 
          226.8      0.00246479 
            230         0.10589 
            234        0.227981 
            240        0.476321 
          246.5         1.03281 
          252.4         2.03037 
          256.8         3.17356 
            260         4.88857 
            264         7.16151 
          268.5         11.6067 
          273.5         18.8611 
          278.5         29.4429 
            284         56.9186 
            290          94.254 
            296         152.535 
            301         222.908 
            308         425.838 
            318         937.539 
            328         1752.37 
            338         3445.98 
            348         6251.76 
            357         35199.1 
            366         88990.8 
            375          125266 
            385          210846 
            395          621890 
            405          859639 
            414      1.44227e+6 
            422      1.80834e+6 
            430      2.41808e+6 
            441      3.33801e+6 
            451      4.17882e+6 
            460         5.01e+6 
            470      6.70166e+6 
            480      8.55179e+6 
            490      1.08103e+7 
            500      1.34471e+7 
            506      3.80458e+7 
            512      3.08892e+8 
            520      3.04894e+8 
            530      3.09591e+8 
            540      3.01267e+8 
            550      4.42922e+8 
            560      5.43242e+8 
            570      5.91647e+8 
            580      5.31621e+8 
            590      6.58135e+8 
            600      5.98497e+8 
            610      7.53965e+8 
            620      8.40007e+8 
            630      8.47057e+8 
            640      7.45549e+8 
            650      6.26842e+8 
            658       7.4804e+8 
            665      9.22347e+8 
            675       9.8146e+8 
            685      8.84849e+8 
            695      1.24767e+9 
            705      1.06328e+9 
            716      1.38028e+9 
            726       1.3308e+9 
            735      1.41019e+9 
            745      1.52144e+9 
            755      1.55695e+9 
            765      1.66335e+9 
            775      1.76308e+9 
            785      1.85985e+9 
            795      1.85937e+9 
            805      1.86026e+9 
            815       1.8614e+9 
            825      2.03087e+9 
            835      1.53696e+9 
            845      1.98768e+9 
            855      1.98387e+9 
            865       2.0873e+9 
            875      2.16647e+9 
            885      2.30085e+9 
            895      2.36772e+9 
            905      2.30235e+9 
            915      2.98522e+9 
            925     1.63742e+10 
            935     3.04163e+10 
            945      4.4565e+10 
            955      4.9717e+10 
            965     5.51446e+10 
            975     1.28166e+10 
            985     4.09802e+10 
            995     3.97649e+10 
           1005     4.47215e+10 
           1015     4.77684e+10 
           1025     3.34878e+10 
           1035     4.18676e+10 
           1045     5.59216e+10 
           1055     5.14209e+10 
           1065     3.99241e+10 
           1075      4.5245e+10 
           1085     4.20563e+10 
           1095     4.59701e+10 
           1105     4.17171e+10 
           1115     3.97843e+10 
           1125     2.75758e+10 
           1135     4.03597e+10 
           1145     3.74308e+10 
           1155     3.67911e+10 
           1165     3.67923e+10 
           1175     2.04736e+10 
           1185     3.35327e+10 
           1195     3.17233e+10 
           1205     2.38552e+10 
           1215     2.18141e+10 
           1225     3.01358e+10 
           1235     3.32683e+10 
           1245     3.17128e+10 
           1255     3.15323e+10 
           1265     3.23848e+10 
           1275     3.36215e+10 
           1285     3.33922e+10 
           1295      2.4614e+10 
           1305     2.68396e+10 
           1315     3.27335e+10 
           1325     3.07349e+10 
           1335     2.99443e+10 
           1345     2.95215e+10 
           1355     2.94239e+10 
           1365     2.71847e+10 
           1375     2.59299e+10 
           1385     2.41153e+10 
           1395     1.35005e+10 
           1405     1.62081e+10 
           1415     2.23547e+10 
           1425     2.12777e+10 
           1435     2.26909e+10 
           1442     2.30781e+10 
           1447     2.27876e+10 
           1455     2.16604e+10 
           1465     2.01457e+10 
           1475      2.0812e+10 
           1485      2.0519e+10 
           1495     1.99218e+10 
           1505      1.8131e+10 
           1512     1.67639e+10 
           1517     1.72216e+10 
           1525     1.73184e+10 
           1535     1.44037e+10 
           1545     1.32018e+10 
           1555     1.29294e+10 
           1565     1.44542e+10 
           1575     1.55331e+10 
           1585     1.54907e+10 
           1595     1.54407e+10 
           1605      1.5325e+10 
           1615     1.46678e+10 
           1625     1.46747e+10 
           1635     1.54104e+10 
           1645      1.5541e+10 
           1655     1.52616e+10 
           1665     1.52596e+10 
           1672     1.42251e+10 
           1677     1.65302e+10 
           1685     1.56584e+10 
           1695     1.47858e+10 
           1705     1.45196e+10 
           1715     1.36847e+10 
           1725     1.32138e+10 
           1735     1.37515e+10 
           1745     1.36067e+10 
           1755     1.35255e+10 
           1765     1.34585e+10 
           1775     1.25241e+10 
           1785     1.28015e+10 
           1795     1.29212e+10 
           1805     1.30039e+10 
           1815     1.18603e+10 
           1825     1.21549e+10 
           1835     1.18583e+10 
           1845     1.07882e+10 
           1855     1.11584e+10 
           1865     1.12762e+10 
           1875     1.13449e+10 
           1885     1.02713e+10 
           1895      9.64058e+9 
           1905     1.03548e+10 
           1915       9.7918e+9 
           1925      9.17631e+9 
           1935      9.86018e+9 
           1945     1.01148e+10 
           1955      8.95885e+9 
           1967       9.7257e+9 
           1976     1.02292e+10 
           1984      9.46634e+9 
           1995      9.33109e+9 
           2005      9.62528e+9 
           2015      9.56431e+9 
           2025      9.69701e+9 
           2035      8.91338e+9 
           2045      9.01551e+9 
           2055      8.17756e+9 
           2065      8.08742e+9 
           2074       8.4813e+9 
           2078      7.89284e+9 
           2085      8.35504e+9 
           2095      8.10835e+9 
           2105      8.44648e+9 
           2115      8.49767e+9 
           2125       8.4913e+9 
           2135      8.34582e+9 
           2145      7.97031e+9 
           2155      8.25247e+9 
           2165      8.10086e+9 
           2175      8.03451e+9 
           2185      7.80371e+9 
           2195      7.89736e+9 
           2205      7.85843e+9 
           2215      7.69012e+9 
           2225      7.52032e+9 
           2235      7.37927e+9 
           2245      7.40569e+9 
           2255      7.17605e+9 
           2265      7.22341e+9 
           2275      7.11885e+9 
           2285      6.99037e+9 
           2295      6.13443e+9 
           2305      6.73891e+9 
           2315      6.59273e+9 
           2325      6.54792e+9 
           2335      6.39121e+9 
           2345      6.45116e+9 
           2355      6.35492e+9 
           2365       6.2895e+9 
           2375      6.12678e+9 
           2385      6.03843e+9 
           2395      5.96032e+9 
           2405      5.90871e+9 
           2415       5.7969e+9 
           2425      5.77757e+9 
           2435      5.62957e+9 
           2445      5.60951e+9 
           2455      5.57241e+9 
           2465      5.48922e+9 
           2475      5.37706e+9 
           2485      5.14877e+9 
           2495      3.62718e+9 
           2505      4.83875e+9 
           2513      4.84384e+9 
           2518      4.96016e+9 
           2525      5.03409e+9 
           2535      5.02054e+9 
           2545      4.78561e+9 
           2555      4.84385e+9 
           2565      4.75119e+9 
           2575      4.76737e+9 
           2585      4.70828e+9 
           2595      4.65634e+9 
           2605      4.62127e+9 
           2615      4.53118e+9 
           2625      4.50159e+9 
           2635      4.44654e+9 
           2645      4.37987e+9 
           2655      4.33678e+9 
           2665      4.16251e+9 
           2675      4.15245e+9 
           2685      4.16595e+9 
           2695      4.01278e+9 
           2705      3.93101e+9 
           2715      3.93185e+9 
           2725      3.91649e+9 
           2735      3.86841e+9 
           2745      3.82193e+9 
           2755      3.79403e+9 
           2765      3.73387e+9 
           2775      3.75848e+9 
           2785       3.6818e+9 
           2795      3.53113e+9 
           2805      3.57801e+9 
           2815      3.58396e+9 
           2825      3.53385e+9 
           2835        3.417e+9 
           2845      3.45199e+9 
           2855        3.376e+9 
           2865      3.36192e+9 
           2875      3.31451e+9 
           2885      3.27958e+9 
           2895      3.22846e+9 
           2910      3.13641e+9 
           2930      3.12094e+9 
           2950      3.02678e+9 
           2970      2.97462e+9 
           2990       2.8921e+9 
           3010      2.76369e+9 
           3030      2.73927e+9 
           3050      2.71245e+9 
           3070      2.68242e+9 
           3090      2.55217e+9 
           3110      2.56089e+9 
           3130      2.47889e+9 
           3150      2.44619e+9 
           3170      2.38014e+9 
           3190      2.33788e+9 
           3210      2.29856e+9 
           3230      2.23292e+9 
           3250      2.20738e+9 
           3270       2.1467e+9 
           3290      2.10701e+9 
           3310      2.06422e+9 
           3330      2.01355e+9 
           3350      1.97863e+9 
           3370      1.93263e+9 
           3390       1.9115e+9 
           3410      1.87323e+9 
           3430      1.84008e+9 
           3450      1.79355e+9 
           3470      1.75967e+9 
           3490      1.72224e+9 
           3510      1.69322e+9 
           3530      1.67418e+9 
           3550      1.63749e+9 
           3570      1.60915e+9 
           3590      1.56385e+9 
           3610      1.54102e+9 
           3630      1.51168e+9 
           3640      1.50634e+9 
           3650      1.47926e+9 
           3670      1.46206e+9 
           3690      1.43171e+9 
           3710      1.37164e+9 
           3730      1.32521e+9 
           3750      1.36121e+9 
           3770       1.3366e+9 
           3790      1.38886e+9 
           3810      1.42653e+9 
           3830      1.27145e+9 
           3850      1.41969e+9 
           3870      1.37837e+9 
           3890      1.20405e+9 
           3910      1.39215e+9 
           3930      1.34097e+9 
           3950      1.31409e+9 
           3970      1.11282e+9 
           3990      1.28499e+9 
           4010      1.27234e+9 
           4030      1.21574e+9 
           4050      1.22609e+9 
           4070      1.15853e+9 
           4090      1.09282e+9 
           4110       9.9987e+8 
           4130      1.11429e+9 
           4150      1.10546e+9 
           4170       1.1058e+9 
           4190      1.08915e+9 
           4210      1.07879e+9 
           4230      1.05356e+9 
           4250      1.01838e+9 
           4270      9.91573e+8 
           4290      9.70067e+8 
           4310      9.39385e+8 
           4330      8.87285e+8 
           4350       8.2326e+8 
           4370      9.00076e+8 
           4390      8.99263e+8 
           4410      8.86689e+8 
           4430      8.83269e+8 
           4450      8.64142e+8 
           4470      8.35046e+8 
           4490      8.41956e+8 
           4510      8.32561e+8 
           4530      8.23187e+8 
           4550       8.1058e+8 
           4570      7.96755e+8 
           4590      7.81261e+8 
           4610      7.61007e+8 
           4630      7.50123e+8 
           4650      7.17567e+8 
           4670      7.26843e+8 
           4690      7.20794e+8 
           4710      6.92405e+8 
           4730      7.02828e+8 
           4750      6.89592e+8 
           4770      6.89964e+8 
           4790      6.77795e+8 
           4810      6.62693e+8 
           4830      6.48819e+8 
           4850      6.16941e+8 
           4870      5.58782e+8 
           4890      6.22014e+8 
           4910      6.14847e+8 
           4930      5.96197e+8 
           4950      5.92681e+8 
           4970       5.9274e+8 
           4990      5.82975e+8 
           5010      5.58083e+8 
           5030      5.62707e+8 
           5050      5.52216e+8 
           5070      5.50169e+8 
           5090      5.39805e+8 
           5110      5.31072e+8 
           5130      5.21142e+8 
           5150      5.15142e+8 
           5170      5.08909e+8 
           5190       5.0305e+8 
           5210      4.95101e+8 
           5230      4.89297e+8 
           5250      4.82323e+8 
           5270      4.74098e+8 
           5290      4.69281e+8 
           5310      4.62292e+8 
           5330      4.56376e+8 
           5350      4.49575e+8 
           5370      4.44063e+8 
           5390      4.36897e+8 
           5410      4.31356e+8 
           5430      4.25909e+8 
           5450      4.19479e+8 
           5470      4.13949e+8 
           5490      4.08639e+8 
           5510      4.03953e+8 
           5530      3.97648e+8 
           5550      3.93393e+8 
           5570      3.87878e+8 
           5590      3.82708e+8 
           5610      3.77686e+8 
           5630      3.73153e+8 
           5650      3.66881e+8 
           5670      3.60595e+8 
           5690      3.53759e+8 
           5710      3.51296e+8 
           5730      3.47942e+8 
           5750      3.41788e+8 
           5770      3.39887e+8 
           5790      3.35116e+8 
           5810      3.30882e+8 
           5830      3.25745e+8 
           5850      3.22453e+8 
           5870      3.10715e+8 
           5890      3.11975e+8 
           5910      3.09295e+8 
           5930      3.05295e+8 
           5950      3.01341e+8 
           5970      2.99685e+8 
           5990      2.94348e+8 
           6010      2.91839e+8 
           6030      2.87544e+8 
           6050       2.8436e+8 
           6070      2.81385e+8 
           6090      2.78036e+8 
           6110      2.74574e+8 
           6130      2.71462e+8 
           6150      2.66711e+8 
           6170      2.63867e+8 
           6190      2.61496e+8 
           6210      2.58661e+8 
           6230      2.55673e+8 
           6250      2.51966e+8 
           6270       2.4924e+8 
           6290      2.46544e+8 
           6310      2.43176e+8 
           6330      2.40843e+8 
           6350      2.37272e+8 
           6370      2.35256e+8 
           6390      2.32374e+8 
           6410      2.29633e+8 
           6430      2.27241e+8 
           6450      2.24512e+8 
           6470      2.20786e+8 
           6490      2.18461e+8 
           6510      2.16001e+8 
           6530      2.12772e+8 
           6550      2.06697e+8 
           6570      1.84974e+8 
           6590      2.04612e+8 
           6610      2.04229e+8 
           6630      2.02279e+8 
           6650      1.99642e+8 
           6670      1.95982e+8 
           6690      1.93911e+8 
           6710      1.93351e+8 
           6730      1.90524e+8 
           6750      1.89347e+8 
           6770      1.87301e+8 
           6790      1.83805e+8 
           6810      1.82889e+8 
           6830      1.80568e+8 
           6850      1.79057e+8 
           6870      1.77035e+8 
           6890      1.74699e+8 
           6910      1.72222e+8 
           6930      1.71472e+8 
           6950      1.69683e+8 
           6970      1.67873e+8 
           6990      1.65989e+8 
           7010      1.64161e+8 
           7030      1.62322e+8 
           7050      1.60682e+8 
           7070      1.56609e+8 
           7090      1.57308e+8 
           7110      1.54523e+8 
           7130      1.53058e+8 
           7150      1.52357e+8 
           7170       1.5082e+8 
           7190      1.49319e+8 
           7210      1.47752e+8 
           7230      1.44248e+8 
           7250       1.4417e+8 
           7270      1.43185e+8 
           7290        1.406e+8 
           7310      1.40198e+8 
           7330      1.38726e+8 
           7350      1.37337e+8 
           7370      1.35997e+8 
           7390      1.34613e+8 
           7410      1.33242e+8 
           7430      1.31837e+8 
           7450      1.30499e+8 
           7470      1.28072e+8 
           7490      1.27678e+8 
           7510      1.26565e+8 
           7530      1.25123e+8 
           7550      1.24117e+8 
           7570      1.22897e+8 
           7590      1.21596e+8 
           7610       1.2006e+8 
           7630      1.19205e+8 
           7650      1.17997e+8 
           7670      1.16927e+8 
           7690      1.15702e+8 
           7710      1.14583e+8 
           7730      1.13291e+8 
           7750      1.12406e+8 
           7770       1.1096e+8 
           7790      1.10255e+8 
           7810      1.09147e+8 
           7830      1.08142e+8 
           7850      1.07115e+8 
           7870      1.05726e+8 
           7890      1.04525e+8 
           7910      1.03924e+8 
           7930      1.02886e+8 
           7950      1.01928e+8 
           7970      1.00918e+8 
           7990      9.99535e+7 
           8010      9.90264e+7 
           8030      9.80721e+7 
           8050      9.72541e+7 
           8070      9.63677e+7 
           8090       9.5368e+7 
           8110      9.36724e+7 
           8130       9.3708e+7 
           8150      9.27552e+7 
           8170       9.2042e+7 
           8190      9.03743e+7 
           8210      8.97389e+7 
           8230      8.87804e+7 
           8250      8.85553e+7 
           8270      8.65301e+7 
           8290      8.67489e+7 
           8310        8.613e+7 
           8330       8.5364e+7 
           8350      8.41667e+7 
           8370       8.3523e+7 
           8390      8.30396e+7 
           8410      8.21658e+7 
           8430      8.15007e+7 
           8450      8.01551e+7 
           8470      7.99503e+7 
           8490      7.91402e+7 
           8510      7.81601e+7 
           8530      7.78509e+7 
           8550      7.62142e+7 
           8570      7.71618e+7 
