# Kurucz ODFNEW /NOVER (2003)
# teff = 21000 K (value for the effective temperature for the model. Temperatures are given in K)
# logg = 3.5 log(cm/s2) (value for Log(G) for the model.)
# meta = -1  (value for the Metallicity for the model.)
# lh = 1.25  (l/Hp where l is the  mixing length of the convective element and Hp is the pressure scale height)
# vtur = 2 km/s (Microturbulence velocity)
# alpha = 0.4  (Alpha)
#
# column 1: WAVELENGTH (ANGSTROM), Wavelength in Angstrom
# column 2: FLUX (ERG/CM2/S/A), Flux in erg/cm2/s/A
          147.2     7.14327e-19 
            151      4.1716e-18 
          155.2     2.67309e-17 
          158.8     1.22312e-16 
            162     4.48791e-16 
            166     2.13438e-15 
          170.3     1.05638e-14 
          173.4     3.19713e-14 
          176.8     1.03251e-13 
          180.2     3.19753e-13 
          181.7     5.19709e-13 
          186.1     2.07057e-12 
            191     8.98085e-12 
          193.9     2.06846e-11 
          198.4     7.20486e-11 
          201.8     1.78451e-10 
            205     4.07782e-10 
          210.5      1.59142e-9 
          216.2      6.07515e-9 
          219.8      1.36571e-8 
            223      2.74413e-8 
          226.8      6.12287e-8 
            230      8.44472e-7 
            234      2.11571e-6 
            240      6.06116e-6 
          246.5      1.78493e-5 
          252.4      4.58066e-5 
          256.8      8.68098e-5 
            260      0.00014294 
            264     0.000252904 
          268.5     0.000470163 
          273.5     0.000912534 
          278.5      0.00173555 
            284      0.00343609 
            290      0.00698137 
            296       0.0137524 
            301          0.0237 
            308       0.0483262 
            318        0.133296 
            328        0.333434 
            338        0.802072 
            348         1.81549 
            357          3.7156 
            366         7.24092 
            375         13.4117 
            385         25.9269 
            395         48.1315 
            405          86.646 
            414         143.866 
            422         219.521 
            430         330.255 
            441          567.59 
            451         906.628 
            460          1349.3 
            470         2065.62 
            480         3093.96 
            490         4562.33 
            500         6613.41 
            506           60770 
            512          210853 
            520          266817 
            530          379251 
            540          424350 
            550          629468 
            560          768151 
            570          972992 
            580          987056 
            590      1.34685e+6 
            600      1.69664e+6 
            610      2.07905e+6 
            620      2.42248e+6 
            630      2.86795e+6 
            640      3.20799e+6 
            650      3.58575e+6 
            658      4.36059e+6 
            665      4.77061e+6 
            675      5.29311e+6 
            685      5.99202e+6 
            695      7.13144e+6 
            705      7.92229e+6 
            716      9.13796e+6 
            726      1.00823e+7 
            735      1.11598e+7 
            745      1.26962e+7 
            755      1.41386e+7 
            765      1.56421e+7 
            775      1.74006e+7 
            785      1.92166e+7 
            795      2.08397e+7 
            805      2.27802e+7 
            815      2.46022e+7 
            825      2.70719e+7 
            835       2.8245e+7 
            845      3.11931e+7 
            855      3.35922e+7 
            865      3.64633e+7 
            875      3.95435e+7 
            885      4.28886e+7 
            895        4.592e+7 
            905      4.78786e+7 
            915      8.29302e+7 
            925      7.22968e+8 
            935      2.51491e+9 
            945      6.66198e+9 
            955      8.97723e+9 
            965     1.11972e+10 
            975      2.90981e+9 
            985     1.17776e+10 
            995     1.11041e+10 
           1005     1.20274e+10 
           1015      1.1445e+10 
           1025      4.28786e+9 
           1035      9.03785e+9 
           1045     1.32697e+10 
           1055     1.25699e+10 
           1065     1.08808e+10 
           1075      1.2217e+10 
           1085     1.11685e+10 
           1095     1.22882e+10 
           1105     1.10184e+10 
           1115     1.07998e+10 
           1125      9.92854e+9 
           1135     1.14637e+10 
           1145     1.04663e+10 
           1155     1.09467e+10 
           1165     1.10643e+10 
           1175      8.71597e+9 
           1185     1.07992e+10 
           1195      9.30463e+9 
           1205        5.964e+9 
           1215      3.16981e+9 
           1225      8.20075e+9 
           1235      9.73177e+9 
           1245      9.88789e+9 
           1255      9.58241e+9 
           1265      9.36088e+9 
           1275      9.64497e+9 
           1285      9.43041e+9 
           1295      7.14405e+9 
           1305      7.28893e+9 
           1315      9.04708e+9 
           1325      8.62908e+9 
           1335      8.20456e+9 
           1345      8.38727e+9 
           1355      8.39894e+9 
           1365      7.92957e+9 
           1375      7.81405e+9 
           1385      7.82182e+9 
           1395      6.68522e+9 
           1405      6.99441e+9 
           1415      7.30382e+9 
           1425      7.20389e+9 
           1435      7.26099e+9 
           1442      7.35554e+9 
           1447      7.22562e+9 
           1455       7.0793e+9 
           1465      6.82448e+9 
           1475      6.74386e+9 
           1485      6.58979e+9 
           1495      6.49586e+9 
           1505      6.14719e+9 
           1512      5.79148e+9 
           1517      5.93115e+9 
           1525      5.95899e+9 
           1535       5.4902e+9 
           1545      5.58617e+9 
           1555      5.32152e+9 
           1565      5.47707e+9 
           1575      5.60441e+9 
           1585      5.50782e+9 
           1595      5.51687e+9 
           1605      5.36966e+9 
           1615      5.28863e+9 
           1625      5.22588e+9 
           1635       5.3121e+9 
           1645      5.22335e+9 
           1655      5.11076e+9 
           1665      5.16779e+9 
           1672      5.01666e+9 
           1677      5.14982e+9 
           1685      5.07569e+9 
           1695      4.90583e+9 
           1705      4.73986e+9 
           1715      4.55858e+9 
           1725      4.51613e+9 
           1735      4.55859e+9 
           1745      4.47061e+9 
           1755      4.49797e+9 
           1765      4.29876e+9 
           1775       4.2391e+9 
           1785      4.21905e+9 
           1795      4.27717e+9 
           1805      4.24829e+9 
           1815      4.00479e+9 
           1825      4.07142e+9 
           1835      3.97279e+9 
           1845      3.70872e+9 
           1855      3.65614e+9 
           1865      3.69264e+9 
           1875      3.78002e+9 
           1885      3.49065e+9 
           1895       3.2934e+9 
           1905      3.48221e+9 
           1915      3.33704e+9 
           1925      3.23404e+9 
           1935       3.3317e+9 
           1945      3.36077e+9 
           1955      3.13348e+9 
           1967      3.28319e+9 
           1976      3.37771e+9 
           1984        3.184e+9 
           1995      3.10648e+9 
           2005      3.15354e+9 
           2015      3.13856e+9 
           2025      3.18977e+9 
           2035      3.00794e+9 
           2045      3.00382e+9 
           2055       2.9139e+9 
           2065      2.94318e+9 
           2074      3.01149e+9 
           2078      2.86162e+9 
           2085      2.90353e+9 
           2095      2.78636e+9 
           2105      2.83128e+9 
           2115      2.81139e+9 
           2125      2.84156e+9 
           2135        2.785e+9 
           2145      2.68319e+9 
           2155       2.7333e+9 
           2165      2.70353e+9 
           2175      2.66383e+9 
           2185      2.62341e+9 
           2195       2.6188e+9 
           2205      2.58285e+9 
           2215      2.54968e+9 
           2225      2.49622e+9 
           2235      2.47484e+9 
           2245      2.46831e+9 
           2255      2.41343e+9 
           2265      2.41412e+9 
           2275      2.38275e+9 
           2285      2.37031e+9 
           2295      2.29148e+9 
           2305      2.30504e+9 
           2315      2.25859e+9 
           2325       2.2367e+9 
           2335      2.17571e+9 
           2345      2.15514e+9 
           2355      2.16241e+9 
           2365      2.12315e+9 
           2375      2.10137e+9 
           2385      2.07186e+9 
           2395      2.05979e+9 
           2405      2.03006e+9 
           2415      1.99984e+9 
           2425       2.0044e+9 
           2435      1.96351e+9 
           2445      1.95101e+9 
           2455      1.94158e+9 
           2465      1.90993e+9 
           2475      1.89047e+9 
           2485      1.87004e+9 
           2495      1.79383e+9 
           2505      1.82787e+9 
           2513      1.77294e+9 
           2518      1.79716e+9 
           2525      1.77752e+9 
           2535      1.75308e+9 
           2545      1.71363e+9 
           2555       1.7284e+9 
           2565      1.69829e+9 
           2575      1.70007e+9 
           2585      1.68181e+9 
           2595      1.66434e+9 
           2605      1.65592e+9 
           2615      1.63892e+9 
           2625      1.62258e+9 
           2635      1.60139e+9 
           2645      1.59867e+9 
           2655      1.58189e+9 
           2665      1.55392e+9 
           2675      1.54506e+9 
           2685      1.53822e+9 
           2695      1.50525e+9 
           2705      1.50187e+9 
           2715      1.48576e+9 
           2725       1.4589e+9 
           2735      1.45787e+9 
           2745      1.42082e+9 
           2755       1.4135e+9 
           2765      1.39866e+9 
           2775      1.40156e+9 
           2785      1.38384e+9 
           2795       1.3362e+9 
           2805      1.34728e+9 
           2815       1.3458e+9 
           2825      1.32076e+9 
           2835      1.29515e+9 
           2845      1.30226e+9 
           2855      1.28987e+9 
           2865      1.28019e+9 
           2875      1.26647e+9 
           2885      1.25495e+9 
           2895      1.24198e+9 
           2910      1.22262e+9 
           2930      1.19563e+9 
           2950      1.16774e+9 
           2970      1.15369e+9 
           2990      1.12879e+9 
           3010      1.10764e+9 
           3030      1.08982e+9 
           3050      1.06926e+9 
           3070      1.04946e+9 
           3090      1.02514e+9 
           3110      1.00982e+9 
           3130      9.92073e+8 
           3150       9.7382e+8 
           3170      9.55198e+8 
           3190      9.30523e+8 
           3210      9.20975e+8 
           3230      9.03972e+8 
           3250      8.88065e+8 
           3270      8.73148e+8 
           3290      8.56369e+8 
           3310      8.42751e+8 
           3330        8.278e+8 
           3350      8.11802e+8 
           3370       7.9901e+8 
           3390      7.85349e+8 
           3410      7.71887e+8 
           3430      7.54938e+8 
           3450      7.39374e+8 
           3470      7.28904e+8 
           3490       7.1677e+8 
           3510      7.08319e+8 
           3530      6.97383e+8 
           3550       6.8599e+8 
           3570      6.77409e+8 
           3590      6.62282e+8 
           3610      6.51929e+8 
           3630      6.40962e+8 
           3640      6.39578e+8 
           3650      6.28415e+8 
           3670      6.20829e+8 
           3690      6.02774e+8 
           3710      5.90982e+8 
           3730      5.82306e+8 
           3750      6.43112e+8 
           3770      6.49533e+8 
           3790      6.79047e+8 
           3810      7.07128e+8 
           3830      6.21047e+8 
           3850       7.2235e+8 
           3870       7.1938e+8 
           3890      5.92152e+8 
           3910      7.09542e+8 
           3930      6.90386e+8 
           3950      6.86286e+8 
           3970      5.50409e+8 
           3990       6.6055e+8 
           4010      6.53532e+8 
           4030      6.20873e+8 
           4050      6.38229e+8 
           4070      6.21829e+8 
           4090      5.84526e+8 
           4110       5.1413e+8 
           4130      5.85274e+8 
           4150      5.80958e+8 
           4170      5.75919e+8 
           4190      5.68953e+8 
           4210      5.61031e+8 
           4230       5.5157e+8 
           4250      5.41781e+8 
           4270        5.293e+8 
           4290      5.24233e+8 
           4310      5.13822e+8 
           4330      4.74265e+8 
           4350      4.32545e+8 
           4370      4.89492e+8 
           4390      4.74526e+8 
           4410      4.77127e+8 
           4430      4.68759e+8 
           4450      4.63832e+8 
           4470       4.4061e+8 
           4490      4.47775e+8 
           4510      4.43627e+8 
           4530      4.36433e+8 
           4550      4.29565e+8 
           4570      4.23018e+8 
           4590      4.17068e+8 
           4610      4.10798e+8 
           4630      4.04762e+8 
           4650      3.96897e+8 
           4670      3.92779e+8 
           4690      3.87877e+8 
           4710      3.76099e+8 
           4730      3.75165e+8 
           4750      3.69324e+8 
           4770      3.66151e+8 
           4790      3.60735e+8 
           4810      3.54794e+8 
           4830      3.48423e+8 
           4850      3.26961e+8 
           4870      2.92734e+8 
           4890      3.33702e+8 
           4910      3.30567e+8 
           4930      3.19442e+8 
           4950      3.21663e+8 
           4970      3.17661e+8 
           4990      3.13123e+8 
           5010      3.04129e+8 
           5030       3.0441e+8 
           5050      2.97247e+8 
           5070      2.96358e+8 
           5090      2.92259e+8 
           5110      2.88187e+8 
           5130      2.84055e+8 
           5150      2.80262e+8 
           5170      2.76843e+8 
           5190      2.73147e+8 
           5210      2.68681e+8 
           5230      2.65983e+8 
           5250      2.62457e+8 
           5270      2.58935e+8 
           5290      2.55622e+8 
           5310      2.52243e+8 
           5330      2.48842e+8 
           5350      2.45366e+8 
           5370      2.42562e+8 
           5390      2.39391e+8 
           5410      2.36298e+8 
           5430      2.32938e+8 
           5450      2.30103e+8 
           5470      2.27177e+8 
           5490      2.24449e+8 
           5510      2.21582e+8 
           5530       2.1875e+8 
           5550      2.16064e+8 
           5570      2.13288e+8 
           5590      2.10692e+8 
           5610      2.07912e+8 
           5630      2.05498e+8 
           5650      2.02382e+8 
           5670      1.99949e+8 
           5690       1.9758e+8 
           5710      1.95447e+8 
           5730      1.93098e+8 
           5750      1.90618e+8 
           5770       1.8845e+8 
           5790      1.86173e+8 
           5810        1.839e+8 
           5830      1.81654e+8 
           5850        1.795e+8 
           5870      1.72616e+8 
           5890      1.74801e+8 
           5910      1.73102e+8 
           5930      1.71047e+8 
           5950      1.68888e+8 
           5970      1.67082e+8 
           5990      1.65002e+8 
           6010      1.63176e+8 
           6030      1.61256e+8 
           6050      1.59389e+8 
           6070      1.57533e+8 
           6090      1.55697e+8 
           6110      1.53913e+8 
           6130      1.52148e+8 
           6150      1.50244e+8 
           6170      1.48648e+8 
           6190      1.46981e+8 
           6210      1.45303e+8 
           6230      1.43653e+8 
           6250      1.41964e+8 
           6270      1.40408e+8 
           6290      1.38821e+8 
           6310      1.37214e+8 
           6330      1.35737e+8 
           6350      1.33893e+8 
           6370      1.32552e+8 
           6390      1.31226e+8 
           6410      1.29766e+8 
           6430      1.28377e+8 
           6450      1.26948e+8 
           6470      1.25508e+8 
           6490      1.24163e+8 
           6510      1.22797e+8 
           6530      1.21118e+8 
           6550      1.16648e+8 
           6570      1.03947e+8 
           6590      1.16364e+8 
           6610       1.1623e+8 
           6630      1.15075e+8 
           6650      1.13915e+8 
           6670      1.11751e+8 
           6690      1.10588e+8 
           6710      1.10323e+8 
           6730      1.09136e+8 
           6750       1.0801e+8 
           6770       1.0688e+8 
           6790       1.0563e+8 
           6810      1.04629e+8 
           6830      1.03524e+8 
           6850      1.02471e+8 
           6870      1.01404e+8 
           6890       1.0034e+8 
           6910      9.93027e+7 
           6930      9.82676e+7 
           6950      9.72816e+7 
           6970      9.62821e+7 
           6990       9.5277e+7 
           7010      9.43125e+7 
           7030      9.33574e+7 
           7050       9.2404e+7 
           7070      9.00731e+7 
           7090      9.05549e+7 
           7110      8.96363e+7 
           7130      8.87413e+7 
           7150      8.78403e+7 
           7170      8.69479e+7 
           7190      8.61077e+7 
           7210      8.52466e+7 
           7230      8.39108e+7 
           7250      8.35488e+7 
           7270      8.27405e+7 
           7290      8.12876e+7 
           7310      8.11043e+7 
           7330      8.03257e+7 
           7350      7.95405e+7 
           7370      7.87695e+7 
           7390      7.79988e+7 
           7410      7.72422e+7 
           7430      7.64788e+7 
           7450      7.57633e+7 
           7470      7.50071e+7 
           7490      7.43116e+7 
           7510       7.3569e+7 
           7530       7.2893e+7 
           7550      7.22033e+7 
           7570      7.15199e+7 
           7590      7.08361e+7 
           7610       7.0165e+7 
           7630      6.95065e+7 
           7650      6.88474e+7 
           7670      6.82006e+7 
           7690      6.75597e+7 
           7710      6.69244e+7 
           7730      6.63012e+7 
           7750      6.56834e+7 
           7770      6.48902e+7 
           7790      6.44767e+7 
           7810      6.38257e+7 
           7830      6.32912e+7 
           7850      6.27368e+7 
           7870      6.21629e+7 
           7890      6.15092e+7 
           7910      6.10601e+7 
           7930       6.0411e+7 
           7950      5.97796e+7 
           7970      5.92231e+7 
           7990      5.86668e+7 
           8010      5.81622e+7 
           8030      5.76462e+7 
           8050       5.7174e+7 
           8070      5.67001e+7 
           8090      5.60724e+7 
           8110      5.56318e+7 
           8130       5.5216e+7 
           8150      5.46243e+7 
           8170      5.42595e+7 
           8190      5.36977e+7 
           8210      5.30441e+7 
           8230      5.27248e+7 
           8250      5.23084e+7 
           8270      5.15633e+7 
           8290      5.13302e+7 
           8310      5.08957e+7 
           8330      5.04502e+7 
           8350      4.97636e+7 
           8370      4.94389e+7 
           8390      4.90847e+7 
           8410      4.86267e+7 
           8430       4.8127e+7 
           8450      4.74024e+7 
           8470      4.70544e+7 
           8490      4.69714e+7 
           8510      4.60013e+7 
           8530      4.63968e+7 
           8550      4.44629e+7 
           8570      4.63802e+7 
