# Kurucz ODFNEW /NOVER (2003)
# teff = 34000 K (value for the effective temperature for the model. Temperatures are given in K)
# logg = 5 log(cm/s2) (value for Log(G) for the model.)
# meta = 0  (value for the Metallicity for the model.)
# lh = 1.25  (l/Hp where l is the  mixing length of the convective element and Hp is the pressure scale height)
# vtur = 2 km/s (Microturbulence velocity)
# alpha = 0.4  (Alpha)
#
# column 1: WAVELENGTH (ANGSTROM), Wavelength in Angstrom
# column 2: FLUX (ERG/CM2/S/A), Flux in erg/cm2/s/A
          147.2      2.95693e-5 
            151      7.59225e-5 
          155.2     0.000204372 
          158.8     0.000458993 
            162     0.000915037 
            166      0.00209268 
          170.3      0.00485985 
          173.4      0.00875093 
          176.8       0.0163222 
          180.2        0.029597 
          181.7       0.0384753 
          186.1       0.0796399 
            191        0.172549 
          193.9        0.267488 
          198.4         0.51728 
          201.8        0.832624 
            205         1.28469 
          210.5         2.63012 
          216.2         5.28635 
          219.8         8.14718 
            223         11.7726 
          226.8         18.4607 
            230          4284.1 
            234         9429.93 
            240         14910.9 
          246.5         24589.4 
          252.4         39730.4 
          256.8         53011.3 
            260         80032.7 
            264          110079 
          268.5          161013 
          273.5          220642 
          278.5          278789 
            284          565169 
            290          798926 
            296      1.04799e+6 
            301      1.41322e+6 
            308      3.03599e+6 
            318      5.93385e+6 
            328      8.42445e+6 
            338      1.39739e+7 
            348      2.06572e+7 
            357      4.12292e+7 
            366      7.90689e+7 
            375      9.41415e+7 
            385       1.3468e+8 
            395      2.39018e+8 
            405      2.86914e+8 
            414      3.86102e+8 
            422      4.21294e+8 
            430      4.77136e+8 
            441      5.74699e+8 
            451      6.57551e+8 
            460       6.9378e+8 
            470      8.09124e+8 
            480      9.26454e+8 
            490      1.00266e+9 
            500       1.1934e+9 
            506      1.81864e+9 
            512      1.2583e+10 
            520     1.16103e+10 
            530      1.0743e+10 
            540      9.97584e+9 
            550     1.15404e+10 
            560     1.40829e+10 
            570     1.46042e+10 
            580     1.33916e+10 
            590     1.43333e+10 
            600     1.14976e+10 
            610     1.38765e+10 
            620      1.5962e+10 
            630     1.55485e+10 
            640     1.51924e+10 
            650     1.52502e+10 
            658     1.27011e+10 
            665     1.47029e+10 
            675     1.58795e+10 
            685     1.31985e+10 
            695     1.64863e+10 
            705     1.33372e+10 
            716     1.72897e+10 
            726     1.67645e+10 
            735     1.68223e+10 
            745      1.6202e+10 
            755     1.61319e+10 
            765     1.66824e+10 
            775     1.69916e+10 
            785     1.73177e+10 
            795     1.72138e+10 
            805     1.65493e+10 
            815     1.64831e+10 
            825     1.72815e+10 
            835     1.42717e+10 
            845     1.66146e+10 
            855     1.64328e+10 
            865      1.6847e+10 
            875     1.68647e+10 
            885      1.7061e+10 
            895     1.71381e+10 
            905     1.66188e+10 
            915     1.64735e+10 
            925     4.03484e+10 
            935     6.56694e+10 
            945      9.9609e+10 
            955     1.14193e+11 
            965     1.38689e+11 
            975      5.7677e+10 
            985     1.19846e+11 
            995      1.0509e+11 
           1005     1.09514e+11 
           1015     1.13239e+11 
           1025     7.50429e+10 
           1035     1.07157e+11 
           1045      1.2498e+11 
           1055     1.18804e+11 
           1065     9.89067e+10 
           1075     1.04863e+11 
           1085     9.53164e+10 
           1095     1.03833e+11 
           1105     9.78427e+10 
           1115     9.57047e+10 
           1125      7.4764e+10 
           1135     9.11801e+10 
           1145     8.52438e+10 
           1155     8.11647e+10 
           1165     8.00438e+10 
           1175     5.59517e+10 
           1185     7.33566e+10 
           1195      7.0034e+10 
           1205     6.50625e+10 
           1215     4.56192e+10 
           1225     6.39495e+10 
           1235     6.87325e+10 
           1245     6.64127e+10 
           1255     6.60378e+10 
           1265       6.674e+10 
           1275      6.7667e+10 
           1285     6.71838e+10 
           1295     6.06397e+10 
           1305     6.13022e+10 
           1315      6.4576e+10 
           1325     6.16844e+10 
           1335     6.00387e+10 
           1345     5.85182e+10 
           1355     5.82014e+10 
           1365     5.50974e+10 
           1375     5.36951e+10 
           1385      5.1695e+10 
           1395     3.87411e+10 
           1405     4.06496e+10 
           1415     4.87529e+10 
           1425     4.41491e+10 
           1435      4.6507e+10 
           1442     4.64552e+10 
           1447     4.59979e+10 
           1455     4.38884e+10 
           1465     4.26769e+10 
           1475     4.24586e+10 
           1485     4.22304e+10 
           1495     4.08903e+10 
           1505     3.91146e+10 
           1512     3.84006e+10 
           1517     3.84425e+10 
           1525     3.73777e+10 
           1535     3.27864e+10 
           1545     2.90554e+10 
           1555     2.88169e+10 
           1565     3.11185e+10 
           1575     3.22949e+10 
           1585     3.20251e+10 
           1595     3.21224e+10 
           1605     3.04847e+10 
           1615     2.90351e+10 
           1625     2.94593e+10 
           1635     2.94932e+10 
           1645      2.9126e+10 
           1655     2.94504e+10 
           1665      2.8709e+10 
           1672     2.70191e+10 
           1677     3.04416e+10 
           1685     2.91965e+10 
           1695     2.81463e+10 
           1705     2.75281e+10 
           1715     2.65906e+10 
           1725     2.52932e+10 
           1735     2.61288e+10 
           1745     2.58525e+10 
           1755     2.53764e+10 
           1765     2.48587e+10 
           1775     2.40545e+10 
           1785     2.41984e+10 
           1795     2.37272e+10 
           1805      2.3635e+10 
           1815     2.28733e+10 
           1825     2.25554e+10 
           1835     2.23707e+10 
           1845     2.10553e+10 
           1855     2.11563e+10 
           1865     2.11683e+10 
           1875     2.06838e+10 
           1885      1.9658e+10 
           1895     1.91217e+10 
           1905     1.95973e+10 
           1915      1.8899e+10 
           1925     1.78309e+10 
           1935     1.86884e+10 
           1945     1.88463e+10 
           1955     1.73154e+10 
           1967      1.7875e+10 
           1976     1.82635e+10 
           1984     1.74819e+10 
           1995     1.70549e+10 
           2005     1.72264e+10 
           2015     1.71412e+10 
           2025     1.70201e+10 
           2035     1.63465e+10 
           2045     1.61303e+10 
           2055     1.35222e+10 
           2065     1.30771e+10 
           2074      1.3308e+10 
           2078     1.30806e+10 
           2085     1.34089e+10 
           2095     1.37635e+10 
           2105     1.46236e+10 
           2115     1.47913e+10 
           2125     1.44506e+10 
           2135     1.43403e+10 
           2145     1.40628e+10 
           2155     1.40105e+10 
           2165     1.34827e+10 
           2175     1.36146e+10 
           2185      1.3222e+10 
           2195     1.33528e+10 
           2205      1.3156e+10 
           2215     1.26497e+10 
           2225     1.27235e+10 
           2235     1.25284e+10 
           2245     1.23483e+10 
           2255      1.1896e+10 
           2265     1.20041e+10 
           2275     1.18486e+10 
           2285     1.15049e+10 
           2295     1.06238e+10 
           2305     1.09991e+10 
           2315     1.09921e+10 
           2325     1.09208e+10 
           2335      1.0759e+10 
           2345     1.06483e+10 
           2355     1.04568e+10 
           2365     1.02945e+10 
           2375     1.00791e+10 
           2385      9.66821e+9 
           2395      9.70586e+9 
           2405      9.69305e+9 
           2415       9.5096e+9 
           2425      9.43453e+9 
           2435      9.24664e+9 
           2445      9.15352e+9 
           2455      9.01659e+9 
           2465       8.9194e+9 
           2475      8.77736e+9 
           2485      8.55678e+9 
           2495      6.68004e+9 
           2505      8.16374e+9 
           2513       7.8434e+9 
           2518      7.95072e+9 
           2525      8.18442e+9 
           2535       8.1188e+9 
           2545      7.89983e+9 
           2555      7.83696e+9 
           2565      7.72386e+9 
           2575      7.66626e+9 
           2585      7.57944e+9 
           2595      7.44337e+9 
           2605      7.39855e+9 
           2615      7.26439e+9 
           2625      7.19767e+9 
           2635      7.10245e+9 
           2645      6.99715e+9 
           2655      6.90926e+9 
           2665       6.7493e+9 
           2675      6.61996e+9 
           2685      6.62875e+9 
           2695      6.47539e+9 
           2705      6.41576e+9 
           2715      6.33741e+9 
           2725      6.23822e+9 
           2735      6.09649e+9 
           2745      6.12664e+9 
           2755        6.048e+9 
           2765      5.94027e+9 
           2775      5.93374e+9 
           2785      5.82612e+9 
           2795      5.61958e+9 
           2805      5.65667e+9 
           2815      5.63557e+9 
           2825      5.54051e+9 
           2835      5.42743e+9 
           2845      5.43822e+9 
           2855      5.34288e+9 
           2865      5.27214e+9 
           2875      5.20453e+9 
           2885       5.1486e+9 
           2895      5.07534e+9 
           2910      4.94618e+9 
           2930       4.8824e+9 
           2950      4.73287e+9 
           2970      4.64116e+9 
           2990      4.50553e+9 
           3010      4.35978e+9 
           3030      4.25564e+9 
           3050       4.1988e+9 
           3070      4.13308e+9 
           3090       3.9815e+9 
           3110      3.94526e+9 
           3130       3.8317e+9 
           3150      3.76217e+9 
           3170      3.67068e+9 
           3190      3.58904e+9 
           3210      3.50168e+9 
           3230      3.43295e+9 
           3250      3.37739e+9 
           3270      3.27852e+9 
           3290      3.22236e+9 
           3310      3.15131e+9 
           3330      3.07328e+9 
           3350      3.00497e+9 
           3370      2.94367e+9 
           3390      2.90229e+9 
           3410      2.83863e+9 
           3430      2.78789e+9 
           3450      2.71245e+9 
           3470       2.6645e+9 
           3490      2.60977e+9 
           3510       2.5599e+9 
           3530      2.51825e+9 
           3550      2.46275e+9 
           3570      2.41945e+9 
           3590      2.35629e+9 
           3610      2.31971e+9 
           3630      2.26703e+9 
           3640      2.24933e+9 
           3650      2.17645e+9 
           3670      2.14395e+9 
           3690      2.10387e+9 
           3710      2.02536e+9 
           3730      1.99197e+9 
           3750      1.95897e+9 
           3770      1.89288e+9 
           3790      1.93396e+9 
           3810      1.97714e+9 
           3830      1.77754e+9 
           3850      1.98047e+9 
           3870       1.9435e+9 
           3890      1.65775e+9 
           3910      1.94963e+9 
           3930      1.90878e+9 
           3950      1.84295e+9 
           3970      1.52686e+9 
           3990      1.80034e+9 
           4010      1.78664e+9 
           4030      1.70038e+9 
           4050      1.73772e+9 
           4070      1.65425e+9 
           4090      1.53123e+9 
           4110      1.39248e+9 
           4130      1.58116e+9 
           4150      1.56742e+9 
           4170       1.5643e+9 
           4190      1.53131e+9 
           4210      1.50587e+9 
           4230      1.48587e+9 
           4250      1.43984e+9 
           4270      1.40773e+9 
           4290      1.38028e+9 
           4310      1.33992e+9 
           4330      1.23665e+9 
           4350       1.1466e+9 
           4370      1.28038e+9 
           4390      1.25429e+9 
           4410      1.24945e+9 
           4430       1.2409e+9 
           4450      1.21647e+9 
           4470      1.15976e+9 
           4490      1.17877e+9 
           4510      1.16135e+9 
           4530      1.14798e+9 
           4550      1.12197e+9 
           4570      1.11107e+9 
           4590      1.08927e+9 
           4610      1.06559e+9 
           4630      1.04243e+9 
           4650      9.97033e+8 
           4670      1.01359e+9 
           4690      9.92276e+8 
           4710      9.69381e+8 
           4730      9.80565e+8 
           4750      9.62691e+8 
           4770      9.53724e+8 
           4790      9.38207e+8 
           4810      9.18518e+8 
           4830      8.96264e+8 
           4850      8.34178e+8 
           4870      7.57036e+8 
           4890      8.54633e+8 
           4910      8.46934e+8 
           4930      8.19958e+8 
           4950       8.2074e+8 
           4970      8.16497e+8 
           4990      8.03868e+8 
           5010      7.75699e+8 
           5030       7.7538e+8 
           5050      7.63002e+8 
           5070      7.57096e+8 
           5090      7.44455e+8 
           5110      7.33258e+8 
           5130      7.21926e+8 
           5150      7.11599e+8 
           5170      7.00636e+8 
           5190      6.91764e+8 
           5210      6.82063e+8 
           5230      6.72559e+8 
           5250      6.61923e+8 
           5270      6.51767e+8 
           5290      6.44156e+8 
           5310      6.34757e+8 
           5330      6.25891e+8 
           5350      6.16969e+8 
           5370       6.0841e+8 
           5390      5.99157e+8 
           5410      5.86704e+8 
           5430      5.83297e+8 
           5450      5.74889e+8 
           5470       5.6689e+8 
           5490       5.5923e+8 
           5510      5.51616e+8 
           5530      5.43938e+8 
           5550      5.36894e+8 
           5570      5.29524e+8 
           5590      5.21413e+8 
           5610      5.15368e+8 
           5630      5.08527e+8 
           5650      5.01358e+8 
           5670      4.93866e+8 
           5690      4.83233e+8 
           5710       4.7544e+8 
           5730      4.69866e+8 
           5750      4.62524e+8 
           5770      4.58011e+8 
           5790      4.51863e+8 
           5810      4.45744e+8 
           5830      4.39355e+8 
           5850      4.34638e+8 
           5870       4.1796e+8 
           5890      4.22087e+8 
           5910      4.18232e+8 
           5930      4.13413e+8 
           5950      4.08488e+8 
           5970      4.04498e+8 
           5990      3.99219e+8 
           6010      3.95002e+8 
           6030      3.90282e+8 
           6050      3.85936e+8 
           6070      3.81372e+8 
           6090      3.76708e+8 
           6110      3.71895e+8 
           6130      3.67407e+8 
           6150      3.62102e+8 
           6170      3.57839e+8 
           6190      3.53918e+8 
           6210      3.49737e+8 
           6230      3.45447e+8 
           6250      3.40896e+8 
           6270      3.36981e+8 
           6290      3.32965e+8 
           6310      3.28701e+8 
           6330      3.25029e+8 
           6350      3.20789e+8 
           6370      3.17338e+8 
           6390      3.13501e+8 
           6410      3.09759e+8 
           6430      3.06159e+8 
           6450      3.02461e+8 
           6470      2.98209e+8 
           6490      2.94764e+8 
           6510      2.90787e+8 
           6530      2.86199e+8 
           6550      2.74197e+8 
           6570      2.46365e+8 
           6590      2.74739e+8 
           6610      2.74398e+8 
           6630      2.72085e+8 
           6650       2.6879e+8 
           6670      2.62692e+8 
           6690      2.59828e+8 
           6710      2.59386e+8 
           6730      2.56241e+8 
           6750      2.53989e+8 
           6770      2.51299e+8 
           6790      2.47794e+8 
           6810      2.45601e+8 
           6830      2.42663e+8 
           6850      2.40164e+8 
           6870      2.37403e+8 
           6890      2.34233e+8 
           6910      2.31404e+8 
           6930       2.2978e+8 
           6950      2.27258e+8 
           6970      2.24769e+8 
           6990      2.22259e+8 
           7010      2.19689e+8 
           7030      2.17183e+8 
           7050      2.14861e+8 
           7070      2.09721e+8 
           7090      2.10458e+8 
           7110      2.08031e+8 
           7130      2.05865e+8 
           7150      2.03779e+8 
           7170      2.01427e+8 
           7190      1.99368e+8 
           7210      1.97336e+8 
           7230       1.9394e+8 
           7250      1.92814e+8 
           7270      1.91141e+8 
           7290      1.87819e+8 
           7310      1.87095e+8 
           7330      1.85164e+8 
           7350      1.83223e+8 
           7370      1.81343e+8 
           7390      1.79472e+8 
           7410      1.77599e+8 
           7430      1.75778e+8 
           7450      1.73919e+8 
           7470      1.71551e+8 
           7490      1.70079e+8 
           7510      1.68613e+8 
           7530      1.66835e+8 
           7550      1.65258e+8 
           7570      1.63571e+8 
           7590      1.61631e+8 
           7610      1.59963e+8 
           7630      1.58608e+8 
           7650      1.56981e+8 
           7670      1.55497e+8 
           7690      1.53709e+8 
           7710      1.52323e+8 
           7730      1.50489e+8 
           7750      1.49375e+8 
           7770      1.47895e+8 
           7790      1.46485e+8 
           7810      1.44995e+8 
           7830      1.43616e+8 
           7850      1.42261e+8 
           7870      1.40548e+8 
           7890      1.39152e+8 
           7910      1.38106e+8 
           7930      1.36745e+8 
           7950      1.35486e+8 
           7970      1.34072e+8 
           7990      1.32829e+8 
           8010      1.31573e+8 
           8030       1.3027e+8 
           8050      1.29077e+8 
           8070      1.27837e+8 
           8090       1.2652e+8 
           8110      1.24603e+8 
           8130      1.24201e+8 
           8150      1.22968e+8 
           8170      1.21887e+8 
           8190      1.20091e+8 
           8210       1.1878e+8 
           8230      1.17519e+8 
           8250      1.16784e+8 
           8270      1.14958e+8 
           8290      1.14602e+8 
           8310      1.13707e+8 
           8330      1.12521e+8 
           8350       1.1114e+8 
           8370      1.10357e+8 
           8390       1.0959e+8 
           8410      1.08505e+8 
           8430      1.07583e+8 
           8450      1.06151e+8 
           8470      1.05666e+8 
           8490      1.04562e+8 
           8510      1.03489e+8 
           8530      1.02626e+8 
           8550      1.01708e+8 
           8570      1.01055e+8 
           8590      9.90427e+7 
