# Kurucz ODFNEW /NOVER (2003)
# teff = 8000 K (value for the effective temperature for the model. Temperatures are given in K)
# logg = 3.5 log(cm/s2) (value for Log(G) for the model.)
# meta = 0  (value for the Metallicity for the model.)
# lh = 1.25  (l/Hp where l is the  mixing length of the convective element and Hp is the pressure scale height)
# vtur = 2 km/s (Microturbulence velocity)
# alpha = 0  (Alpha)
#
# column 1: WAVELENGTH (ANGSTROM), Wavelength in Angstrom
# column 2: FLUX (ERG/CM2/S/A), Flux in erg/cm2/s/A
            338     1.22832e-23 
            348     1.92039e-22 
            357     1.43117e-21 
            366     9.52229e-21 
            375     4.61639e-21 
            385     2.80034e-20 
            395     1.54091e-19 
            405     7.75508e-19 
            414     3.09435e-18 
            422     1.00376e-17 
            430     3.10736e-17 
            441     1.36854e-16 
            451     4.92265e-16 
            460     1.48062e-15 
            470     4.77384e-15 
            480      1.4602e-14 
            490     4.25386e-14 
            500     1.18224e-13 
            506     2.83317e-13 
            512     5.68836e-13 
            520     1.19762e-12 
            530     2.95576e-12 
            540     6.90929e-12 
            550     1.58563e-11 
            560     3.49904e-11 
            570     7.48705e-11 
            580     1.53783e-10 
            590     3.14641e-10 
            600     6.19866e-10 
            610      1.19286e-9 
            620      2.23999e-9 
            630       4.1146e-9 
            640      7.40095e-9 
            650      1.30558e-8 
            658      2.02703e-8 
            665      2.94662e-8 
            675      4.96262e-8 
            685      8.21583e-8 
            695      1.33822e-7 
            705      2.13747e-7 
            716      3.54275e-7 
            726       5.5081e-7 
            735       8.0991e-7 
            745      1.22727e-6 
            755      1.83743e-6 
            765      2.71843e-6 
            775      3.97563e-6 
            785       5.7544e-6 
            795      8.15897e-6 
            805       1.1616e-5 
            815       1.6343e-5 
            825      2.27109e-5 
            835      3.12703e-5 
            845      4.26882e-5 
            855      5.77752e-5 
            865      7.75588e-5 
            875     0.000102992 
            885     0.000136522 
            895      0.00017916 
            905     0.000232374 
            915        0.127077 
            925        0.397769 
            935        0.522459 
            945         0.68265 
            955        0.935684 
            965         1.21014 
            975         1.49455 
            985         1.91078 
            995         2.33243 
           1005         3.07862 
           1015         3.83558 
           1025         4.50623 
           1035         5.82559 
           1045         7.21427 
           1055         8.84939 
           1065         10.5995 
           1075         13.0607 
           1085         15.9035 
           1095         18.8436 
           1105         52.5004 
           1115         159.919 
           1125         228.846 
           1135         316.889 
           1145         393.188 
           1155         429.334 
           1165         572.828 
           1175         663.371 
           1185         697.911 
           1195         381.313 
           1205         351.452 
           1215         90.7943 
           1225         402.179 
           1235         943.834 
           1245         2079.17 
           1255         4751.98 
           1265         4722.82 
           1275         7504.35 
           1285         10646.2 
           1295         12999.1 
           1305         10848.2 
           1315         16392.5 
           1325         19446.3 
           1335         21212.1 
           1345           26227 
           1355         26836.5 
           1365         29346.2 
           1375         32011.4 
           1385         34579.2 
           1395         39530.9 
           1405         43941.7 
           1415         45059.5 
           1425         50542.3 
           1435         50795.3 
           1442           58699 
           1447         62831.7 
           1455           70115 
           1465           70646 
           1475           77248 
           1485         85248.3 
           1495         95701.7 
           1505          104691 
           1512          105281 
           1517          114103 
           1525          122638 
           1535          250495 
           1545          743098 
           1555          689651 
           1565          611079 
           1575      1.09636e+6 
           1585       1.4621e+6 
           1595      1.73362e+6 
           1605      1.67582e+6 
           1615      1.85474e+6 
           1625      1.79546e+6 
           1635      2.48863e+6 
           1645      4.53087e+6 
           1655      2.28635e+6 
           1665      4.69949e+6 
           1672       2.0261e+6 
           1677      6.37284e+6 
           1685      8.95176e+6 
           1695      7.46227e+6 
           1705      8.69762e+6 
           1715      1.21657e+7 
           1725      1.26225e+7 
           1735      1.56713e+7 
           1745      1.45148e+7 
           1755      1.81587e+7 
           1765      1.22431e+7 
           1775      1.67522e+7 
           1785      1.58721e+7 
           1795      2.10321e+7 
           1805      1.72186e+7 
           1815      1.89152e+7 
           1825      1.62416e+7 
           1835        1.517e+7 
           1845      1.32054e+7 
           1855      1.53844e+7 
           1865      1.75518e+7 
           1875      1.66985e+7 
           1885      1.72693e+7 
           1895      1.87944e+7 
           1905      1.68723e+7 
           1915      1.83443e+7 
           1925      1.78075e+7 
           1935       1.2567e+7 
           1945      1.94956e+7 
           1955      1.97826e+7 
           1967      2.18691e+7 
           1976      2.12834e+7 
           1984      2.01905e+7 
           1995      1.97091e+7 
           2005      1.83162e+7 
           2015      1.74743e+7 
           2025       1.6298e+7 
           2035      1.88918e+7 
           2045      2.08209e+7 
           2055      1.93092e+7 
           2065      1.83796e+7 
           2074      2.20845e+7 
           2078      2.36686e+7 
           2085      2.24873e+7 
           2095      2.08861e+7 
           2105      1.91594e+7 
           2115       1.9783e+7 
           2125      2.04832e+7 
           2135      1.58065e+7 
           2145      1.93858e+7 
           2155      1.95478e+7 
           2165      1.77778e+7 
           2175      1.76649e+7 
           2185      1.87275e+7 
           2195      2.05144e+7 
           2205      1.94415e+7 
           2215      1.66725e+7 
           2225      1.62803e+7 
           2235      1.99322e+7 
           2245      1.77241e+7 
           2255      1.59418e+7 
           2265      1.60936e+7 
           2275      1.78341e+7 
           2285      1.89172e+7 
           2295      1.69045e+7 
           2305      1.77373e+7 
           2315      1.68301e+7 
           2325      1.62369e+7 
           2335      1.33156e+7 
           2345      1.06394e+7 
           2355      1.58523e+7 
           2365      1.10327e+7 
           2375       1.3713e+7 
           2385      9.19732e+6 
           2395      1.13609e+7 
           2405      1.09625e+7 
           2415      1.18989e+7 
           2425      1.56557e+7 
           2435      1.51042e+7 
           2445      1.65274e+7 
           2455      1.63349e+7 
           2465      1.61654e+7 
           2475       1.4821e+7 
           2485      1.51833e+7 
           2495      1.43084e+7 
           2505      1.82805e+7 
           2513      1.44651e+7 
           2518      1.49525e+7 
           2525      1.29771e+7 
           2535      1.20061e+7 
           2545      1.18777e+7 
           2555      1.41683e+7 
           2565      1.34144e+7 
           2575      1.56172e+7 
           2585      1.54949e+7 
           2595      1.46988e+7 
           2605      1.34731e+7 
           2615      1.25714e+7 
           2625      1.58026e+7 
           2635      1.68836e+7 
           2645      2.13797e+7 
           2655      2.19559e+7 
           2665      1.79363e+7 
           2675      1.98336e+7 
           2685      1.95539e+7 
           2695      1.79811e+7 
           2705      1.91551e+7 
           2715      1.71038e+7 
           2725      1.74818e+7 
           2735      1.93189e+7 
           2745      1.32952e+7 
           2755      1.48085e+7 
           2765      1.60952e+7 
           2775      1.89318e+7 
           2785      1.67308e+7 
           2795      7.55578e+6 
           2805      9.77109e+6 
           2815      1.94426e+7 
           2825      2.15904e+7 
           2835      2.03364e+7 
           2845      1.92572e+7 
           2855      1.74665e+7 
           2865      2.05176e+7 
           2875      1.98897e+7 
           2885      2.02472e+7 
           2895      1.89794e+7 
           2910       2.2624e+7 
           2930      2.13319e+7 
           2950      2.11259e+7 
           2970      2.22722e+7 
           2990       2.2443e+7 
           3010      2.30197e+7 
           3030      2.27312e+7 
           3050      2.26823e+7 
           3070      2.29598e+7 
           3090      2.35035e+7 
           3110      2.26631e+7 
           3130       2.2519e+7 
           3150      2.34292e+7 
           3170      2.33103e+7 
           3190       2.1725e+7 
           3210      2.26149e+7 
           3230      2.15164e+7 
           3250      2.25538e+7 
           3270      2.31138e+7 
           3290      2.33003e+7 
           3310      2.37733e+7 
           3330      2.31754e+7 
           3350      2.28881e+7 
           3370      2.25608e+7 
           3390      2.27675e+7 
           3410      2.30244e+7 
           3430      2.32601e+7 
           3450      2.30909e+7 
           3470      2.27626e+7 
           3490      2.26852e+7 
           3510       2.3269e+7 
           3530      2.31723e+7 
           3550      2.38309e+7 
           3570       2.2692e+7 
           3590      2.25641e+7 
           3610      2.26788e+7 
           3630      2.29167e+7 
           3640      2.25649e+7 
           3650      2.36141e+7 
           3670      2.33407e+7 
           3690      2.23482e+7 
           3710      2.42497e+7 
           3730       2.5736e+7 
           3750      3.29245e+7 
           3770      3.55686e+7 
           3790      4.38256e+7 
           3810      5.12588e+7 
           3830      4.03364e+7 
           3850      5.66905e+7 
           3870      6.39617e+7 
           3890      3.69955e+7 
           3910      6.33497e+7 
           3930      5.48231e+7 
           3950       6.2655e+7 
           3970      3.36432e+7 
           3990       6.2354e+7 
           4010      7.06504e+7 
           4030      7.04705e+7 
           4050      6.95833e+7 
           4070      6.59946e+7 
           4090      5.23833e+7 
           4110      4.00122e+7 
           4130      6.27967e+7 
           4150      6.69768e+7 
           4170      6.65244e+7 
           4190      6.58479e+7 
           4210      6.56552e+7 
           4230      6.37936e+7 
           4250      6.39142e+7 
           4270       6.1323e+7 
           4290      6.15897e+7 
           4310      5.61116e+7 
           4330      4.39564e+7 
           4350      3.74689e+7 
           4370       5.6775e+7 
           4390       5.8372e+7 
           4410      5.75377e+7 
           4430      5.70002e+7 
           4450      5.77446e+7 
           4470      5.73082e+7 
           4490      5.66175e+7 
           4510      5.78186e+7 
           4530      5.55101e+7 
           4550      5.45264e+7 
           4570      5.60344e+7 
           4590       5.3936e+7 
           4610      5.48907e+7 
           4630       5.3226e+7 
           4650      5.35235e+7 
           4670      5.32285e+7 
           4690      5.12323e+7 
           4710      4.93716e+7 
           4730      5.13293e+7 
           4750      5.11217e+7 
           4770      5.01657e+7 
           4790      4.95358e+7 
           4810      4.83334e+7 
           4830      4.59816e+7 
           4850      3.59681e+7 
           4870      2.87731e+7 
           4890      4.30499e+7 
           4910      4.53908e+7 
           4930      4.48698e+7 
           4950      4.55704e+7 
           4970      4.57366e+7 
           4990      4.41241e+7 
           5010      4.26588e+7 
           5030      4.35919e+7 
           5050      4.27686e+7 
           5070      4.32951e+7 
           5090      4.26516e+7 
           5110      4.24699e+7 
           5130      4.15754e+7 
           5150      4.06764e+7 
           5170      3.98197e+7 
           5190      3.94043e+7 
           5210      3.94493e+7 
           5230      3.89801e+7 
           5250      3.95311e+7 
           5270      3.72404e+7 
           5290      3.85519e+7 
           5310        3.792e+7 
           5330      3.67117e+7 
           5350      3.75709e+7 
           5370      3.70473e+7 
           5390      3.66367e+7 
           5410      3.58579e+7 
           5430      3.59035e+7 
           5450      3.59664e+7 
           5470      3.55087e+7 
           5490      3.53105e+7 
           5510      3.49963e+7 
           5530        3.456e+7 
           5550      3.45108e+7 
           5570      3.39513e+7 
           5590      3.35581e+7 
           5610       3.3433e+7 
           5630      3.33349e+7 
           5650      3.29152e+7 
           5670      3.24303e+7 
           5690      3.23598e+7 
           5710      3.20445e+7 
           5730      3.20874e+7 
           5750       3.1582e+7 
           5770      3.13793e+7 
           5790      3.10337e+7 
           5810      3.08148e+7 
           5830      3.05938e+7 
           5850      3.02308e+7 
           5870      2.99891e+7 
           5890      2.93156e+7 
           5910      2.94572e+7 
           5930      2.91989e+7 
           5950       2.8921e+7 
           5970      2.87064e+7 
           5990      2.83418e+7 
           6010      2.79688e+7 
           6030      2.78468e+7 
           6050      2.76476e+7 
           6070      2.75015e+7 
           6090      2.71871e+7 
           6110      2.68721e+7 
           6130      2.64214e+7 
           6150       2.5948e+7 
           6170      2.58919e+7 
           6190      2.60453e+7 
           6210      2.58398e+7 
           6230       2.5479e+7 
           6250      2.48359e+7 
           6270      2.51971e+7 
           6290      2.49886e+7 
           6310      2.45674e+7 
           6330      2.44547e+7 
           6350      2.40757e+7 
           6370       2.3922e+7 
           6390      2.38528e+7 
           6410      2.34685e+7 
           6430      2.33829e+7 
           6450      2.29166e+7 
           6470      2.29219e+7 
           6490      2.24776e+7 
           6510      2.23077e+7 
           6530      2.16562e+7 
           6550      1.88705e+7 
           6570       1.5043e+7 
           6590       2.0443e+7 
           6610      2.13378e+7 
           6630      2.14406e+7 
           6650      2.13425e+7 
           6670      2.11588e+7 
           6690       2.1083e+7 
           6710      2.09174e+7 
           6730      2.07475e+7 
           6750      2.04933e+7 
           6770      2.04603e+7 
           6790      2.02795e+7 
           6810      2.01167e+7 
           6830      1.99118e+7 
           6850      1.97564e+7 
           6870      1.96431e+7 
           6890      1.94927e+7 
           6910      1.93296e+7 
           6930      1.91624e+7 
           6950      1.90196e+7 
           6970      1.88571e+7 
           6990      1.87308e+7 
           7010      1.84454e+7 
           7030      1.83765e+7 
           7050      1.82686e+7 
           7070       1.8139e+7 
           7090      1.79993e+7 
           7110      1.75286e+7 
           7130      1.76119e+7 
           7150      1.75069e+7 
           7170       1.7372e+7 
           7190       1.7207e+7 
           7210      1.71095e+7 
           7230       1.6971e+7 
           7250      1.68158e+7 
           7270      1.67634e+7 
           7290      1.65475e+7 
           7310      1.64507e+7 
           7330      1.63344e+7 
           7350      1.62575e+7 
           7370      1.61499e+7 
           7390      1.59619e+7 
           7410      1.57702e+7 
           7430      1.56274e+7 
           7450      1.55586e+7 
           7470      1.53653e+7 
           7490      1.53075e+7 
           7510      1.52448e+7 
           7530       1.5158e+7 
           7550      1.50943e+7 
           7570      1.49542e+7 
           7590      1.48584e+7 
           7610      1.47447e+7 
           7630      1.46403e+7 
           7650      1.45027e+7 
           7670      1.43324e+7 
           7690      1.42675e+7 
           7710      1.41492e+7 
           7730      1.41013e+7 
           7750      1.39696e+7 
           7770       1.3607e+7 
           7790      1.38129e+7 
           7810      1.36972e+7 
           7830      1.35412e+7 
           7850      1.34051e+7 
           7870      1.33243e+7 
           7890      1.32054e+7 
           7910       1.3117e+7 
           7930      1.30042e+7 
           7950      1.28959e+7 
           7970      1.29303e+7 
           7990       1.2717e+7 
           8010      1.27122e+7 
           8030      1.26017e+7 
           8050      1.25345e+7 
           8070      1.24406e+7 
           8090      1.23447e+7 
           8110      1.22936e+7 
           8130      1.22189e+7 
           8150       1.2129e+7 
           8170      1.20443e+7 
           8190        1.179e+7 
           8210      1.17534e+7 
           8230      1.16668e+7 
           8250      1.16114e+7 
           8270      1.16622e+7 
           8290      1.15709e+7 
           8310      1.14744e+7 
           8330      1.12901e+7 
           8350      1.13258e+7 
           8370      1.12502e+7 
           8390      1.11196e+7 
           8410      1.10502e+7 
           8430      1.09613e+7 
           8450      1.07438e+7 
           8470       1.0597e+7 
           8490      1.08263e+7 
           8510       1.0096e+7 
           8530      1.07959e+7 
           8550      9.32257e+6 
           8570      1.08892e+7 
           8590      1.01034e+7 
           8610      9.80902e+6 
           8630      1.09038e+7 
           8650      1.04904e+7 
           8670      8.50398e+6 
           8690      1.04928e+7 
           8710      1.09626e+7 
           8730      1.05511e+7 
           8750      8.38904e+6 
           8770      1.00995e+7 
           8790      1.08503e+7 
           8810      1.08743e+7 
           8830      1.05174e+7 
           8850      9.51702e+6 
           8870      8.07932e+6 
           8890      1.01275e+7 
           8910      1.05268e+7 
           8930      1.05571e+7 
           8950      1.06003e+7 
           8970      1.03878e+7 
           8990      9.91745e+6 
           9010      7.93228e+6 
           9030      8.73666e+6 
           9050      9.90276e+6 
           9070      9.90356e+6 
           9090      9.80486e+6 
           9110      1.00165e+7 
           9130      1.00414e+7 
           9150      1.00025e+7 
           9170      9.84778e+6 
           9190      9.57792e+6 
           9210      8.89237e+6 
           9230      6.98467e+6 
           9250      8.54441e+6 
           9270      9.10468e+6 
           9290      9.46886e+6 
           9310      9.49124e+6 
           9330      9.44064e+6 
           9350      9.40978e+6 
           9370      9.36407e+6 
           9390      9.24347e+6 
