# Kurucz ODFNEW /NOVER (2003)
# teff = 30000 K (value for the effective temperature for the model. Temperatures are given in K)
# logg = 4.5 log(cm/s2) (value for Log(G) for the model.)
# meta = -1.5  (value for the Metallicity for the model.)
# lh = 1.25  (l/Hp where l is the  mixing length of the convective element and Hp is the pressure scale height)
# vtur = 2 km/s (Microturbulence velocity)
# alpha = 0.4  (Alpha)
#
# column 1: WAVELENGTH (ANGSTROM), Wavelength in Angstrom
# column 2: FLUX (ERG/CM2/S/A), Flux in erg/cm2/s/A
          147.2       5.9356e-9 
            151      1.98468e-8 
          155.2      7.03315e-8 
          158.8      1.97243e-7 
            162      4.74859e-7 
            166      1.35697e-6 
          170.3      3.96745e-6 
          173.4      8.31691e-6 
          176.8       1.8165e-5 
          180.2      3.85024e-5 
          181.7      5.31428e-5 
          186.1     0.000132773 
            191     0.000349973 
          193.9     0.000606619 
          198.4      0.00137886 
          201.8      0.00250128 
            205      0.00430112 
          210.5       0.0105086 
          216.2       0.0252534 
          219.8       0.0429053 
            223       0.0677324 
          226.8        0.114583 
            230         28.7368 
            234         78.8121 
            240         147.873 
          246.5         285.358 
          252.4         506.351 
          256.8         657.015 
            260         1005.24 
            264         1352.52 
          268.5         2009.74 
          273.5         2988.92 
          278.5         4310.21 
            284         6818.93 
            290         10279.2 
            296         15173.1 
            301         20069.1 
            308         28913.1 
            318         59293.8 
            328         99049.8 
            338          168859 
            348          270816 
            357          442265 
            366          671333 
            375          927350 
            385      1.37104e+6 
            395       1.9588e+6 
            405      2.69918e+6 
            414      3.61726e+6 
            422      4.48012e+6 
            430       5.6214e+6 
            441      7.53959e+6 
            451      9.79788e+6 
            460      1.20098e+7 
            470      1.52128e+7 
            480      1.88479e+7 
            490      2.31671e+7 
            500      2.85275e+7 
            506      1.49773e+8 
            512      5.99935e+8 
            520      6.10277e+8 
            530      6.60437e+8 
            540       6.2057e+8 
            550      7.38514e+8 
            560      7.94724e+8 
            570      8.51276e+8 
            580      8.08132e+8 
            590      9.20395e+8 
            600      9.47025e+8 
            610      1.00907e+9 
            620      1.06835e+9 
            630      1.11994e+9 
            640      1.12283e+9 
            650      1.20259e+9 
            658      1.23496e+9 
            665      1.27742e+9 
            675      1.29839e+9 
            685      1.30893e+9 
            695      1.45131e+9 
            705      1.44454e+9 
            716      1.56113e+9 
            726      1.59168e+9 
            735      1.65301e+9 
            745      1.72711e+9 
            755      1.77577e+9 
            765      1.83529e+9 
            775      1.90226e+9 
            785      1.98059e+9 
            795      2.01834e+9 
            805      2.07158e+9 
            815      2.11135e+9 
            825      2.19354e+9 
            835      2.11949e+9 
            845      2.27887e+9 
            855      2.32606e+9 
            865      2.39468e+9 
            875      2.45958e+9 
            885      2.52529e+9 
            895      2.58186e+9 
            905      2.60409e+9 
            915      3.05888e+9 
            925     1.45448e+10 
            935     2.92166e+10 
            945     5.65669e+10 
            955     6.64752e+10 
            965     8.31962e+10 
            975      4.0133e+10 
            985     8.20303e+10 
            995        7.55e+10 
           1005     7.85443e+10 
           1015     7.53441e+10 
           1025     3.98092e+10 
           1035     6.98227e+10 
           1045     7.74589e+10 
           1055     7.51343e+10 
           1065      6.8399e+10 
           1075     6.96035e+10 
           1085     6.38974e+10 
           1095      6.8033e+10 
           1105       6.503e+10 
           1115     6.35264e+10 
           1125     5.78537e+10 
           1135     6.11698e+10 
           1145     5.73388e+10 
           1155     5.74487e+10 
           1165     5.65639e+10 
           1175     4.73809e+10 
           1185     5.29241e+10 
           1195     5.07705e+10 
           1205     4.60733e+10 
           1215     2.60889e+10 
           1225     4.59619e+10 
           1235     4.79623e+10 
           1245     4.65411e+10 
           1255     4.61492e+10 
           1265     4.52742e+10 
           1275     4.46386e+10 
           1285      4.3691e+10 
           1295     4.01592e+10 
           1305     4.04331e+10 
           1315     4.08227e+10 
           1325     3.93848e+10 
           1335     3.81459e+10 
           1345     3.76912e+10 
           1355     3.73934e+10 
           1365     3.59417e+10 
           1375     3.54188e+10 
           1385     3.47481e+10 
           1395     3.11233e+10 
           1405     3.11723e+10 
           1415     3.22781e+10 
           1425     3.12181e+10 
           1435      3.1048e+10 
           1442     3.09085e+10 
           1447      3.0501e+10 
           1455     2.98551e+10 
           1465     2.91979e+10 
           1475      2.8599e+10 
           1485     2.81246e+10 
           1495     2.74394e+10 
           1505     2.64539e+10 
           1512      2.6231e+10 
           1517     2.60092e+10 
           1525     2.55103e+10 
           1535     2.40598e+10 
           1545     2.33832e+10 
           1555     2.27749e+10 
           1565     2.29139e+10 
           1575     2.28623e+10 
           1585     2.25538e+10 
           1595     2.22141e+10 
           1605     2.12844e+10 
           1615     2.07501e+10 
           1625      2.0564e+10 
           1635     2.03104e+10 
           1645     1.94684e+10 
           1655     1.98431e+10 
           1665     1.94465e+10 
           1672     1.90589e+10 
           1677     1.94089e+10 
           1685     1.90115e+10 
           1695     1.85767e+10 
           1705     1.81313e+10 
           1715     1.76336e+10 
           1725     1.72677e+10 
           1735     1.72744e+10 
           1745     1.69409e+10 
           1755     1.66579e+10 
           1765     1.62411e+10 
           1775     1.59737e+10 
           1785     1.57633e+10 
           1795     1.55753e+10 
           1805     1.53859e+10 
           1815     1.50052e+10 
           1825     1.47779e+10 
           1835     1.45524e+10 
           1845     1.39491e+10 
           1855     1.36699e+10 
           1865     1.35919e+10 
           1875     1.34913e+10 
           1885     1.29424e+10 
           1895     1.25418e+10 
           1905     1.26887e+10 
           1915     1.22699e+10 
           1925     1.19628e+10 
           1935     1.20156e+10 
           1945      1.1971e+10 
           1955     1.14092e+10 
           1967     1.14964e+10 
           1976     1.15067e+10 
           1984     1.11538e+10 
           1995     1.08134e+10 
           2005     1.08773e+10 
           2015     1.07909e+10 
           2025     1.06782e+10 
           2035     1.03925e+10 
           2045     1.02298e+10 
           2055      9.38205e+9 
           2065      9.17302e+9 
           2074      9.25998e+9 
           2078      9.10048e+9 
           2085       9.1868e+9 
           2095      9.21862e+9 
           2105      9.33954e+9 
           2115      9.27585e+9 
           2125      9.15205e+9 
           2135      9.01197e+9 
           2145      8.85608e+9 
           2155      8.76354e+9 
           2165      8.60079e+9 
           2175      8.51073e+9 
           2185      8.35331e+9 
           2195       8.2805e+9 
           2205       8.1583e+9 
           2215      7.99419e+9 
           2225      7.91488e+9 
           2235      7.79369e+9 
           2245      7.69077e+9 
           2255      7.53085e+9 
           2265      7.46964e+9 
           2275      7.36335e+9 
           2285      7.24854e+9 
           2295      7.01506e+9 
           2305      7.00786e+9 
           2315      6.94323e+9 
           2325      6.84802e+9 
           2335      6.74499e+9 
           2345      6.66121e+9 
           2355      6.56855e+9 
           2365      6.47817e+9 
           2375      6.38352e+9 
           2385      6.25804e+9 
           2395       6.2009e+9 
           2405      6.12476e+9 
           2415      6.03693e+9 
           2425        5.959e+9 
           2435      5.86853e+9 
           2445      5.79498e+9 
           2455      5.71855e+9 
           2465      5.64435e+9 
           2475      5.56642e+9 
           2485      5.49242e+9 
           2495      5.13796e+9 
           2505      5.33879e+9 
           2513      5.20237e+9 
           2518      5.22724e+9 
           2525       5.2074e+9 
           2535      5.14136e+9 
           2545      5.04049e+9 
           2555       4.9939e+9 
           2565       4.9382e+9 
           2575       4.8781e+9 
           2585      4.81636e+9 
           2595      4.75442e+9 
           2605      4.71637e+9 
           2615      4.65508e+9 
           2625      4.59628e+9 
           2635      4.53515e+9 
           2645      4.47561e+9 
           2655       4.4147e+9 
           2665      4.34811e+9 
           2675      4.29065e+9 
           2685      4.26074e+9 
           2695      4.17549e+9 
           2705      4.15117e+9 
           2715      4.10148e+9 
           2725      4.02212e+9 
           2735      3.98384e+9 
           2745      3.95192e+9 
           2755      3.90452e+9 
           2765      3.82691e+9 
           2775      3.81278e+9 
           2785      3.76485e+9 
           2795       3.6827e+9 
           2805       3.6641e+9 
           2815      3.63283e+9 
           2825      3.55514e+9 
           2835      3.51918e+9 
           2845       3.5051e+9 
           2855      3.46122e+9 
           2865      3.42063e+9 
           2875      3.38092e+9 
           2885      3.34263e+9 
           2895      3.30317e+9 
           2910      3.24367e+9 
           2930      3.17058e+9 
           2950      3.07552e+9 
           2970      3.02784e+9 
           2990      2.95885e+9 
           3010      2.88964e+9 
           3030      2.82708e+9 
           3050      2.76603e+9 
           3070      2.70656e+9 
           3090      2.63621e+9 
           3110      2.58874e+9 
           3130      2.53242e+9 
           3150      2.47808e+9 
           3170       2.4255e+9 
           3190      2.35502e+9 
           3210      2.32013e+9 
           3230      2.27314e+9 
           3250      2.22628e+9 
           3270      2.18158e+9 
           3290      2.13384e+9 
           3310      2.09311e+9 
           3330      2.04946e+9 
           3350      2.00478e+9 
           3370      1.96719e+9 
           3390      1.92848e+9 
           3410      1.88998e+9 
           3430      1.84485e+9 
           3450      1.80203e+9 
           3470        1.771e+9 
           3490      1.73607e+9 
           3510      1.70527e+9 
           3530      1.67539e+9 
           3550      1.64293e+9 
           3570      1.62047e+9 
           3590      1.57767e+9 
           3610      1.55362e+9 
           3630      1.51891e+9 
           3640      1.51615e+9 
           3650      1.48461e+9 
           3670      1.46338e+9 
           3690      1.43558e+9 
           3710      1.38724e+9 
           3730      1.33561e+9 
           3750      1.33954e+9 
           3770      1.31415e+9 
           3790       1.3615e+9 
           3810      1.40663e+9 
           3830      1.24322e+9 
           3850      1.42846e+9 
           3870       1.4364e+9 
           3890      1.17089e+9 
           3910      1.40642e+9 
           3930       1.3869e+9 
           3950      1.35717e+9 
           3970      1.08504e+9 
           3990      1.30271e+9 
           4010      1.29413e+9 
           4030      1.22356e+9 
           4050      1.26158e+9 
           4070      1.22653e+9 
           4090      1.13446e+9 
           4110      1.00464e+9 
           4130      1.15418e+9 
           4150      1.14383e+9 
           4170      1.13427e+9 
           4190      1.11501e+9 
           4210      1.09724e+9 
           4230      1.07891e+9 
           4250      1.05835e+9 
           4270      1.03722e+9 
           4290      1.02079e+9 
           4310      9.97184e+8 
           4330      9.09307e+8 
           4350      8.33573e+8 
           4370      9.46533e+8 
           4390      9.15312e+8 
           4410      9.21905e+8 
           4430      9.07227e+8 
           4450      8.94543e+8 
           4470      8.43889e+8 
           4490      8.64848e+8 
           4510      8.52564e+8 
           4530      8.38884e+8 
           4550      8.23646e+8 
           4570      8.10824e+8 
           4590      7.97515e+8 
           4610      7.85434e+8 
           4630      7.73268e+8 
           4650        7.548e+8 
           4670      7.48055e+8 
           4690      7.34427e+8 
           4710      7.15586e+8 
           4730      7.15154e+8 
           4750      7.03735e+8 
           4770       6.9364e+8 
           4790      6.82934e+8 
           4810      6.71274e+8 
           4830      6.56845e+8 
           4850      6.09269e+8 
           4870      5.48823e+8 
           4890      6.25984e+8 
           4910      6.20676e+8 
           4930      5.98848e+8 
           4950      6.03828e+8 
           4970      5.95821e+8 
           4990      5.86984e+8 
           5010      5.71321e+8 
           5030      5.69779e+8 
           5050      5.58554e+8 
           5070      5.53394e+8 
           5090      5.45287e+8 
           5110       5.3742e+8 
           5130      5.29645e+8 
           5150      5.22017e+8 
           5170      5.14532e+8 
           5190      5.07316e+8 
           5210      5.00097e+8 
           5230      4.93084e+8 
           5250      4.86123e+8 
           5270      4.79293e+8 
           5290      4.72593e+8 
           5310      4.66007e+8 
           5330      4.59545e+8 
           5350      4.53155e+8 
           5370      4.46937e+8 
           5390      4.40735e+8 
           5410      4.34342e+8 
           5430      4.28797e+8 
           5450      4.22941e+8 
           5470      4.17223e+8 
           5490      4.11589e+8 
           5510      4.06062e+8 
           5530      4.00617e+8 
           5550      3.95252e+8 
           5570      3.89978e+8 
           5590      3.84794e+8 
           5610      3.79709e+8 
           5630      3.74698e+8 
           5650      3.69737e+8 
           5670      3.64813e+8 
           5690      3.59821e+8 
           5710      3.55375e+8 
           5730       3.5081e+8 
           5750      3.46073e+8 
           5770      3.41845e+8 
           5790      3.37431e+8 
           5810      3.33125e+8 
           5830      3.28826e+8 
           5850      3.24655e+8 
           5870      3.11185e+8 
           5890      3.15819e+8 
           5910      3.12455e+8 
           5930      3.08519e+8 
           5950       3.0465e+8 
           5970      3.00921e+8 
           5990      2.97141e+8 
           6010      2.93466e+8 
           6030      2.89834e+8 
           6050      2.86274e+8 
           6070      2.82765e+8 
           6090      2.79296e+8 
           6110      2.75886e+8 
           6130      2.72525e+8 
           6150      2.69181e+8 
           6170      2.65945e+8 
           6190      2.62744e+8 
           6210      2.59589e+8 
           6230      2.56479e+8 
           6250      2.53403e+8 
           6270       2.5039e+8 
           6290       2.4741e+8 
           6310      2.44463e+8 
           6330      2.41585e+8 
           6350      2.38721e+8 
           6370      2.35933e+8 
           6390      2.33167e+8 
           6410       2.3044e+8 
           6430       2.2776e+8 
           6450      2.25119e+8 
           6470      2.22478e+8 
           6490       2.1991e+8 
           6510      2.17281e+8 
           6530      2.13894e+8 
           6550      2.04801e+8 
           6570      1.83168e+8 
           6590       2.0548e+8 
           6610      2.04893e+8 
           6630      2.02956e+8 
           6650      2.00732e+8 
           6670      1.96524e+8 
           6690      1.94349e+8 
           6710      1.94079e+8 
           6730      1.91863e+8 
           6750      1.89793e+8 
           6770      1.87687e+8 
           6790      1.85553e+8 
           6810      1.83555e+8 
           6830      1.81521e+8 
           6850      1.79547e+8 
           6870      1.77577e+8 
           6890      1.75619e+8 
           6910      1.73689e+8 
           6930      1.71849e+8 
           6950      1.69987e+8 
           6970      1.68153e+8 
           6990      1.66344e+8 
           7010       1.6456e+8 
           7030      1.62794e+8 
           7050      1.61061e+8 
           7070      1.56918e+8 
           7090      1.57652e+8 
           7110      1.55977e+8 
           7130      1.54332e+8 
           7150      1.52711e+8 
           7170      1.51091e+8 
           7190      1.49523e+8 
           7210      1.47962e+8 
           7230      1.46201e+8 
           7250      1.44865e+8 
           7270      1.43392e+8 
           7290      1.40798e+8 
           7310      1.40431e+8 
           7330      1.38999e+8 
           7350      1.37574e+8 
           7370       1.3617e+8 
           7390      1.34779e+8 
           7410      1.33407e+8 
           7430      1.32048e+8 
           7450      1.30729e+8 
           7470      1.29355e+8 
           7490      1.28101e+8 
           7510      1.26772e+8 
           7530      1.25541e+8 
           7550      1.24282e+8 
           7570      1.23041e+8 
           7590      1.21818e+8 
           7610      1.20593e+8 
           7630      1.19412e+8 
           7650      1.18235e+8 
           7670      1.17068e+8 
           7690      1.15919e+8 
           7710      1.14779e+8 
           7730      1.13656e+8 
           7750      1.12544e+8 
           7770      1.11441e+8 
           7790      1.10367e+8 
           7810      1.09246e+8 
           7830      1.08246e+8 
           7850      1.07292e+8 
           7870      1.06236e+8 
           7890       1.0516e+8 
           7910      1.04231e+8 
           7930      1.03233e+8 
           7950      1.02243e+8 
           7970      1.01173e+8 
           7990      1.00254e+8 
           8010      9.92377e+7 
           8030      9.82533e+7 
           8050      9.73645e+7 
           8070      9.64776e+7 
           8090      9.53968e+7 
           8110      9.45774e+7 
           8130      9.38106e+7 
           8150      9.28403e+7 
           8170      9.20985e+7 
           8190      9.10988e+7 
           8210      9.00519e+7 
           8230      8.94089e+7 
           8250      8.86383e+7 
           8270      8.74279e+7 
           8290      8.69682e+7 
           8310      8.62119e+7 
           8330      8.53858e+7 
           8350      8.42478e+7 
           8370      8.37327e+7 
           8390      8.30878e+7 
           8410      8.23362e+7 
           8430      8.15484e+7 
           8450      8.03081e+7 
           8470      8.00658e+7 
           8490      7.91768e+7 
           8510      7.85294e+7 
           8530      7.77422e+7 
           8550      7.66987e+7 
           8570      7.68951e+7 
