# Kurucz ODFNEW /NOVER (2003)
# teff = 31000 K (value for the effective temperature for the model. Temperatures are given in K)
# logg = 5 log(cm/s2) (value for Log(G) for the model.)
# meta = 0.2  (value for the Metallicity for the model.)
# lh = 1.25  (l/Hp where l is the  mixing length of the convective element and Hp is the pressure scale height)
# vtur = 2 km/s (Microturbulence velocity)
# alpha = 0.4  (Alpha)
#
# column 1: WAVELENGTH (ANGSTROM), Wavelength in Angstrom
# column 2: FLUX (ERG/CM2/S/A), Flux in erg/cm2/s/A
          147.2      7.00314e-8 
            151      2.03706e-7 
          155.2      6.26067e-7 
          158.8      1.56847e-6 
            162      3.43914e-6 
            166      8.82025e-6 
          170.3      2.30659e-5 
          173.4      4.52475e-5 
          176.8      9.19652e-5 
          180.2     0.000182378 
          181.7     0.000244444 
          186.1     0.000564879 
            191      0.00137852 
          193.9       0.0022893 
          198.4      0.00489381 
          201.8      0.00850636 
            205       0.0140858 
          210.5       0.0324465 
          216.2       0.0737026 
          219.8        0.121444 
            223        0.186747 
          226.8        0.321893 
            230         19.0672 
            234         39.6063 
            240         72.8409 
          246.5         138.584 
          252.4         244.338 
          256.8         354.072 
            260         523.141 
            264         718.746 
          268.5          1093.1 
          273.5         1640.64 
          278.5         2346.28 
            284            4461 
            290         6806.66 
            296           10049 
            301         13732.2 
            308         25918.4 
            318         51518.8 
            328         84850.3 
            338          150594 
            348          246353 
            357          889733 
            366       1.9377e+6 
            375      2.55798e+6 
            385      3.99871e+6 
            395      9.25882e+6 
            405      1.20112e+7 
            414      1.84934e+7 
            422      2.17512e+7 
            430      2.72696e+7 
            441      3.53502e+7 
            451       4.2881e+7 
            460      4.89552e+7 
            470      6.16138e+7 
            480      7.47638e+7 
            490      8.96776e+7 
            500      1.08182e+8 
            506      2.28198e+8 
            512       1.7892e+9 
            520      1.69417e+9 
            530      1.68891e+9 
            540      1.57746e+9 
            550      2.10159e+9 
            560      2.48971e+9 
            570      2.61542e+9 
            580      2.37125e+9 
            590      2.74436e+9 
            600      2.41724e+9 
            610      2.91573e+9 
            620      3.23925e+9 
            630      3.23461e+9 
            640      3.01613e+9 
            650       3.1903e+9 
            658      2.98372e+9 
            665      3.32955e+9 
            675      3.43718e+9 
            685      3.01496e+9 
            695      4.01044e+9 
            705      3.44042e+9 
            716      4.31024e+9 
            726      4.17437e+9 
            735      4.27249e+9 
            745      4.47548e+9 
            755      4.50939e+9 
            765      4.73885e+9 
            775      4.90581e+9 
            785      5.10851e+9 
            795      5.06735e+9 
            805      5.00816e+9 
            815      4.99644e+9 
            825      5.32616e+9 
            835        4.303e+9 
            845      5.17098e+9 
            855      5.14133e+9 
            865       5.3411e+9 
            875      5.44852e+9 
            885      5.67144e+9 
            895      5.77258e+9 
            905      5.60891e+9 
            915      5.88431e+9 
            925     1.90442e+10 
            935     3.64351e+10 
            945     6.42784e+10 
            955     7.71944e+10 
            965     9.63159e+10 
            975     2.59103e+10 
            985     8.18595e+10 
            995     7.22351e+10 
           1005     7.82608e+10 
           1015     8.15057e+10 
           1025     4.54962e+10 
           1035     7.26573e+10 
           1045     9.49254e+10 
           1055      8.8345e+10 
           1065      6.7934e+10 
           1075     7.62962e+10 
           1085     7.00768e+10 
           1095     7.72483e+10 
           1105     7.09169e+10 
           1115     6.85748e+10 
           1125     4.89268e+10 
           1135     6.68198e+10 
           1145      6.0606e+10 
           1155     5.93578e+10 
           1165     5.92341e+10 
           1175     3.64744e+10 
           1185     5.42897e+10 
           1195     5.10686e+10 
           1205     4.24929e+10 
           1215     2.91283e+10 
           1225     4.62707e+10 
           1235     5.17216e+10 
           1245     4.98198e+10 
           1255     4.93807e+10 
           1265     5.03734e+10 
           1275     5.15979e+10 
           1285     5.13135e+10 
           1295     4.11004e+10 
           1305     4.33797e+10 
           1315      4.9805e+10 
           1325     4.66935e+10 
           1335     4.56817e+10 
           1345     4.41157e+10 
           1355     4.45483e+10 
           1365     4.10228e+10 
           1375     3.94817e+10 
           1385     3.75507e+10 
           1395     2.39799e+10 
           1405     2.70482e+10 
           1415      3.4852e+10 
           1425     3.22774e+10 
           1435     3.41617e+10 
           1442     3.47512e+10 
           1447     3.43208e+10 
           1455     3.26916e+10 
           1465      3.0883e+10 
           1475     3.12552e+10 
           1485     3.08067e+10 
           1495     2.99357e+10 
           1505     2.73887e+10 
           1512     2.59344e+10 
           1517     2.63759e+10 
           1525     2.62603e+10 
           1535     2.21571e+10 
           1545     2.02883e+10 
           1555     1.98614e+10 
           1565     2.17803e+10 
           1575     2.30172e+10 
           1585     2.28252e+10 
           1595     2.29663e+10 
           1605     2.24529e+10 
           1615     2.13466e+10 
           1625     2.15056e+10 
           1635      2.2103e+10 
           1645     2.21246e+10 
           1655     2.19599e+10 
           1665       2.172e+10 
           1672     2.04308e+10 
           1677     2.32843e+10 
           1685      2.2184e+10 
           1695       2.111e+10 
           1705     2.05651e+10 
           1715     1.97099e+10 
           1725     1.86755e+10 
           1735     1.94483e+10 
           1745     1.92792e+10 
           1755     1.90785e+10 
           1765     1.87626e+10 
           1775     1.77327e+10 
           1785     1.80039e+10 
           1795     1.79851e+10 
           1805     1.80107e+10 
           1815     1.68407e+10 
           1825     1.69734e+10 
           1835     1.65976e+10 
           1845     1.51831e+10 
           1855      1.5542e+10 
           1865      1.5704e+10 
           1875     1.56001e+10 
           1885     1.43176e+10 
           1895     1.35584e+10 
           1905     1.43237e+10 
           1915     1.36352e+10 
           1925     1.27843e+10 
           1935     1.36395e+10 
           1945     1.39717e+10 
           1955     1.24984e+10 
           1967     1.32792e+10 
           1976     1.39265e+10 
           1984     1.29129e+10 
           1995     1.27339e+10 
           2005      1.2954e+10 
           2015     1.29009e+10 
           2025     1.29759e+10 
           2035     1.21209e+10 
           2045     1.21243e+10 
           2055     1.08567e+10 
           2065     1.07102e+10 
           2074     1.09713e+10 
           2078     1.04432e+10 
           2085     1.07345e+10 
           2095     1.05087e+10 
           2105     1.11785e+10 
           2115     1.12735e+10 
           2125     1.11819e+10 
           2135     1.09955e+10 
           2145     1.06353e+10 
           2155     1.08191e+10 
           2165     1.05466e+10 
           2175     1.04873e+10 
           2185     1.02369e+10 
           2195     1.03064e+10 
           2205     1.01938e+10 
           2215      9.93227e+9 
           2225      9.79449e+9 
           2235      9.62333e+9 
           2245      9.58562e+9 
           2255       9.2778e+9 
           2265      9.32089e+9 
           2275      9.18672e+9 
           2285      8.94847e+9 
           2295      8.07386e+9 
           2305      8.63148e+9 
           2315      8.50576e+9 
           2325       8.4425e+9 
           2335      8.27568e+9 
           2345       8.2902e+9 
           2355      8.15134e+9 
           2365      8.04753e+9 
           2375      7.84632e+9 
           2385      7.67072e+9 
           2395      7.60286e+9 
           2405       7.5567e+9 
           2415      7.40769e+9 
           2425      7.36658e+9 
           2435      7.18485e+9 
           2445      7.13754e+9 
           2455      7.06138e+9 
           2465      6.98064e+9 
           2475      6.85608e+9 
           2485      6.65582e+9 
           2495      5.07884e+9 
           2505      6.33143e+9 
           2513      6.15875e+9 
           2518      6.23651e+9 
           2525      6.39343e+9 
           2535      6.36068e+9 
           2545      6.10547e+9 
           2555       6.1201e+9 
           2565      6.00719e+9 
           2575      6.00324e+9 
           2585      5.94335e+9 
           2595      5.86239e+9 
           2605      5.81303e+9 
           2615       5.7097e+9 
           2625      5.66082e+9 
           2635      5.58483e+9 
           2645      5.49745e+9 
           2655      5.43207e+9 
           2665      5.24535e+9 
           2675      5.20468e+9 
           2685      5.21615e+9 
           2695      5.03871e+9 
           2705      4.95683e+9 
           2715      4.93597e+9 
           2725      4.88875e+9 
           2735      4.82023e+9 
           2745      4.78172e+9 
           2755      4.73898e+9 
           2765      4.65268e+9 
           2775      4.68095e+9 
           2785      4.58799e+9 
           2795      4.39584e+9 
           2805      4.44523e+9 
           2815      4.45492e+9 
           2825      4.37505e+9 
           2835      4.24422e+9 
           2845      4.29095e+9 
           2855      4.20183e+9 
           2865      4.16645e+9 
           2875      4.10734e+9 
           2885      4.06063e+9 
           2895      4.00084e+9 
           2910      3.88497e+9 
           2930      3.85962e+9 
           2950        3.735e+9 
           2970      3.67282e+9 
           2990      3.56587e+9 
           3010      3.41793e+9 
           3030      3.36955e+9 
           3050      3.33239e+9 
           3070      3.29259e+9 
           3090      3.13971e+9 
           3110       3.1386e+9 
           3130      3.03802e+9 
           3150      2.99216e+9 
           3170      2.91291e+9 
           3190      2.85295e+9 
           3210      2.80508e+9 
           3230      2.72907e+9 
           3250      2.69266e+9 
           3270      2.61814e+9 
           3290       2.5696e+9 
           3310      2.51512e+9 
           3330      2.45259e+9 
           3350      2.40654e+9 
           3370      2.35086e+9 
           3390      2.32241e+9 
           3410      2.27241e+9 
           3430       2.2327e+9 
           3450      2.17378e+9 
           3470      2.13212e+9 
           3490      2.08703e+9 
           3510       2.0501e+9 
           3530      2.02098e+9 
           3550      1.97648e+9 
           3570      1.94405e+9 
           3590      1.88615e+9 
           3610      1.86293e+9 
           3630      1.82073e+9 
           3640      1.81563e+9 
           3650      1.78209e+9 
           3670      1.75964e+9 
           3690      1.72828e+9 
           3710      1.65643e+9 
           3730      1.61879e+9 
           3750      1.59096e+9 
           3770      1.53033e+9 
           3790       1.5715e+9 
           3810      1.61521e+9 
           3830      1.42996e+9 
           3850      1.62632e+9 
           3870      1.60274e+9 
           3890      1.33475e+9 
           3910      1.62275e+9 
           3930      1.58427e+9 
           3950      1.53222e+9 
           3970      1.23374e+9 
           3990      1.49425e+9 
           4010      1.49526e+9 
           4030      1.41027e+9 
           4050      1.44821e+9 
           4070      1.36124e+9 
           4090      1.25195e+9 
           4110      1.12788e+9 
           4130      1.31137e+9 
           4150      1.30456e+9 
           4170      1.30824e+9 
           4190      1.28507e+9 
           4210      1.27257e+9 
           4230      1.24461e+9 
           4250      1.19748e+9 
           4270      1.16782e+9 
           4290      1.14416e+9 
           4310      1.10329e+9 
           4330      1.01096e+9 
           4350      9.31804e+8 
           4370       1.0545e+9 
           4390      1.04575e+9 
           4410      1.04204e+9 
           4430      1.03939e+9 
           4450      1.01569e+9 
           4470      9.64406e+8 
           4490      9.85378e+8 
           4510      9.78417e+8 
           4530      9.66933e+8 
           4550      9.50536e+8 
           4570      9.35289e+8 
           4590       9.1666e+8 
           4610      8.92043e+8 
           4630      8.76023e+8 
           4650      8.39215e+8 
           4670      8.51821e+8 
           4690      8.42071e+8 
           4710      8.07934e+8 
           4730      8.23427e+8 
           4750      8.07925e+8 
           4770      8.06347e+8 
           4790      7.92074e+8 
           4810      7.72393e+8 
           4830      7.51847e+8 
           4850      6.93208e+8 
           4870      6.22987e+8 
           4890      7.18811e+8 
           4910      7.14186e+8 
           4930      6.88656e+8 
           4950      6.91159e+8 
           4970      6.90869e+8 
           4990      6.79578e+8 
           5010      6.49953e+8 
           5030      6.55084e+8 
           5050      6.42992e+8 
           5070      6.40772e+8 
           5090      6.28273e+8 
           5110      6.18387e+8 
           5130       6.0739e+8 
           5150      5.99557e+8 
           5170      5.91939e+8 
           5190      5.85078e+8 
           5210      5.76001e+8 
           5230      5.69015e+8 
           5250      5.60519e+8 
           5270      5.51226e+8 
           5290      5.45195e+8 
           5310      5.37101e+8 
           5330      5.29829e+8 
           5350      5.21768e+8 
           5370       5.1525e+8 
           5390      5.06998e+8 
           5410      4.99691e+8 
           5430      4.93998e+8 
           5450      4.86371e+8 
           5470      4.79837e+8 
           5490      4.73598e+8 
           5510       4.6782e+8 
           5530      4.60698e+8 
           5550      4.55329e+8 
           5570      4.49077e+8 
           5590      4.42808e+8 
           5610      4.36999e+8 
           5630      4.31558e+8 
           5650       4.2459e+8 
           5670      4.17475e+8 
           5690       4.0946e+8 
           5710      4.06054e+8 
           5730      4.01997e+8 
           5750      3.94966e+8 
           5770      3.92176e+8 
           5790      3.86718e+8 
           5810      3.81706e+8 
           5830      3.75844e+8 
           5850      3.71737e+8 
           5870      3.55684e+8 
           5890       3.5931e+8 
           5910      3.56624e+8 
           5930      3.52379e+8 
           5950      3.47769e+8 
           5970      3.45284e+8 
           5990       3.3957e+8 
           6010      3.36354e+8 
           6030      3.31505e+8 
           6050      3.27753e+8 
           6070      3.24124e+8 
           6090       3.2015e+8 
           6110       3.1611e+8 
           6130      3.12426e+8 
           6150      3.07091e+8 
           6170      3.03797e+8 
           6190      3.00873e+8 
           6210      2.97503e+8 
           6230      2.93955e+8 
           6250      2.89743e+8 
           6270      2.86575e+8 
           6290      2.83337e+8 
           6310      2.79556e+8 
           6330      2.76655e+8 
           6350      2.72654e+8 
           6370      2.70174e+8 
           6390      2.66843e+8 
           6410      2.63659e+8 
           6430      2.60791e+8 
           6450      2.57628e+8 
           6470      2.53283e+8 
           6490      2.50625e+8 
           6510       2.4754e+8 
           6530      2.43075e+8 
           6550        2.316e+8 
           6570       2.0531e+8 
           6590       2.3284e+8 
           6610      2.33468e+8 
           6630      2.31684e+8 
           6650      2.28836e+8 
           6670      2.23757e+8 
           6690      2.21394e+8 
           6710      2.21373e+8 
           6730      2.18288e+8 
           6750      2.16765e+8 
           6770      2.14409e+8 
           6790      2.10574e+8 
           6810      2.09363e+8 
           6830      2.06693e+8 
           6850      2.04886e+8 
           6870      2.02537e+8 
           6890      1.99839e+8 
           6910       1.9702e+8 
           6930       1.9608e+8 
           6950       1.9401e+8 
           6970      1.91905e+8 
           6990      1.89737e+8 
           7010      1.87621e+8 
           7030      1.85487e+8 
           7050      1.83557e+8 
           7070      1.78699e+8 
           7090      1.79716e+8 
           7110      1.77082e+8 
           7130      1.75304e+8 
           7150      1.73971e+8 
           7170      1.72188e+8 
           7190      1.70437e+8 
           7210      1.68638e+8 
           7230      1.64816e+8 
           7250      1.64582e+8 
           7270      1.63364e+8 
           7290      1.60321e+8 
           7310      1.59931e+8 
           7330      1.58239e+8 
           7350      1.56619e+8 
           7370      1.55056e+8 
           7390      1.53459e+8 
           7410      1.51884e+8 
           7430      1.50283e+8 
           7450       1.4873e+8 
           7470      1.46085e+8 
           7490      1.45474e+8 
           7510      1.44206e+8 
           7530      1.42577e+8 
           7550       1.4138e+8 
           7570      1.39956e+8 
           7590      1.38481e+8 
           7610      1.36713e+8 
           7630      1.35726e+8 
           7650      1.34328e+8 
           7670      1.33084e+8 
           7690      1.31673e+8 
           7710      1.30401e+8 
           7730      1.28901e+8 
           7750      1.27886e+8 
           7770      1.26342e+8 
           7790      1.25415e+8 
           7810      1.24143e+8 
           7830      1.22982e+8 
           7850      1.21805e+8 
           7870      1.20208e+8 
           7890      1.18873e+8 
           7910      1.18194e+8 
           7930      1.17018e+8 
           7950      1.15935e+8 
           7970      1.14785e+8 
           7990      1.13691e+8 
           8010       1.1266e+8 
           8030      1.11533e+8 
           8050      1.10526e+8 
           8070      1.09493e+8 
           8090      1.08314e+8 
           8110      1.06262e+8 
           8130      1.06384e+8 
           8150      1.05352e+8 
           8170      1.04459e+8 
           8190      1.02568e+8 
           8210      1.01918e+8 
           8230      1.00828e+8 
           8250      1.00445e+8 
           8270      9.82793e+7 
           8290      9.84251e+7 
           8310      9.77501e+7 
           8330       9.6836e+7 
           8350      9.55298e+7 
           8370      9.48049e+7 
           8390      9.42411e+7 
           8410      9.32554e+7 
           8430      9.25325e+7 
           8450      9.10714e+7 
           8470      9.08834e+7 
           8490      8.98547e+7 
           8510      8.90426e+7 
           8530      8.82166e+7 
           8550      8.73817e+7 
           8570      8.69179e+7 
