# Kurucz ODFNEW /NOVER (2003)
# teff = 9250 K (value for the effective temperature for the model. Temperatures are given in K)
# logg = 3 log(cm/s2) (value for Log(G) for the model.)
# meta = -1.5  (value for the Metallicity for the model.)
# lh = 1.25  (l/Hp where l is the  mixing length of the convective element and Hp is the pressure scale height)
# vtur = 2 km/s (Microturbulence velocity)
# alpha = 0.4  (Alpha)
#
# column 1: WAVELENGTH (ANGSTROM), Wavelength in Angstrom
# column 2: FLUX (ERG/CM2/S/A), Flux in erg/cm2/s/A
          273.5     1.37804e-23 
          278.5     1.08484e-22 
            284     5.33361e-22 
            290     2.71756e-21 
            296     1.28628e-20 
            301     4.47829e-20 
            308     2.39372e-19 
            318     2.30142e-18 
            328     1.92129e-17 
            338     1.40949e-16 
            348     9.19706e-16 
            357     4.53439e-15 
            366      2.0624e-14 
            375     8.69887e-14 
            385     3.96872e-13 
            395     1.67183e-12 
            405     6.54399e-12 
            414     2.10793e-11 
            422     5.70814e-11 
            430     1.48707e-10 
            441     5.23095e-10 
            451      1.55223e-9 
            460      3.96064e-9 
            470      1.07326e-8 
            480       2.7841e-8 
            490      6.93458e-8 
            500      1.66198e-7 
            506      3.11258e-7 
            512      5.35309e-7 
            520      1.01133e-6 
            530        2.185e-6 
            540      4.54866e-6 
            550      9.26655e-6 
            560      1.83199e-5 
            570      3.53122e-5 
            580      6.62054e-5 
            590      0.00012225 
            600     0.000220073 
            610      0.00038814 
            620     0.000671341 
            630      0.00113987 
            640      0.00190149 
            650      0.00311932 
            658      0.00458108 
            665      0.00636034 
            675       0.0100362 
            685       0.0156103 
            695       0.0239511 
            705       0.0362696 
            716       0.0564305 
            726       0.0832902 
            735        0.117086 
            745        0.169161 
            755        0.241843 
            765        0.342235 
            775        0.479611 
            785        0.665883 
            795        0.916036 
            805         1.24955 
            815         1.69023 
            825         2.26804 
            835         3.01951 
            845         3.99161 
            855         5.23796 
            865         6.82592 
            875         8.83583 
            885         11.3645 
            895          14.526 
            905         18.4532 
            915         98.3598 
            925         638.607 
            935         1106.67 
            945         2068.33 
            955         3403.36 
            965         4501.05 
            975          3032.1 
            985         11395.9 
            995         60925.9 
           1005         33989.9 
           1015         9435.19 
           1025         5341.71 
           1035         12554.3 
           1045         60378.8 
           1055          389955 
           1065          726605 
           1075      1.14914e+6 
           1085      1.42749e+6 
           1095      1.43314e+6 
           1105      7.00622e+6 
           1115      2.45069e+7 
           1125      2.70168e+7 
           1135      2.76196e+7 
           1145      2.26467e+7 
           1155      1.63736e+7 
           1165      1.07002e+7 
           1175      3.94705e+6 
           1185      5.76781e+6 
           1195         51485.5 
           1205         36618.9 
           1215         10943.4 
           1225         39743.5 
           1235         79630.1 
           1245          277827 
           1255      3.11664e+6 
           1265      7.83299e+6 
           1275      1.90686e+7 
           1285       3.2142e+7 
           1295      3.76836e+7 
           1305      2.99897e+7 
           1315      4.91536e+7 
           1325      5.67253e+7 
           1335      5.98569e+7 
           1345      6.80144e+7 
           1355      6.56641e+7 
           1365      6.29646e+7 
           1375      6.60533e+7 
           1385      6.64247e+7 
           1395       6.7129e+7 
           1405      7.30376e+7 
           1415      7.44173e+7 
           1425      7.69757e+7 
           1435      7.23648e+7 
           1442      7.87225e+7 
           1447      8.15656e+7 
           1455      8.27709e+7 
           1465      7.94401e+7 
           1475      7.77086e+7 
           1485      7.87139e+7 
           1495       8.1376e+7 
           1505      8.24255e+7 
           1512      8.07445e+7 
           1517      8.18567e+7 
           1525      7.81216e+7 
           1535      7.62804e+7 
           1545      8.07711e+7 
           1555      7.51145e+7 
           1565       6.8468e+7 
           1575      7.38371e+7 
           1585      7.73006e+7 
           1595      8.03933e+7 
           1605      7.65999e+7 
           1615      7.67563e+7 
           1625       7.2021e+7 
           1635      7.38457e+7 
           1645      7.56946e+7 
           1655      6.77543e+7 
           1665      7.51685e+7 
           1672      6.60951e+7 
           1677      7.14711e+7 
           1685      7.51648e+7 
           1695       7.1262e+7 
           1705      6.99555e+7 
           1715      7.16653e+7 
           1725      7.04684e+7 
           1735       7.2642e+7 
           1745      7.09817e+7 
           1755      7.33173e+7 
           1765      6.79878e+7 
           1775      7.20379e+7 
           1785      7.09741e+7 
           1795      7.36756e+7 
           1805      7.08785e+7 
           1815      7.03157e+7 
           1825      6.83935e+7 
           1835      6.83158e+7 
           1845      6.52941e+7 
           1855      6.69382e+7 
           1865      6.69588e+7 
           1875      6.80821e+7 
           1885      6.83011e+7 
           1895      6.70041e+7 
           1905       6.4709e+7 
           1915      6.57104e+7 
           1925      6.64203e+7 
           1935      6.52636e+7 
           1945      6.71815e+7 
           1955      6.65669e+7 
           1967      6.66335e+7 
           1976      6.52174e+7 
           1984      6.45787e+7 
           1995      6.41837e+7 
           2005      6.31805e+7 
           2015      6.10825e+7 
           2025      6.12809e+7 
           2035      6.23676e+7 
           2045       6.2351e+7 
           2055      6.00738e+7 
           2065      6.02046e+7 
           2074      6.12203e+7 
           2078      6.20736e+7 
           2085      6.19071e+7 
           2095         6.06e+7 
           2105      6.04039e+7 
           2115      5.98728e+7 
           2125      5.97453e+7 
           2135      5.60562e+7 
           2145      5.91006e+7 
           2155      5.84203e+7 
           2165       5.6747e+7 
           2175      5.65027e+7 
           2185      5.63876e+7 
           2195      5.83677e+7 
           2205      5.64874e+7 
           2215      5.37256e+7 
           2225      5.36136e+7 
           2235      5.67173e+7 
           2245      5.40761e+7 
           2255      5.28841e+7 
           2265       5.2463e+7 
           2275       5.4784e+7 
           2285      5.52162e+7 
           2295      5.32318e+7 
           2305      5.31737e+7 
           2315      5.25536e+7 
           2325      5.28162e+7 
           2335      5.17788e+7 
           2345      4.87026e+7 
           2355      5.15572e+7 
           2365      4.90368e+7 
           2375      5.06204e+7 
           2385        4.679e+7 
           2395      4.95716e+7 
           2405      4.84366e+7 
           2415      4.88948e+7 
           2425      4.99972e+7 
           2435      4.83884e+7 
           2445      4.98846e+7 
           2455      4.90828e+7 
           2465      4.84299e+7 
           2475      4.72386e+7 
           2485      4.89602e+7 
           2495      4.78744e+7 
           2505      4.97587e+7 
           2513      4.79606e+7 
           2518      4.78416e+7 
           2525      4.58058e+7 
           2535      4.55354e+7 
           2545      4.58722e+7 
           2555      4.74869e+7 
           2565      4.72147e+7 
           2575      4.85947e+7 
           2585      4.87584e+7 
           2595      4.85299e+7 
           2605      4.73469e+7 
           2615      4.70588e+7 
           2625      4.74549e+7 
           2635      4.77855e+7 
           2645      5.01464e+7 
           2655      4.97298e+7 
           2665      4.81272e+7 
           2675        4.883e+7 
           2685      4.91515e+7 
           2695      4.80311e+7 
           2705      4.81128e+7 
           2715       4.7043e+7 
           2725      4.70667e+7 
           2735      4.83428e+7 
           2745      4.50824e+7 
           2755      4.51796e+7 
           2765      4.62612e+7 
           2775      4.75511e+7 
           2785      4.71092e+7 
           2795      4.07867e+7 
           2805      4.35737e+7 
           2815      4.77602e+7 
           2825      4.74415e+7 
           2835      4.65703e+7 
           2845      4.58725e+7 
           2855      4.50683e+7 
           2865      4.58227e+7 
           2875      4.54703e+7 
           2885      4.60455e+7 
           2895      4.60291e+7 
           2910      4.70862e+7 
           2930      4.59541e+7 
           2950      4.58049e+7 
           2970      4.58478e+7 
           2990      4.57169e+7 
           3010      4.59513e+7 
           3030      4.58104e+7 
           3050      4.53938e+7 
           3070      4.47763e+7 
           3090      4.49758e+7 
           3110      4.45862e+7 
           3130      4.42797e+7 
           3150      4.41824e+7 
           3170      4.39903e+7 
           3190      4.31998e+7 
           3210      4.34346e+7 
           3230      4.28117e+7 
           3250      4.29463e+7 
           3270      4.30179e+7 
           3290      4.30151e+7 
           3310      4.29095e+7 
           3330      4.23379e+7 
           3350      4.18439e+7 
           3370      4.18795e+7 
           3390      4.16031e+7 
           3410      4.18228e+7 
           3430      4.16087e+7 
           3450      4.14315e+7 
           3470      4.11493e+7 
           3490      4.09945e+7 
           3510      4.08895e+7 
           3530      4.07721e+7 
           3550       4.0595e+7 
           3570      4.03099e+7 
           3590      4.01134e+7 
           3610       3.9939e+7 
           3630       3.9726e+7 
           3640      3.95962e+7 
           3650      3.99337e+7 
           3670      3.94997e+7 
           3690      3.82537e+7 
           3710      4.36558e+7 
           3730      4.98419e+7 
           3750      7.15873e+7 
           3770      7.73105e+7 
           3790      9.51521e+7 
           3810      1.09312e+8 
           3830      8.63872e+7 
           3850      1.18052e+8 
           3870      1.29284e+8 
           3890      7.49545e+7 
           3910      1.26446e+8 
           3930      1.27935e+8 
           3950      1.24656e+8 
           3970      7.10534e+7 
           3990      1.19277e+8 
           4010      1.24608e+8 
           4030      1.23177e+8 
           4050      1.21784e+8 
           4070      1.18614e+8 
           4090      9.84202e+7 
           4110      7.51648e+7 
           4130      1.12648e+8 
           4150      1.13845e+8 
           4170      1.12487e+8 
           4190      1.11381e+8 
           4210       1.0997e+8 
           4230      1.08257e+8 
           4250      1.06938e+8 
           4270      1.05374e+8 
           4290       1.0359e+8 
           4310      1.00347e+8 
           4330      7.99859e+7 
           4350      6.77227e+7 
           4370      9.65629e+7 
           4390      9.66371e+7 
           4410       9.6026e+7 
           4430       9.5182e+7 
           4450      9.39593e+7 
           4470      9.26358e+7 
           4490      9.08182e+7 
           4510      9.03239e+7 
           4530      8.91737e+7 
           4550      8.77255e+7 
           4570      8.70117e+7 
           4590      8.59081e+7 
           4610      8.51502e+7 
           4630      8.38907e+7 
           4650      8.30573e+7 
           4670      8.20296e+7 
           4690      8.09958e+7 
           4710      7.97218e+7 
           4730      7.90743e+7 
           4750      7.81293e+7 
           4770      7.71526e+7 
           4790      7.60483e+7 
           4810      7.48505e+7 
           4830      7.28141e+7 
           4850      5.97658e+7 
           4870      4.81187e+7 
           4890      6.94013e+7 
           4910      7.04122e+7 
           4930      6.97584e+7 
           4950      6.92865e+7 
           4970      6.85485e+7 
           4990      6.77323e+7 
           5010      6.67469e+7 
           5030      6.61546e+7 
           5050      6.52461e+7 
           5070      6.46708e+7 
           5090      6.39367e+7 
           5110      6.32035e+7 
           5130      6.24797e+7 
           5150      6.17681e+7 
           5170      6.06893e+7 
           5190       6.0147e+7 
           5210      5.97013e+7 
           5230      5.89385e+7 
           5250      5.83905e+7 
           5270      5.76348e+7 
           5290      5.71016e+7 
           5310       5.6405e+7 
           5330      5.58008e+7 
           5350      5.52515e+7 
           5370      5.46316e+7 
           5390      5.40376e+7 
           5410      5.34342e+7 
           5430      5.28611e+7 
           5450      5.23102e+7 
           5470      5.17421e+7 
           5490      5.11883e+7 
           5510      5.06399e+7 
           5530      5.00858e+7 
           5550      4.95738e+7 
           5570      4.90448e+7 
           5590      4.85257e+7 
           5610      4.80163e+7 
           5630      4.75141e+7 
           5650      4.70108e+7 
           5670      4.65192e+7 
           5690       4.6038e+7 
           5710      4.55589e+7 
           5730      4.50888e+7 
           5750      4.46207e+7 
           5770      4.41637e+7 
           5790      4.37074e+7 
           5810      4.32619e+7 
           5830      4.28193e+7 
           5850      4.23828e+7 
           5870      4.19097e+7 
           5890      4.14953e+7 
           5910      4.11081e+7 
           5930      4.06942e+7 
           5950      4.02774e+7 
           5970      3.98801e+7 
           5990      3.94714e+7 
           6010      3.90882e+7 
           6030      3.87008e+7 
           6050      3.83167e+7 
           6070      3.79409e+7 
           6090      3.75672e+7 
           6110      3.71975e+7 
           6130      3.68329e+7 
           6150      3.64254e+7 
           6170      3.61164e+7 
           6190      3.57693e+7 
           6210      3.54231e+7 
           6230      3.50785e+7 
           6250      3.47232e+7 
           6270      3.44091e+7 
           6290      3.40792e+7 
           6310       3.3751e+7 
           6330      3.34318e+7 
           6350      3.30281e+7 
           6370      3.27551e+7 
           6390      3.24886e+7 
           6410      3.21789e+7 
           6430      3.18779e+7 
           6450      3.15501e+7 
           6470      3.12599e+7 
           6490      3.08914e+7 
           6510      3.05019e+7 
           6530      2.98382e+7 
           6550      2.65759e+7 
           6570      2.12833e+7 
           6590      2.84455e+7 
           6610      2.90246e+7 
           6630      2.89252e+7 
           6650      2.87268e+7 
           6670      2.85116e+7 
           6690      2.82538e+7 
           6710      2.80003e+7 
           6730      2.77418e+7 
           6750      2.74949e+7 
           6770      2.72497e+7 
           6790      2.70044e+7 
           6810      2.67624e+7 
           6830      2.65219e+7 
           6850      2.62862e+7 
           6870      2.60527e+7 
           6890      2.58215e+7 
           6910      2.55926e+7 
           6930      2.53658e+7 
           6950      2.51429e+7 
           6970       2.4922e+7 
           6990      2.47033e+7 
           7010      2.44805e+7 
           7030      2.42728e+7 
           7050       2.4061e+7 
           7070      2.38512e+7 
           7090      2.36463e+7 
           7110      2.34338e+7 
           7130      2.32387e+7 
           7150      2.30367e+7 
           7170      2.28417e+7 
           7190      2.26456e+7 
           7210       2.2452e+7 
           7230      2.22595e+7 
           7250      2.20694e+7 
           7270       2.1884e+7 
           7290      2.16975e+7 
           7310      2.15141e+7 
           7330      2.13337e+7 
           7350       2.1155e+7 
           7370      2.09779e+7 
           7390      2.08018e+7 
           7410      2.06272e+7 
           7430      2.04515e+7 
           7450      2.02841e+7 
           7470      2.01128e+7 
           7490      1.99492e+7 
           7510      1.97856e+7 
           7530      1.96235e+7 
           7550      1.94628e+7 
           7570      1.93023e+7 
           7590      1.91451e+7 
           7610      1.89887e+7 
           7630      1.88336e+7 
           7650      1.86799e+7 
           7670      1.85288e+7 
           7690       1.8379e+7 
           7710      1.82293e+7 
           7730       1.8084e+7 
           7750      1.79381e+7 
           7770      1.76138e+7 
           7790      1.76519e+7 
           7810       1.7511e+7 
           7830      1.73707e+7 
           7850      1.72315e+7 
           7870       1.7082e+7 
           7890      1.69326e+7 
           7910       1.6826e+7 
           7930      1.66927e+7 
           7950      1.65546e+7 
           7970      1.64325e+7 
           7990      1.62742e+7 
           8010      1.61754e+7 
           8030      1.60493e+7 
           8050      1.59243e+7 
           8070      1.58004e+7 
           8090       1.5678e+7 
           8110      1.55561e+7 
           8130      1.54364e+7 
           8150       1.5317e+7 
           8170      1.51992e+7 
           8190      1.50757e+7 
           8210      1.50196e+7 
           8230      1.49095e+7 
           8250      1.48046e+7 
           8270      1.47193e+7 
           8290      1.46149e+7 
           8310      1.45087e+7 
           8330      1.43821e+7 
           8350      1.42635e+7 
           8370      1.41003e+7 
           8390      1.39545e+7 
           8410      1.37747e+7 
           8430      1.37402e+7 
           8450      1.36214e+7 
           8470      1.30714e+7 
           8490      1.38263e+7 
           8510       1.2671e+7 
           8530      1.39574e+7 
           8550      1.20266e+7 
           8570      1.41931e+7 
           8590      1.29303e+7 
           8610       1.2511e+7 
           8630      1.44709e+7 
           8650      1.38537e+7 
           8670      1.11101e+7 
           8690      1.42937e+7 
           8710      1.47635e+7 
           8730      1.41932e+7 
           8750       1.0778e+7 
           8770      1.34219e+7 
           8790      1.45228e+7 
           8810      1.45389e+7 
           8830      1.42552e+7 
           8850      1.27301e+7 
           8870      1.04845e+7 
           8890       1.3561e+7 
           8910      1.39752e+7 
           8930      1.39538e+7 
           8950      1.38863e+7 
           8970      1.37037e+7 
           8990      1.31883e+7 
           9010      1.03501e+7 
           9030       1.1463e+7 
           9050      1.30881e+7 
           9070      1.32131e+7 
           9090      1.31414e+7 
           9110       1.3111e+7 
           9130      1.30283e+7 
           9150      1.29233e+7 
           9170      1.27903e+7 
           9190      1.25679e+7 
