# Kurucz ODFNEW /NOVER (2003)
# teff = 30000 K (value for the effective temperature for the model. Temperatures are given in K)
# logg = 5 log(cm/s2) (value for Log(G) for the model.)
# meta = 0.5  (value for the Metallicity for the model.)
# lh = 1.25  (l/Hp where l is the  mixing length of the convective element and Hp is the pressure scale height)
# vtur = 2 km/s (Microturbulence velocity)
# alpha = 0.4  (Alpha)
#
# column 1: WAVELENGTH (ANGSTROM), Wavelength in Angstrom
# column 2: FLUX (ERG/CM2/S/A), Flux in erg/cm2/s/A
          147.2      1.01324e-8 
            151      3.09103e-8 
          155.2        9.979e-8 
          158.8      2.60062e-7 
            162      5.89426e-7 
            166      1.57194e-6 
          170.3      4.26375e-6 
          173.4      8.61361e-6 
          176.8      1.79879e-5 
          180.2       3.6587e-5 
          181.7      4.95609e-5 
          186.1     0.000118306 
            191     0.000298928 
          193.9     0.000505737 
          198.4      0.00111116 
          201.8      0.00196972 
            205      0.00332042 
          210.5      0.00787846 
          216.2       0.0184196 
          219.8        0.030881 
            223       0.0482129 
          226.8       0.0871766 
            230         1.88756 
            234         3.86664 
            240         7.51889 
          246.5         15.1021 
          252.4         27.8181 
          256.8         42.0264 
            260         62.1826 
            264         87.6149 
          268.5         136.588 
          273.5         212.095 
          278.5         316.024 
            284         591.839 
            290         934.611 
            296         1440.55 
            301         2033.65 
            308         3782.11 
            318         7729.13 
            328         13516.3 
            338         25074.8 
            348         43006.7 
            357          206412 
            366          502537 
            375          681341 
            385      1.10855e+6 
            395      3.34173e+6 
            405      4.43669e+6 
            414      7.75325e+6 
            422      9.60905e+6 
            430      1.25246e+7 
            441      1.66234e+7 
            451      2.01107e+7 
            460      2.31877e+7 
            470      3.02168e+7 
            480      3.76762e+7 
            490      4.61992e+7 
            500      5.57273e+7 
            506      1.12541e+8 
            512      9.96649e+8 
            520      9.50712e+8 
            530      9.61485e+8 
            540      9.08104e+8 
            550      1.30454e+9 
            560      1.58104e+9 
            570      1.67157e+9 
            580      1.51039e+9 
            590      1.80854e+9 
            600       1.5764e+9 
            610      1.96383e+9 
            620      2.16492e+9 
            630      2.15616e+9 
            640      1.91759e+9 
            650       1.9466e+9 
            658      1.91026e+9 
            665      2.21782e+9 
            675      2.32227e+9 
            685      2.00591e+9 
            695      2.89622e+9 
            705      2.44574e+9 
            716      3.16643e+9 
            726      3.03491e+9 
            735      3.16565e+9 
            745       3.3727e+9 
            755       3.4228e+9 
            765      3.63613e+9 
            775      3.80402e+9 
            785      3.98307e+9 
            795      3.92963e+9 
            805      3.89255e+9 
            815        3.879e+9 
            825      4.20204e+9 
            835       3.1761e+9 
            845      4.03255e+9 
            855       3.9781e+9 
            865      4.16921e+9 
            875      4.27394e+9 
            885      4.50603e+9 
            895      4.60136e+9 
            905      4.41919e+9 
            915      4.69323e+9 
            925     1.57028e+10 
            935     3.07136e+10 
            945      5.4137e+10 
            955     6.61902e+10 
            965     8.13353e+10 
            975     1.72643e+10 
            985     6.44019e+10 
            995     5.77942e+10 
           1005     6.46168e+10 
           1015      6.9464e+10 
           1025     3.86689e+10 
           1035     6.03027e+10 
           1045     8.40826e+10 
           1055     7.70061e+10 
           1065     5.51696e+10 
           1075     6.47852e+10 
           1085     6.01788e+10 
           1095     6.68736e+10 
           1105     6.01058e+10 
           1115     5.70901e+10 
           1125     3.73477e+10 
           1135     5.67364e+10 
           1145     5.13015e+10 
           1155     5.03266e+10 
           1165     5.04878e+10 
           1175     2.77835e+10 
           1185     4.62841e+10 
           1195     4.33469e+10 
           1205     3.30982e+10 
           1215     2.51311e+10 
           1225     3.95376e+10 
           1235     4.53861e+10 
           1245     4.34277e+10 
           1255     4.29082e+10 
           1265     4.44643e+10 
           1275     4.59874e+10 
           1285     4.61824e+10 
           1295     3.35075e+10 
           1305     3.63119e+10 
           1315     4.53302e+10 
           1325     4.19426e+10 
           1335     4.12976e+10 
           1345     3.96425e+10 
           1355     4.03132e+10 
           1365     3.62268e+10 
           1375     3.43448e+10 
           1385      3.1814e+10 
           1395     1.79922e+10 
           1405     2.14756e+10 
           1415     2.94915e+10 
           1425     2.78694e+10 
           1435     2.98863e+10 
           1442     3.06096e+10 
           1447     3.02976e+10 
           1455     2.86948e+10 
           1465     2.64683e+10 
           1475     2.72985e+10 
           1485     2.68023e+10 
           1495     2.60674e+10 
           1505     2.31175e+10 
           1512     2.16235e+10 
           1517     2.21704e+10 
           1525     2.23741e+10 
           1535     1.83278e+10 
           1545     1.65699e+10 
           1555      1.6359e+10 
           1565     1.82933e+10 
           1575      1.9588e+10 
           1585     1.95411e+10 
           1595     1.96833e+10 
           1605     1.97796e+10 
           1615     1.87857e+10 
           1625     1.87778e+10 
           1635     1.96959e+10 
           1645     2.00308e+10 
           1655     1.96313e+10 
           1665     1.96272e+10 
           1672     1.82773e+10 
           1677     2.14156e+10 
           1685     2.02853e+10 
           1695     1.91182e+10 
           1705     1.86445e+10 
           1715     1.77015e+10 
           1725     1.66701e+10 
           1735     1.76123e+10 
           1745     1.75039e+10 
           1755     1.73624e+10 
           1765      1.7188e+10 
           1775     1.59044e+10 
           1785     1.63273e+10 
           1795     1.65142e+10 
           1805     1.65954e+10 
           1815     1.51608e+10 
           1825       1.546e+10 
           1835     1.50245e+10 
           1845     1.36403e+10 
           1855     1.41242e+10 
           1865     1.42829e+10 
           1875     1.43485e+10 
           1885     1.29689e+10 
           1895      1.2246e+10 
           1905     1.31268e+10 
           1915      1.2347e+10 
           1925      1.1485e+10 
           1935     1.24422e+10 
           1945     1.28075e+10 
           1955     1.12693e+10 
           1967     1.22597e+10 
           1976     1.29424e+10 
           1984     1.18792e+10 
           1995     1.17874e+10 
           2005     1.21302e+10 
           2015     1.20296e+10 
           2025     1.21362e+10 
           2035     1.12203e+10 
           2045     1.13333e+10 
           2055     1.02188e+10 
           2065     1.01113e+10 
           2074     1.03653e+10 
           2078      9.71817e+9 
           2085     1.01487e+10 
           2095      9.77912e+9 
           2105     1.04941e+10 
           2115     1.06276e+10 
           2125     1.05495e+10 
           2135     1.03633e+10 
           2145      9.95163e+9 
           2155     1.02675e+10 
           2165     1.00186e+10 
           2175      9.96011e+9 
           2185      9.66399e+9 
           2195      9.78725e+9 
           2205      9.74362e+9 
           2215      9.48461e+9 
           2225      9.29301e+9 
           2235      9.14065e+9 
           2245      9.15358e+9 
           2255      8.80809e+9 
           2265      8.91701e+9 
           2275        8.766e+9 
           2285      8.53503e+9 
           2295      7.47161e+9 
           2305      8.23724e+9 
           2315       8.0636e+9 
           2325      8.02087e+9 
           2335      7.83968e+9 
           2345      7.91409e+9 
           2355      7.77366e+9 
           2365      7.68718e+9 
           2375      7.45494e+9 
           2385      7.32898e+9 
           2395      7.25017e+9 
           2405      7.19456e+9 
           2415      7.05824e+9 
           2425      7.03858e+9 
           2435      6.83984e+9 
           2445      6.82118e+9 
           2455      6.77073e+9 
           2465      6.68242e+9 
           2475      6.55412e+9 
           2485      6.27331e+9 
           2495      4.52963e+9 
           2505      5.91556e+9 
           2513      5.82719e+9 
           2518      5.91542e+9 
           2525      6.09267e+9 
           2535      6.08808e+9 
           2545      5.78063e+9 
           2555      5.84771e+9 
           2565      5.70881e+9 
           2575      5.75325e+9 
           2585      5.69642e+9 
           2595      5.62686e+9 
           2605      5.57209e+9 
           2615      5.46333e+9 
           2625      5.43026e+9 
           2635      5.35874e+9 
           2645      5.26865e+9 
           2655      5.22064e+9 
           2665      4.97016e+9 
           2675      4.96318e+9 
           2685      4.99484e+9 
           2695      4.78885e+9 
           2705      4.66016e+9 
           2715      4.67552e+9 
           2725      4.67268e+9 
           2735      4.61228e+9 
           2745      4.55309e+9 
           2755      4.52114e+9 
           2765      4.44409e+9 
           2775      4.50258e+9 
           2785      4.40264e+9 
           2795      4.18457e+9 
           2805      4.25404e+9 
           2815      4.28924e+9 
           2825       4.2205e+9 
           2835      4.05644e+9 
           2845      4.11995e+9 
           2855      4.02236e+9 
           2865      4.00553e+9 
           2875      3.94358e+9 
           2885      3.89099e+9 
           2895      3.82648e+9 
           2910      3.70021e+9 
           2930      3.71323e+9 
           2950      3.59262e+9 
           2970      3.52966e+9 
           2990      3.41766e+9 
           3010      3.24404e+9 
           3030      3.22031e+9 
           3050      3.19863e+9 
           3070      3.17667e+9 
           3090      3.00445e+9 
           3110      3.02674e+9 
           3130      2.91904e+9 
           3150      2.88539e+9 
           3170       2.7959e+9 
           3190       2.7541e+9 
           3210       2.7102e+9 
           3230      2.62872e+9 
           3250      2.60035e+9 
           3270      2.52319e+9 
           3290      2.47935e+9 
           3310      2.42486e+9 
           3330      2.36249e+9 
           3350      2.32171e+9 
           3370      2.26338e+9 
           3390      2.24406e+9 
           3410      2.19472e+9 
           3430      2.16126e+9 
           3450      2.10082e+9 
           3470      2.06125e+9 
           3490      2.01598e+9 
           3510      1.97974e+9 
           3530       1.9574e+9 
           3550      1.91224e+9 
           3570      1.88003e+9 
           3590      1.81982e+9 
           3610      1.79922e+9 
           3630      1.76041e+9 
           3640      1.75627e+9 
           3650      1.72627e+9 
           3670      1.70599e+9 
           3690      1.67552e+9 
           3710      1.59999e+9 
           3730      1.56439e+9 
           3750      1.53826e+9 
           3770      1.47666e+9 
           3790      1.52041e+9 
           3810      1.56437e+9 
           3830      1.37872e+9 
           3850      1.56891e+9 
           3870      1.53651e+9 
           3890      1.28543e+9 
           3910      1.57637e+9 
           3930      1.53103e+9 
           3950       1.4764e+9 
           3970      1.18859e+9 
           3990      1.44725e+9 
           4010      1.44916e+9 
           4030      1.36362e+9 
           4050      1.39534e+9 
           4070      1.29747e+9 
           4090      1.19687e+9 
           4110      1.07978e+9 
           4130      1.26252e+9 
           4150      1.25523e+9 
           4170       1.2658e+9 
           4190      1.24638e+9 
           4210      1.23665e+9 
           4230      1.20448e+9 
           4250       1.1493e+9 
           4270      1.12178e+9 
           4290      1.09544e+9 
           4310      1.04943e+9 
           4330      9.65308e+8 
           4350        8.933e+8 
           4370      1.00499e+9 
           4390       1.0109e+9 
           4410      1.00113e+9 
           4430      1.00334e+9 
           4450      9.79011e+8 
           4470      9.33843e+8 
           4490       9.5191e+8 
           4510      9.48227e+8 
           4530      9.38349e+8 
           4550      9.25496e+8 
           4570      9.09603e+8 
           4590      8.91304e+8 
           4610       8.6118e+8 
           4630      8.45356e+8 
           4650      8.08481e+8 
           4670      8.24442e+8 
           4690       8.1799e+8 
           4710      7.79472e+8 
           4730        7.996e+8 
           4750      7.84849e+8 
           4770      7.88067e+8 
           4790      7.72601e+8 
           4810      7.50573e+8 
           4830      7.30531e+8 
           4850      6.72612e+8 
           4870      6.02671e+8 
           4890       6.9948e+8 
           4910      6.95543e+8 
           4930      6.70893e+8 
           4950      6.72109e+8 
           4970      6.74946e+8 
           4990      6.63102e+8 
           5010       6.2828e+8 
           5030      6.36859e+8 
           5050      6.24822e+8 
           5070       6.2575e+8 
           5090      6.11536e+8 
           5110      6.00814e+8 
           5130      5.87965e+8 
           5150      5.81873e+8 
           5170      5.76435e+8 
           5190      5.70267e+8 
           5210      5.60457e+8 
           5230      5.54622e+8 
           5250      5.46454e+8 
           5270       5.3598e+8 
           5290      5.31692e+8 
           5310      5.23406e+8 
           5330      5.16475e+8 
           5350      5.08053e+8 
           5370      5.02565e+8 
           5390      4.94213e+8 
           5410      4.87412e+8 
           5430      4.81566e+8 
           5450      4.73751e+8 
           5470      4.67334e+8 
           5490      4.61586e+8 
           5510      4.56727e+8 
           5530      4.48871e+8 
           5550      4.44517e+8 
           5570      4.38295e+8 
           5590      4.32355e+8 
           5610      4.26381e+8 
           5630      4.21515e+8 
           5650      4.13343e+8 
           5670      4.05839e+8 
           5690      3.97778e+8 
           5710      3.95285e+8 
           5730      3.92267e+8 
           5750      3.84905e+8 
           5770      3.83282e+8 
           5790      3.77549e+8 
           5810      3.72666e+8 
           5830      3.66356e+8 
           5850       3.6271e+8 
           5870      3.46861e+8 
           5890      3.49331e+8 
           5910      3.46959e+8 
           5930      3.42812e+8 
           5950       3.3816e+8 
           5970      3.37092e+8 
           5990      3.30309e+8 
           6010      3.28094e+8 
           6030      3.22854e+8 
           6050      3.19375e+8 
           6070      3.16159e+8 
           6090      3.12379e+8 
           6110       3.0838e+8 
           6130      3.05008e+8 
           6150      2.98565e+8 
           6170      2.95682e+8 
           6190      2.93529e+8 
           6210      2.90459e+8 
           6230      2.87151e+8 
           6250      2.82317e+8 
           6270      2.79503e+8 
           6290      2.76633e+8 
           6310      2.72545e+8 
           6330      2.70196e+8 
           6350      2.65591e+8 
           6370       2.6387e+8 
           6390      2.60579e+8 
           6410      2.57405e+8 
           6430      2.54841e+8 
           6450       2.5166e+8 
           6470      2.46471e+8 
           6490      2.44176e+8 
           6510      2.41309e+8 
           6530      2.36493e+8 
           6550       2.2548e+8 
           6570      1.98764e+8 
           6590      2.26776e+8 
           6610       2.2776e+8 
           6630      2.26156e+8 
           6650      2.23333e+8 
           6670      2.18261e+8 
           6690      2.16032e+8 
           6710       2.1616e+8 
           6730      2.12848e+8 
           6750      2.11795e+8 
           6770      2.09502e+8 
           6790      2.04854e+8 
           6810      2.04319e+8 
           6830      2.01557e+8 
           6850      2.00117e+8 
           6870      1.97772e+8 
           6890      1.94999e+8 
           6910      1.91923e+8 
           6930      1.91554e+8 
           6950      1.89603e+8 
           6970      1.87555e+8 
           6990       1.8535e+8 
           7010      1.83228e+8 
           7030      1.81112e+8 
           7050      1.79275e+8 
           7070      1.74215e+8 
           7090      1.75137e+8 
           7110      1.72357e+8 
           7130      1.70687e+8 
           7150      1.69557e+8 
           7170      1.68129e+8 
           7190      1.66597e+8 
           7210      1.64833e+8 
           7230      1.60384e+8 
           7250      1.60683e+8 
           7270      1.59679e+8 
           7290      1.56621e+8 
           7310      1.56286e+8 
           7330      1.54593e+8 
           7350      1.53049e+8 
           7370      1.51574e+8 
           7390       1.5001e+8 
           7410      1.48467e+8 
           7430       1.4683e+8 
           7450      1.45316e+8 
           7470      1.42162e+8 
           7490      1.41968e+8 
           7510      1.40899e+8 
           7530      1.39142e+8 
           7550      1.38174e+8 
           7570      1.36794e+8 
           7590      1.35303e+8 
           7610      1.33382e+8 
           7630      1.32606e+8 
           7650      1.31212e+8 
           7670      1.30074e+8 
           7690      1.28653e+8 
           7710      1.27391e+8 
           7730      1.25818e+8 
           7750      1.24988e+8 
           7770      1.23129e+8 
           7790      1.22578e+8 
           7810      1.21352e+8 
           7830      1.20216e+8 
           7850      1.18981e+8 
           7870      1.17246e+8 
           7890      1.15799e+8 
           7910      1.15334e+8 
           7930      1.14184e+8 
           7950       1.1311e+8 
           7970      1.12074e+8 
           7990      1.10936e+8 
           8010      1.09983e+8 
           8030      1.08881e+8 
           8050      1.07957e+8 
           8070      1.06971e+8 
           8090      1.05833e+8 
           8110      1.03415e+8 
           8130      1.03922e+8 
           8150       1.0297e+8 
           8170      1.02088e+8 
           8190       9.9765e+7 
           8210      9.92963e+7 
           8230      9.80522e+7 
           8250        9.807e+7 
           8270      9.54756e+7 
           8290      9.59693e+7 
           8310      9.54533e+7 
           8330      9.46318e+7 
           8350      9.32766e+7 
           8370      9.25195e+7 
           8390      9.20789e+7 
           8410      9.10343e+7 
           8430      9.04332e+7 
           8450      8.88502e+7 
           8470      8.88407e+7 
           8490      8.77693e+7 
           8510      8.69462e+7 
           8530       8.6218e+7 
           8550      8.53667e+7 
           8570      8.49226e+7 
