# Kurucz ODFNEW /NOVER (2003)
# teff = 20000 K (value for the effective temperature for the model. Temperatures are given in K)
# logg = 4 log(cm/s2) (value for Log(G) for the model.)
# meta = -2  (value for the Metallicity for the model.)
# lh = 1.25  (l/Hp where l is the  mixing length of the convective element and Hp is the pressure scale height)
# vtur = 2 km/s (Microturbulence velocity)
# alpha = 0  (Alpha)
#
# column 1: WAVELENGTH (ANGSTROM), Wavelength in Angstrom
# column 2: FLUX (ERG/CM2/S/A), Flux in erg/cm2/s/A
          147.2      1.2503e-20 
            151     8.71049e-20 
          155.2     6.67827e-19 
          158.8     3.52043e-18 
            162     1.45228e-17 
            166     7.91479e-17 
          170.3     4.48665e-16 
          173.4     1.48637e-15 
          176.8     5.26969e-15 
          180.2     1.78085e-14 
          181.7     3.00346e-14 
          186.1     1.32556e-13 
            191     6.38336e-13 
          193.9     1.55793e-12 
          198.4     5.90343e-12 
          201.8     1.55204e-11 
            205     3.74148e-11 
          210.5     1.59202e-10 
          216.2     6.59339e-10 
          219.8      1.55575e-9 
            223       3.2573e-9 
          226.8      7.61761e-9 
            230      1.94646e-8 
            234      4.65697e-8 
            240       1.5249e-7 
          246.5      5.14239e-7 
          252.4      1.46805e-6 
          256.8      3.09079e-6 
            260      5.26295e-6 
            264      9.99498e-6 
          268.5      2.00712e-5 
          273.5      4.23455e-5 
          278.5      8.69328e-5 
            284     0.000185922 
            290     0.000411589 
            296     0.000880423 
            301      0.00162013 
            308      0.00366368 
            318       0.0110697 
            328       0.0310683 
            338       0.0817109 
            348        0.202581 
            357        0.437684 
            366        0.908329 
            375         1.81497 
            385          3.7598 
            395          7.4834 
            405         14.3567 
            414         25.0639 
            422         40.2403 
            430         63.3737 
            441         114.915 
            451         191.994 
            460         298.392 
            470         476.531 
            480         744.678 
            490         1140.51 
            500         1713.67 
            506         11606.3 
            512         33204.4 
            520         43325.3 
            530         64876.9 
            540         74606.9 
            550          111250 
            560          141490 
            570          180202 
            580          189910 
            590          261633 
            600          343546 
            610          422330 
            620          510368 
            630          615837 
            640          728221 
            650          871854 
            658      1.00037e+6 
            665      1.11837e+6 
            675      1.29781e+6 
            685      1.50796e+6 
            695      1.77061e+6 
            705       2.0378e+6 
            716       2.3669e+6 
            726      2.69805e+6 
            735      3.04054e+6 
            745      3.45415e+6 
            755      3.90308e+6 
            765      4.38473e+6 
            775      4.92331e+6 
            785       5.5005e+6 
            795      6.11744e+6 
            805      6.78784e+6 
            815      7.49801e+6 
            825       8.2832e+6 
            835      9.01103e+6 
            845      9.97137e+6 
            855      1.08681e+7 
            865      1.19107e+7 
            875       1.2974e+7 
            885      1.41149e+7 
            895      1.52916e+7 
            905      1.63479e+7 
            915       2.8801e+7 
            925       1.4997e+8 
            935       5.9757e+8 
            945      3.09239e+9 
            955      6.08244e+9 
            965      8.37828e+9 
            975      2.61366e+9 
            985     1.14181e+10 
            995     1.16699e+10 
           1005     1.20136e+10 
           1015      9.79027e+9 
           1025      1.69169e+9 
           1035      8.13544e+9 
           1045     1.19429e+10 
           1055     1.18439e+10 
           1065     1.09183e+10 
           1075     1.14571e+10 
           1085     1.07019e+10 
           1095     1.12306e+10 
           1105     1.06383e+10 
           1115     1.06126e+10 
           1125     1.00354e+10 
           1135     1.02655e+10 
           1145      9.74277e+9 
           1155      9.94022e+9 
           1165      9.82332e+9 
           1175      8.71761e+9 
           1185      9.37783e+9 
           1195      8.39554e+9 
           1205      6.29791e+9 
           1215      1.16786e+9 
           1225      5.90491e+9 
           1235      8.09392e+9 
           1245      8.29739e+9 
           1255       8.1377e+9 
           1265      7.99825e+9 
           1275      8.04199e+9 
           1285      7.90864e+9 
           1295      7.29568e+9 
           1305      7.20841e+9 
           1315      7.48938e+9 
           1325      7.24458e+9 
           1335      6.92401e+9 
           1345      7.05593e+9 
           1355      6.99259e+9 
           1365      6.80821e+9 
           1375      6.69241e+9 
           1385      6.60397e+9 
           1395      6.34914e+9 
           1405      6.31596e+9 
           1415      6.25109e+9 
           1425      6.17145e+9 
           1435      6.08299e+9 
           1442      6.03459e+9 
           1447      5.97604e+9 
           1455       5.8872e+9 
           1465      5.77024e+9 
           1475      5.68256e+9 
           1485        5.574e+9 
           1495      5.48653e+9 
           1505      5.35166e+9 
           1512      5.26218e+9 
           1517      5.25161e+9 
           1525      5.16993e+9 
           1535      4.99391e+9 
           1545      4.99228e+9 
           1555      4.85459e+9 
           1565      4.84166e+9 
           1575      4.80042e+9 
           1585      4.72699e+9 
           1595      4.67087e+9 
           1605      4.53797e+9 
           1615      4.46851e+9 
           1625      4.43451e+9 
           1635      4.38635e+9 
           1645      4.30075e+9 
           1655      4.23408e+9 
           1665      4.21082e+9 
           1672      4.09235e+9 
           1677      4.13604e+9 
           1685      4.08691e+9 
           1695      4.00709e+9 
           1705      3.92757e+9 
           1715      3.84872e+9 
           1725      3.79372e+9 
           1735      3.76514e+9 
           1745      3.69749e+9 
           1755      3.67235e+9 
           1765      3.52818e+9 
           1775      3.53864e+9 
           1785      3.49981e+9 
           1795      3.46818e+9 
           1805      3.42442e+9 
           1815       3.3566e+9 
           1825      3.32161e+9 
           1835      3.27174e+9 
           1845      3.17595e+9 
           1855      3.09198e+9 
           1865      3.07473e+9 
           1875      3.08274e+9 
           1885      2.97654e+9 
           1895      2.89841e+9 
           1905      2.93388e+9 
           1915      2.84692e+9 
           1925      2.80522e+9 
           1935      2.80065e+9 
           1945      2.79334e+9 
           1955      2.69702e+9 
           1967      2.71182e+9 
           1976      2.70426e+9 
           1984      2.64086e+9 
           1995      2.57168e+9 
           2005      2.58367e+9 
           2015      2.56607e+9 
           2025      2.54529e+9 
           2035      2.49414e+9 
           2045       2.4626e+9 
           2055      2.39623e+9 
           2065      2.38412e+9 
           2074      2.39561e+9 
           2078      2.34566e+9 
           2085      2.34484e+9 
           2095      2.29538e+9 
           2105      2.28987e+9 
           2115      2.26784e+9 
           2125      2.25022e+9 
           2135      2.21911e+9 
           2145      2.18504e+9 
           2155      2.16586e+9 
           2165       2.1377e+9 
           2175       2.1106e+9 
           2185      2.08762e+9 
           2195      2.06606e+9 
           2205      2.03861e+9 
           2215       2.0131e+9 
           2225      1.98606e+9 
           2235       1.9663e+9 
           2245      1.94463e+9 
           2255      1.91883e+9 
           2265      1.89987e+9 
           2275       1.8765e+9 
           2285       1.8573e+9 
           2295       1.8247e+9 
           2305      1.81273e+9 
           2315      1.78937e+9 
           2325      1.77081e+9 
           2335      1.74351e+9 
           2345      1.71559e+9 
           2355        1.709e+9 
           2365      1.68259e+9 
           2375      1.66831e+9 
           2385      1.64058e+9 
           2395      1.62631e+9 
           2405      1.60923e+9 
           2415      1.59025e+9 
           2425      1.58056e+9 
           2435      1.56011e+9 
           2445      1.54334e+9 
           2455      1.52954e+9 
           2465      1.50984e+9 
           2475      1.49489e+9 
           2485      1.47874e+9 
           2495      1.45154e+9 
           2505        1.447e+9 
           2513      1.42712e+9 
           2518      1.42692e+9 
           2525      1.41359e+9 
           2535      1.39501e+9 
           2545      1.38163e+9 
           2555      1.37233e+9 
           2565       1.3549e+9 
           2575      1.34394e+9 
           2585      1.32911e+9 
           2595      1.31435e+9 
           2605      1.30761e+9 
           2615      1.29576e+9 
           2625      1.28344e+9 
           2635      1.26677e+9 
           2645      1.25888e+9 
           2655      1.24407e+9 
           2665      1.22791e+9 
           2675      1.21596e+9 
           2685      1.21089e+9 
           2695      1.18957e+9 
           2705      1.18605e+9 
           2715      1.17329e+9 
           2725      1.15216e+9 
           2735      1.15015e+9 
           2745      1.13068e+9 
           2755       1.1209e+9 
           2765      1.10591e+9 
           2775      1.10529e+9 
           2785      1.09373e+9 
           2795      1.06812e+9 
           2805      1.06559e+9 
           2815      1.06236e+9 
           2825      1.04145e+9 
           2835      1.03364e+9 
           2845      1.03072e+9 
           2855      1.02102e+9 
           2865      1.01156e+9 
           2875      1.00153e+9 
           2885      9.92017e+8 
           2895      9.82568e+8 
           2910      9.68461e+8 
           2930      9.49536e+8 
           2950      9.25969e+8 
           2970      9.14693e+8 
           2990      8.97314e+8 
           3010      8.80938e+8 
           3030      8.64833e+8 
           3050      8.48952e+8 
           3070       8.3345e+8 
           3090      8.18277e+8 
           3110      8.03541e+8 
           3130      7.89959e+8 
           3150      7.75822e+8 
           3170      7.61752e+8 
           3190      7.42863e+8 
           3210      7.34988e+8 
           3230      7.22014e+8 
           3250       7.0941e+8 
           3270        6.978e+8 
           3290      6.84991e+8 
           3310      6.74056e+8 
           3330      6.62586e+8 
           3350      6.50402e+8 
           3370      6.40349e+8 
           3390      6.29636e+8 
           3410      6.19097e+8 
           3430      6.06967e+8 
           3450      5.95329e+8 
           3470      5.86891e+8 
           3490      5.77245e+8 
           3510      5.69432e+8 
           3530       5.6076e+8 
           3550      5.51829e+8 
           3570      5.45013e+8 
           3590      5.33871e+8 
           3610      5.26267e+8 
           3630      5.16967e+8 
           3640      5.15438e+8 
           3650      5.08885e+8 
           3670      5.02906e+8 
           3690      4.90525e+8 
           3710      4.76492e+8 
           3730      4.62216e+8 
           3750       5.0836e+8 
           3770      5.17771e+8 
           3790      5.58035e+8 
           3810      5.90939e+8 
           3830      5.04758e+8 
           3850      6.16644e+8 
           3870      6.28373e+8 
           3890      4.75614e+8 
           3910       6.1982e+8 
           3930       6.1426e+8 
           3950      6.01222e+8 
           3970      4.43755e+8 
           3990      5.76331e+8 
           4010      5.76758e+8 
           4030      5.41843e+8 
           4050      5.64893e+8 
           4070      5.52964e+8 
           4090       4.9888e+8 
           4110      4.25056e+8 
           4130      5.18241e+8 
           4150      5.15379e+8 
           4170      5.11791e+8 
           4190      5.05243e+8 
           4210      4.97202e+8 
           4230      4.89227e+8 
           4250      4.81421e+8 
           4270      4.72934e+8 
           4290      4.65321e+8 
           4310      4.54888e+8 
           4330      4.01908e+8 
           4350      3.62166e+8 
           4370       4.3252e+8 
           4390      4.17328e+8 
           4410      4.24186e+8 
           4430      4.15796e+8 
           4450      4.11553e+8 
           4470      3.86121e+8 
           4490      3.98535e+8 
           4510      3.93193e+8 
           4530      3.87251e+8 
           4550      3.81452e+8 
           4570      3.75757e+8 
           4590      3.70201e+8 
           4610      3.64709e+8 
           4630      3.59315e+8 
           4650      3.53966e+8 
           4670      3.48868e+8 
           4690      3.43792e+8 
           4710      3.34375e+8 
           4730      3.33708e+8 
           4750      3.28767e+8 
           4770      3.24343e+8 
           4790      3.19687e+8 
           4810      3.14282e+8 
           4830      3.07696e+8 
           4850      2.77905e+8 
           4870      2.44239e+8 
           4890      2.93306e+8 
           4910      2.92125e+8 
           4930      2.81886e+8 
           4950      2.85393e+8 
           4970      2.81469e+8 
           4990      2.77568e+8 
           5010      2.70284e+8 
           5030       2.6997e+8 
           5050      2.64512e+8 
           5070      2.62678e+8 
           5090       2.5912e+8 
           5110       2.5561e+8 
           5130      2.52161e+8 
           5150      2.48771e+8 
           5170      2.45455e+8 
           5190      2.42182e+8 
           5210      2.38911e+8 
           5230      2.35792e+8 
           5250      2.32687e+8 
           5270      2.29622e+8 
           5290       2.2661e+8 
           5310      2.23651e+8 
           5330      2.20742e+8 
           5350      2.17857e+8 
           5370      2.15062e+8 
           5390      2.12289e+8 
           5410      2.09564e+8 
           5430      2.06847e+8 
           5450      2.04229e+8 
           5470       2.0163e+8 
           5490      1.99076e+8 
           5510      1.96566e+8 
           5530      1.94088e+8 
           5550      1.91652e+8 
           5570      1.89258e+8 
           5590      1.86893e+8 
           5610       1.8457e+8 
           5630      1.82286e+8 
           5650      1.80006e+8 
           5670      1.77801e+8 
           5690      1.75623e+8 
           5710      1.73482e+8 
           5730      1.71366e+8 
           5750      1.69276e+8 
           5770      1.67233e+8 
           5790      1.65204e+8 
           5810       1.6322e+8 
           5830       1.6126e+8 
           5850      1.59322e+8 
           5870      1.52761e+8 
           5890      1.55341e+8 
           5910      1.53709e+8 
           5930      1.51881e+8 
           5950      1.50085e+8 
           5970      1.48331e+8 
           5990      1.46586e+8 
           6010      1.44882e+8 
           6030      1.43187e+8 
           6050      1.41531e+8 
           6070      1.39895e+8 
           6090      1.38277e+8 
           6110      1.36687e+8 
           6130      1.35114e+8 
           6150       1.3357e+8 
           6170      1.32052e+8 
           6190      1.30541e+8 
           6210      1.29067e+8 
           6230      1.27609e+8 
           6250      1.26166e+8 
           6270      1.24749e+8 
           6290      1.23348e+8 
           6310      1.21971e+8 
           6330      1.20619e+8 
           6350      1.19244e+8 
           6370      1.17939e+8 
           6390      1.16648e+8 
           6410      1.15362e+8 
           6430      1.14099e+8 
           6450      1.12849e+8 
           6470      1.11612e+8 
           6490      1.10398e+8 
           6510      1.09009e+8 
           6530      1.07283e+8 
           6550      1.01351e+8 
           6570       8.8874e+7 
           6590      1.03004e+8 
           6610      1.03089e+8 
           6630      1.02331e+8 
           6650      1.01316e+8 
           6670      9.92951e+7 
           6690      9.82646e+7 
           6710      9.81231e+7 
           6730      9.70917e+7 
           6750      9.60707e+7 
           6770      9.50682e+7 
           6790      9.40678e+7 
           6810      9.30855e+7 
           6830      9.21212e+7 
           6850      9.11666e+7 
           6870      9.02214e+7 
           6890      8.92937e+7 
           6910      8.83752e+7 
           6930      8.74657e+7 
           6950      8.65731e+7 
           6970      8.56892e+7 
           6990      8.48141e+7 
           7010      8.39551e+7 
           7030      8.31046e+7 
           7050      8.22623e+7 
           7070      8.02224e+7 
           7090      8.06173e+7 
           7110      7.98067e+7 
           7130      7.90113e+7 
           7150      7.82235e+7 
           7170       7.7436e+7 
           7190      7.66779e+7 
           7210      7.59197e+7 
           7230      7.51183e+7 
           7250      7.44249e+7 
           7270      7.36952e+7 
           7290       7.2462e+7 
           7310      7.22564e+7 
           7330      7.15541e+7 
           7350      7.08584e+7 
           7370      7.01761e+7 
           7390      6.94932e+7 
           7410      6.88236e+7 
           7430      6.81629e+7 
           7450      6.75171e+7 
           7470      6.68697e+7 
           7490      6.62311e+7 
           7510      6.55802e+7 
           7530      6.49765e+7 
           7550      6.43604e+7 
           7570      6.37512e+7 
           7590      6.31495e+7 
           7610      6.25552e+7 
           7630      6.19676e+7 
           7650      6.13871e+7 
           7670      6.08132e+7 
           7690      6.02463e+7 
           7710      5.96851e+7 
           7730       5.9132e+7 
           7750      5.85832e+7 
           7770       5.8028e+7 
           7790      5.75082e+7 
           7810      5.69528e+7 
           7830       5.6457e+7 
           7850       5.5985e+7 
           7870      5.54734e+7 
           7890      5.49444e+7 
           7910      5.44724e+7 
           7930      5.39781e+7 
           7950      5.34857e+7 
           7970       5.2965e+7 
           7990      5.25078e+7 
           8010      5.20128e+7 
           8030      5.15425e+7 
           8050      5.10908e+7 
           8070      5.06377e+7 
           8090      5.01223e+7 
           8110      4.97081e+7 
           8130      4.93014e+7 
           8150      4.88102e+7 
           8170      4.84457e+7 
           8190      4.79757e+7 
           8210      4.74494e+7 
           8230      4.71495e+7 
           8250      4.67585e+7 
           8270      4.61751e+7 
           8290      4.59262e+7 
           8310      4.55467e+7 
           8330      4.51426e+7 
           8350      4.45797e+7 
           8370      4.43013e+7 
           8390      4.39704e+7 
           8410      4.35575e+7 
           8430      4.31216e+7 
           8450      4.25521e+7 
           8470      4.22032e+7 
           8490      4.19853e+7 
           8510      4.12664e+7 
           8530      4.14076e+7 
           8550      3.98887e+7 
           8570      4.12969e+7 
           8590      3.92561e+7 
