# Kurucz ODFNEW /NOVER (2003)
# teff = 9750 K (value for the effective temperature for the model. Temperatures are given in K)
# logg = 4.5 log(cm/s2) (value for Log(G) for the model.)
# meta = -0.5  (value for the Metallicity for the model.)
# lh = 1.25  (l/Hp where l is the  mixing length of the convective element and Hp is the pressure scale height)
# vtur = 2 km/s (Microturbulence velocity)
# alpha = 0  (Alpha)
#
# column 1: WAVELENGTH (ANGSTROM), Wavelength in Angstrom
# column 2: FLUX (ERG/CM2/S/A), Flux in erg/cm2/s/A
          273.5     8.61315e-23 
          278.5     3.74193e-22 
            284     1.66627e-21 
            290     7.92476e-21 
            296     3.53696e-20 
            301     1.17878e-19 
            308     5.96284e-19 
            318     5.35306e-18 
            328     4.21572e-17 
            338     2.93976e-16 
            348     1.83509e-15 
            357     8.73682e-15 
            366      3.8529e-14 
            375     1.58134e-13 
            385     7.02398e-13 
            395     2.88852e-12 
            405     1.10576e-11 
            414     3.49988e-11 
            422     9.34694e-11 
            430     2.40402e-10 
            441     8.31636e-10 
            451      2.43336e-9 
            460      6.14304e-9 
            470      1.64625e-8 
            480      4.22545e-8 
            490      1.04202e-7 
            500      2.47541e-7 
            506      4.31839e-7 
            512      7.18612e-7 
            520      1.34755e-6 
            530       2.8828e-6 
            540      5.97173e-6 
            550      1.20611e-5 
            560       2.3697e-5 
            570      4.54476e-5 
            580       8.5043e-5 
            590     0.000155919 
            600     0.000279523 
            610     0.000491196 
            620     0.000846994 
            630      0.00143383 
            640      0.00238482 
            650      0.00390122 
            658      0.00571928 
            665      0.00792902 
            675       0.0124845 
            685       0.0193798 
            695       0.0296774 
            705        0.044868 
            716       0.0696903 
            726        0.102703 
            735        0.144178 
            745        0.208027 
            755        0.297022 
            765        0.419811 
            775        0.587626 
            785        0.814869 
            795         1.11983 
            805         1.52599 
            815         2.06212 
            825         2.76437 
            835         3.67714 
            845         4.85558 
            855         6.36605 
            865         8.28807 
            875         10.7189 
            885         13.7738 
            895          17.591 
            905         22.3308 
            915         162.292 
            925         1167.23 
            935         2053.98 
            945          3624.9 
            955         5286.05 
            965         7031.53 
            975         5665.06 
            985         10163.9 
            995         11332.4 
           1005           13948 
           1015         15259.7 
           1025         10301.9 
           1035           19500 
           1045         24182.6 
           1055         27739.3 
           1065         30668.8 
           1075         35820.5 
           1085         40459.5 
           1095         44238.9 
           1105         72292.9 
           1115      2.29139e+6 
           1125      4.01994e+6 
           1135      5.56222e+6 
           1145      4.54739e+6 
           1155      3.96829e+6 
           1165      2.64308e+6 
           1175          974060 
           1185          485109 
           1195          153631 
           1205          119124 
           1215         31366.4 
           1225          125763 
           1235          262091 
           1245          479192 
           1255      2.38099e+6 
           1265      6.64222e+6 
           1275      1.82422e+7 
           1285      3.69309e+7 
           1295      4.64648e+7 
           1305      3.40534e+7 
           1315      5.92035e+7 
           1325      7.05853e+7 
           1335       7.3157e+7 
           1345      8.89436e+7 
           1355       8.2627e+7 
           1365      7.76256e+7 
           1375      8.08903e+7 
           1385        7.147e+7 
           1395      7.35078e+7 
           1405      8.89234e+7 
           1415      9.64052e+7 
           1425      1.05786e+8 
           1435      9.49075e+7 
           1442      1.09037e+8 
           1447      1.14855e+8 
           1455      1.17155e+8 
           1465      1.07329e+8 
           1475      1.04924e+8 
           1485      1.07964e+8 
           1495      1.15811e+8 
           1505      1.17788e+8 
           1512      1.09401e+8 
           1517      1.17498e+8 
           1525      1.10779e+8 
           1535      1.10822e+8 
           1545      1.20854e+8 
           1555      9.98884e+7 
           1565      8.47217e+7 
           1575      1.05933e+8 
           1585       1.1686e+8 
           1595      1.23483e+8 
           1605      1.18379e+8 
           1615        1.187e+8 
           1625      1.07176e+8 
           1635      1.12075e+8 
           1645      1.24218e+8 
           1655       9.9514e+7 
           1665      1.22501e+8 
           1672      9.55709e+7 
           1677       1.1491e+8 
           1685      1.25823e+8 
           1695      1.12888e+8 
           1705      1.11928e+8 
           1715      1.14942e+8 
           1725      1.12857e+8 
           1735      1.18563e+8 
           1745      1.14682e+8 
           1755      1.22913e+8 
           1765      1.06844e+8 
           1775      1.18789e+8 
           1785      1.17329e+8 
           1795      1.25143e+8 
           1805      1.18684e+8 
           1815      1.17791e+8 
           1825      1.12699e+8 
           1835      1.10959e+8 
           1845       1.0321e+8 
           1855      1.07659e+8 
           1865      1.08614e+8 
           1875      1.11702e+8 
           1885      1.11241e+8 
           1895      1.10196e+8 
           1905      1.05212e+8 
           1915      1.08666e+8 
           1925      1.09442e+8 
           1935      1.05275e+8 
           1945      1.11415e+8 
           1955      1.09943e+8 
           1967      1.11507e+8 
           1976      1.08651e+8 
           1984      1.06513e+8 
           1995      1.04168e+8 
           2005      1.01969e+8 
           2015      9.88906e+7 
           2025      9.76683e+7 
           2035      1.00895e+8 
           2045      1.03082e+8 
           2055      9.89411e+7 
           2065      9.77996e+7 
           2074      1.01034e+8 
           2078      1.03106e+8 
           2085      1.02085e+8 
           2095      9.86838e+7 
           2105      9.68557e+7 
           2115      9.67758e+7 
           2125       9.7277e+7 
           2135      8.65162e+7 
           2145      9.44316e+7 
           2155      9.40358e+7 
           2165       8.9906e+7 
           2175      8.88104e+7 
           2185      8.92066e+7 
           2195      9.33139e+7 
           2205      8.97188e+7 
           2215      8.34741e+7 
           2225      8.31363e+7 
           2235      9.03657e+7 
           2245      8.30146e+7 
           2255      8.13909e+7 
           2265      8.09896e+7 
           2275      8.53962e+7 
           2285      8.72624e+7 
           2295      8.22406e+7 
           2305      8.16775e+7 
           2315      7.99541e+7 
           2325      7.99159e+7 
           2335      7.77266e+7 
           2345      7.19955e+7 
           2355      7.90476e+7 
           2365      7.25476e+7 
           2375      7.58652e+7 
           2385      6.82365e+7 
           2395      7.34737e+7 
           2405      7.06495e+7 
           2415      7.17774e+7 
           2425      7.46652e+7 
           2435      7.13274e+7 
           2445      7.52321e+7 
           2455      7.27515e+7 
           2465      7.22307e+7 
           2475      6.95325e+7 
           2485      7.25978e+7 
           2495      7.03468e+7 
           2505      7.57658e+7 
           2513      7.04283e+7 
           2518      7.07253e+7 
           2525       6.6747e+7 
           2535      6.59048e+7 
           2545      6.58881e+7 
           2555      6.95573e+7 
           2565      6.93768e+7 
           2575      7.29241e+7 
           2585      7.31164e+7 
           2595       7.2582e+7 
           2605      6.98107e+7 
           2615      6.93109e+7 
           2625      7.15502e+7 
           2635       7.1757e+7 
           2645      7.70419e+7 
           2655      7.61259e+7 
           2665      7.19222e+7 
           2675      7.37757e+7 
           2685      7.40737e+7 
           2695      7.11598e+7 
           2705      7.18909e+7 
           2715      6.92004e+7 
           2725       6.9358e+7 
           2735      7.29161e+7 
           2745      6.52962e+7 
           2755      6.56619e+7 
           2765      6.77107e+7 
           2775      7.05259e+7 
           2785       6.9282e+7 
           2795      5.75605e+7 
           2805      6.27673e+7 
           2815      7.14026e+7 
           2825       7.1285e+7 
           2835      6.91847e+7 
           2845      6.71818e+7 
           2855      6.55981e+7 
           2865      6.83033e+7 
           2875      6.69356e+7 
           2885      6.81562e+7 
           2895      6.67691e+7 
           2910      7.07004e+7 
           2930      6.81983e+7 
           2950      6.78784e+7 
           2970      6.80136e+7 
           2990      6.79117e+7 
           3010      6.84135e+7 
           3030      6.78375e+7 
           3050      6.71694e+7 
           3070       6.6393e+7 
           3090      6.65661e+7 
           3110      6.55102e+7 
           3130      6.50256e+7 
           3150      6.51935e+7 
           3170      6.46696e+7 
           3190      6.27839e+7 
           3210      6.34079e+7 
           3230      6.23074e+7 
           3250      6.25344e+7 
           3270      6.26068e+7 
           3290      6.25893e+7 
           3310      6.24438e+7 
           3330      6.13664e+7 
           3350      6.04043e+7 
           3370      6.03197e+7 
           3390      5.97051e+7 
           3410      6.00889e+7 
           3430      5.97136e+7 
           3450      5.92892e+7 
           3470      5.86859e+7 
           3490       5.8374e+7 
           3510      5.83681e+7 
           3530        5.815e+7 
           3550      5.78613e+7 
           3570      5.70523e+7 
           3590      5.67048e+7 
           3610        5.635e+7 
           3630      5.60453e+7 
           3640       5.5823e+7 
           3650      5.62358e+7 
           3670      5.60525e+7 
           3690      5.44643e+7 
           3710      5.38678e+7 
           3730       5.2769e+7 
           3750      6.28512e+7 
           3770       6.6162e+7 
           3790      8.14222e+7 
           3810      9.69145e+7 
           3830      7.67435e+7 
           3850      1.09164e+8 
           3870      1.26905e+8 
           3890      6.61065e+7 
           3910       1.2734e+8 
           3930      1.39043e+8 
           3950       1.2714e+8 
           3970      6.35025e+7 
           3990      1.19734e+8 
           4010      1.41793e+8 
           4030      1.43061e+8 
           4050      1.40738e+8 
           4070      1.31152e+8 
           4090        9.329e+7 
           4110         7.01e+7 
           4130      1.21746e+8 
           4150      1.31379e+8 
           4170      1.31673e+8 
           4190      1.30576e+8 
           4210      1.29064e+8 
           4230      1.26482e+8 
           4250      1.25019e+8 
           4270      1.22243e+8 
           4290      1.19595e+8 
           4310      1.09887e+8 
           4330      7.60395e+7 
           4350       6.4368e+7 
           4370      1.04649e+8 
           4390      1.10796e+8 
           4410      1.11575e+8 
           4430      1.10948e+8 
           4450      1.10431e+8 
           4470      1.08971e+8 
           4490      1.06665e+8 
           4510      1.06382e+8 
           4530       1.0487e+8 
           4550      1.02853e+8 
           4570      1.02577e+8 
           4590      1.00866e+8 
           4610      1.00431e+8 
           4630      9.84822e+7 
           4650      9.78913e+7 
           4670      9.66107e+7 
           4690      9.47625e+7 
           4710      9.20286e+7 
           4730      9.27692e+7 
           4750      9.15354e+7 
           4770      9.01138e+7 
           4790      8.84433e+7 
           4810      8.57896e+7 
           4830      7.96191e+7 
           4850      5.83708e+7 
           4870      4.73022e+7 
           4890      7.39276e+7 
           4910      8.00945e+7 
           4930      8.04225e+7 
           4950      8.06042e+7 
           4970       8.0091e+7 
           4990      7.91386e+7 
           5010       7.7723e+7 
           5030      7.74114e+7 
           5050      7.62307e+7 
           5070      7.57903e+7 
           5090      7.49108e+7 
           5110      7.40399e+7 
           5130      7.31617e+7 
           5150      7.22295e+7 
           5170      7.06598e+7 
           5190      7.00575e+7 
           5210       6.9783e+7 
           5230      6.86759e+7 
           5250      6.83068e+7 
           5270      6.70554e+7 
           5290      6.67553e+7 
           5310      6.57698e+7 
           5330      6.50344e+7 
           5350      6.45688e+7 
           5370      6.37596e+7 
           5390       6.3085e+7 
           5410      6.22706e+7 
           5430      6.16824e+7 
           5450      6.10694e+7 
           5470      6.03958e+7 
           5490      5.97615e+7 
           5510      5.91175e+7 
           5530      5.84098e+7 
           5550      5.78575e+7 
           5570      5.72096e+7 
           5590        5.659e+7 
           5610      5.60137e+7 
           5630      5.54334e+7 
           5650      5.48221e+7 
           5670      5.42286e+7 
           5690      5.36724e+7 
           5710      5.31099e+7 
           5730      5.25734e+7 
           5750      5.19975e+7 
           5770      5.14634e+7 
           5790      5.09197e+7 
           5810      5.03967e+7 
           5830      4.98764e+7 
           5850      4.93576e+7 
           5870      4.88054e+7 
           5890       4.8102e+7 
           5910       4.7845e+7 
           5930       4.7361e+7 
           5950      4.68516e+7 
           5970      4.63913e+7 
           5990       4.5893e+7 
           6010      4.54306e+7 
           6030      4.49971e+7 
           6050      4.45385e+7 
           6070      4.41044e+7 
           6090      4.36608e+7 
           6110       4.3222e+7 
           6130       4.2774e+7 
           6150      4.21925e+7 
           6170      4.19174e+7 
           6190      4.15418e+7 
           6210       4.1131e+7 
           6230      4.07169e+7 
           6250       4.0234e+7 
           6270      3.99394e+7 
           6290      3.95506e+7 
           6310      3.91394e+7 
           6330      3.87768e+7 
           6350      3.82172e+7 
           6370      3.79246e+7 
           6390      3.76535e+7 
           6410      3.72117e+7 
           6430      3.68375e+7 
           6450      3.63486e+7 
           6470      3.60018e+7 
           6490      3.54511e+7 
           6510      3.47003e+7 
           6530      3.30638e+7 
           6550      2.78298e+7 
           6570      2.25907e+7 
           6590        3.074e+7 
           6610      3.27478e+7 
           6630      3.30956e+7 
           6650      3.30263e+7 
           6670      3.28217e+7 
           6690       3.2582e+7 
           6710       3.2317e+7 
           6730      3.20628e+7 
           6750      3.17805e+7 
           6770      3.15099e+7 
           6790      3.12216e+7 
           6810      3.09378e+7 
           6830       3.0647e+7 
           6850      3.03736e+7 
           6870      3.01036e+7 
           6890      2.98331e+7 
           6910      2.95636e+7 
           6930      2.92944e+7 
           6950      2.90355e+7 
           6970      2.87761e+7 
           6990      2.85222e+7 
           7010      2.82439e+7 
           7030      2.80103e+7 
           7050      2.77636e+7 
           7070      2.75239e+7 
           7090      2.72849e+7 
           7110       2.6946e+7 
           7130      2.67914e+7 
           7150      2.65584e+7 
           7170      2.63357e+7 
           7190      2.61049e+7 
           7210      2.58805e+7 
           7230      2.56547e+7 
           7250      2.54223e+7 
           7270      2.52185e+7 
           7290      2.49931e+7 
           7310      2.47804e+7 
           7330      2.45717e+7 
           7350      2.43656e+7 
           7370      2.41601e+7 
           7390      2.39494e+7 
           7410      2.37387e+7 
           7430      2.35176e+7 
           7450      2.33317e+7 
           7470       2.3107e+7 
           7490      2.29328e+7 
           7510      2.27547e+7 
           7530      2.25702e+7 
           7550      2.23873e+7 
           7570      2.22002e+7 
           7590       2.2016e+7 
           7610       2.1834e+7 
           7630      2.16518e+7 
           7650      2.14698e+7 
           7670      2.12869e+7 
           7690      2.11171e+7 
           7710      2.09411e+7 
           7730      2.07768e+7 
           7750      2.06051e+7 
           7770      2.01422e+7 
           7790       2.0273e+7 
           7810      2.01088e+7 
           7830      1.99392e+7 
           7850      1.97686e+7 
           7870      1.95764e+7 
           7890      1.93956e+7 
           7910       1.9294e+7 
           7930      1.91465e+7 
           7950      1.89657e+7 
           7970       1.8851e+7 
           7990      1.86151e+7 
           8010      1.85493e+7 
           8030      1.83998e+7 
           8050      1.82579e+7 
           8070      1.81108e+7 
           8090       1.7969e+7 
           8110      1.78301e+7 
           8130      1.76923e+7 
           8150       1.7554e+7 
           8170      1.74168e+7 
           8190      1.72358e+7 
           8210      1.71552e+7 
           8230      1.70225e+7 
           8250      1.69052e+7 
           8270      1.68367e+7 
           8290      1.67112e+7 
           8310      1.65965e+7 
           8330      1.64278e+7 
           8350      1.63584e+7 
           8370      1.62394e+7 
           8390       1.6107e+7 
           8410       1.5974e+7 
           8430      1.58347e+7 
           8450      1.55915e+7 
           8470      1.54739e+7 
           8490      1.54779e+7 
           8510      1.50026e+7 
           8530      1.52963e+7 
           8550      1.43276e+7 
           8570      1.52451e+7 
           8590      1.43747e+7 
           8610      1.41052e+7 
           8630      1.51836e+7 
           8650      1.44997e+7 
           8670      1.25359e+7 
           8690      1.47192e+7 
           8710      1.52412e+7 
           8730      1.44863e+7 
           8750      1.16774e+7 
           8770      1.37006e+7 
           8790      1.50801e+7 
           8810      1.52752e+7 
           8830      1.47466e+7 
           8850      1.28422e+7 
           8870      1.10433e+7 
           8890      1.38027e+7 
           8910      1.47706e+7 
           8930      1.50064e+7 
           8950      1.49831e+7 
           8970      1.45587e+7 
           8990      1.34754e+7 
           9010      1.06944e+7 
           9030      1.15799e+7 
           9050      1.35545e+7 
           9070      1.40718e+7 
           9090      1.41385e+7 
           9110      1.42948e+7 
           9130      1.42621e+7 
           9150       1.4113e+7 
           9170      1.38261e+7 
           9190      1.32486e+7 
