# Kurucz ODFNEW /NOVER (2003)
# teff = 32000 K (value for the effective temperature for the model. Temperatures are given in K)
# logg = 4.5 log(cm/s2) (value for Log(G) for the model.)
# meta = 0.5  (value for the Metallicity for the model.)
# lh = 1.25  (l/Hp where l is the  mixing length of the convective element and Hp is the pressure scale height)
# vtur = 2 km/s (Microturbulence velocity)
# alpha = 0  (Alpha)
#
# column 1: WAVELENGTH (ANGSTROM), Wavelength in Angstrom
# column 2: FLUX (ERG/CM2/S/A), Flux in erg/cm2/s/A
          147.2      6.68844e-7 
            151      1.88736e-6 
          155.2      5.60894e-6 
          158.8      1.36521e-5 
            162      2.91533e-5 
            166      7.23286e-5 
          170.3     0.000182389 
          173.4     0.000347817 
          176.8     0.000687962 
          180.2      0.00132096 
          181.7      0.00175705 
          186.1      0.00389563 
            191      0.00907503 
          193.9       0.0146545 
          198.4       0.0300866 
          201.8        0.050575 
            205       0.0811477 
          210.5        0.177294 
          216.2        0.379635 
          219.8        0.607023 
            223        0.905896 
          226.8         1.50257 
            230         177.134 
            234         365.308 
            240         615.678 
          246.5         1091.33 
          252.4         1840.49 
          256.8         2649.94 
            260         4492.05 
            264         7231.78 
          268.5         10876.2 
          273.5           15381 
          278.5         20302.8 
            284         45584.8 
            290         67367.8 
            296         92393.6 
            301          138993 
            308          368612 
            318          757080 
            328      1.12952e+6 
            338      2.03306e+6 
            348      3.20847e+6 
            357      8.25648e+6 
            366      1.78299e+7 
            375      2.16701e+7 
            385      3.25122e+7 
            395      6.68008e+7 
            405      8.31297e+7 
            414       1.1609e+8 
            422      1.36197e+8 
            430      1.63338e+8 
            441       2.0512e+8 
            451      2.26222e+8 
            460      2.39497e+8 
            470      2.97239e+8 
            480       3.5737e+8 
            490      3.95338e+8 
            500      4.74513e+8 
            506      7.28177e+8 
            512      5.89804e+9 
            520      5.58295e+9 
            530      5.06969e+9 
            540      4.69336e+9 
            550      5.85095e+9 
            560      7.68944e+9 
            570      8.16351e+9 
            580      7.46448e+9 
            590      8.03307e+9 
            600      6.11421e+9 
            610      7.89684e+9 
            620      9.47557e+9 
            630      9.05432e+9 
            640      8.58559e+9 
            650      8.13522e+9 
            658      6.83199e+9 
            665      8.54877e+9 
            675      9.78236e+9 
            685       7.3916e+9 
            695      1.0792e+10 
            705      8.27474e+9 
            716      1.1746e+10 
            726      1.1321e+10 
            735     1.13062e+10 
            745     1.08839e+10 
            755      1.0965e+10 
            765     1.12621e+10 
            775     1.18132e+10 
            785     1.22814e+10 
            795     1.23124e+10 
            805     1.16253e+10 
            815      1.1454e+10 
            825     1.23863e+10 
            835      9.47625e+9 
            845     1.16059e+10 
            855     1.13824e+10 
            865     1.18433e+10 
            875     1.19801e+10 
            885     1.23467e+10 
            895     1.24397e+10 
            905     1.19335e+10 
            915     1.26807e+10 
            925     3.76921e+10 
            935     6.17953e+10 
            945     8.26672e+10 
            955     8.99376e+10 
            965     1.01652e+11 
            975     3.16657e+10 
            985     7.58837e+10 
            995     6.99025e+10 
           1005     7.52508e+10 
           1015     8.11803e+10 
           1025     6.23995e+10 
           1035     7.67262e+10 
           1045     9.35696e+10 
           1055     8.67372e+10 
           1065     7.12522e+10 
           1075     7.61071e+10 
           1085     6.92032e+10 
           1095     7.42289e+10 
           1105     7.04479e+10 
           1115     6.93808e+10 
           1125     5.26208e+10 
           1135     6.57056e+10 
           1145     6.33991e+10 
           1155     6.00158e+10 
           1165     5.75854e+10 
           1175     3.35519e+10 
           1185     5.19208e+10 
           1195     5.06518e+10 
           1205     4.70722e+10 
           1215     3.73201e+10 
           1225     4.69988e+10 
           1235     5.10473e+10 
           1245     4.84175e+10 
           1255     4.82302e+10 
           1265      5.0138e+10 
           1275     5.23348e+10 
           1285     5.25844e+10 
           1295     4.68378e+10 
           1305     4.74345e+10 
           1315     5.17941e+10 
           1325     4.94767e+10 
           1335     4.77617e+10 
           1345     4.75102e+10 
           1355     4.65735e+10 
           1365      4.4365e+10 
           1375     4.25524e+10 
           1385     4.05928e+10 
           1395      2.9232e+10 
           1405     3.09891e+10 
           1415     3.81541e+10 
           1425     3.42459e+10 
           1435     3.70285e+10 
           1442     3.66028e+10 
           1447     3.63755e+10 
           1455     3.43555e+10 
           1465      3.2712e+10 
           1475      3.3586e+10 
           1485     3.34546e+10 
           1495     3.22568e+10 
           1505     3.02561e+10 
           1512     2.89846e+10 
           1517      2.9542e+10 
           1525     2.86529e+10 
           1535     2.40422e+10 
           1545     2.02772e+10 
           1555      2.0307e+10 
           1565     2.34246e+10 
           1575     2.49414e+10 
           1585     2.52335e+10 
           1595     2.50721e+10 
           1605     2.42371e+10 
           1615     2.28661e+10 
           1625     2.35101e+10 
           1635     2.41013e+10 
           1645     2.43313e+10 
           1655     2.40175e+10 
           1665     2.38331e+10 
           1672     2.16989e+10 
           1677     2.61925e+10 
           1685     2.45538e+10 
           1695     2.34572e+10 
           1705      2.3223e+10 
           1715     2.17989e+10 
           1725      2.0824e+10 
           1735      2.1706e+10 
           1745     2.15346e+10 
           1755     2.13462e+10 
           1765     2.10736e+10 
           1775     1.99483e+10 
           1785     2.04503e+10 
           1795     2.01084e+10 
           1805     2.00528e+10 
           1815     1.90502e+10 
           1825     1.89427e+10 
           1835     1.87972e+10 
           1845     1.74729e+10 
           1855     1.80732e+10 
           1865     1.81691e+10 
           1875     1.78591e+10 
           1885     1.65483e+10 
           1895     1.59514e+10 
           1905     1.66677e+10 
           1915     1.60524e+10 
           1925     1.48775e+10 
           1935     1.61076e+10 
           1945     1.64473e+10 
           1955     1.45398e+10 
           1967     1.55732e+10 
           1976     1.61804e+10 
           1984     1.52883e+10 
           1995     1.49829e+10 
           2005     1.53465e+10 
           2015     1.52882e+10 
           2025     1.54151e+10 
           2035      1.4407e+10 
           2045     1.43484e+10 
           2055     1.20253e+10 
           2065     1.16768e+10 
           2074     1.21931e+10 
           2078     1.17388e+10 
           2085      1.2336e+10 
           2095     1.26262e+10 
           2105     1.32981e+10 
           2115     1.34186e+10 
           2125     1.32625e+10 
           2135     1.30634e+10 
           2145     1.26848e+10 
           2155     1.28699e+10 
           2165     1.23591e+10 
           2175     1.25348e+10 
           2185     1.21465e+10 
           2195     1.23949e+10 
           2205       1.222e+10 
           2215     1.17959e+10 
           2225     1.17753e+10 
           2235     1.15442e+10 
           2245     1.14177e+10 
           2255     1.10581e+10 
           2265     1.11391e+10 
           2275     1.10268e+10 
           2285     1.07191e+10 
           2295      9.27907e+9 
           2305     1.02205e+10 
           2315     1.01317e+10 
           2325     1.01228e+10 
           2335       9.9264e+9 
           2345      9.87343e+9 
           2355       9.6342e+9 
           2365      9.47612e+9 
           2375      9.21349e+9 
           2385      8.90061e+9 
           2395      8.91773e+9 
           2405      8.89974e+9 
           2415      8.79066e+9 
           2425      8.75739e+9 
           2435      8.56361e+9 
           2445      8.49875e+9 
           2455      8.40403e+9 
           2465      8.28452e+9 
           2475      8.15559e+9 
           2485      7.83935e+9 
           2495       5.6934e+9 
           2505      7.42529e+9 
           2513      7.23671e+9 
           2518       7.4023e+9 
           2525      7.59767e+9 
           2535      7.55953e+9 
           2545      7.34087e+9 
           2555      7.28756e+9 
           2565       7.1902e+9 
           2575      7.12253e+9 
           2585      7.04779e+9 
           2595      6.93316e+9 
           2605      6.89225e+9 
           2615      6.73276e+9 
           2625      6.70616e+9 
           2635      6.64016e+9 
           2645       6.5082e+9 
           2655      6.45232e+9 
           2665      6.22947e+9 
           2675      6.10822e+9 
           2685      6.17673e+9 
           2695      5.97277e+9 
           2705      5.87515e+9 
           2715      5.83041e+9 
           2725       5.8222e+9 
           2735      5.69509e+9 
           2745      5.69267e+9 
           2755      5.63405e+9 
           2765      5.53571e+9 
           2775      5.56047e+9 
           2785      5.44581e+9 
           2795      5.22414e+9 
           2805      5.27362e+9 
           2815      5.28566e+9 
           2825      5.20866e+9 
           2835      5.05245e+9 
           2845      5.08588e+9 
           2855      4.99393e+9 
           2865      4.92516e+9 
           2875      4.87182e+9 
           2885      4.81185e+9 
           2895      4.75394e+9 
           2910      4.62453e+9 
           2930      4.58926e+9 
           2950      4.44456e+9 
           2970      4.35159e+9 
           2990      4.21309e+9 
           3010      4.06398e+9 
           3030      3.98461e+9 
           3050      3.94087e+9 
           3070      3.88533e+9 
           3090      3.73214e+9 
           3110      3.72118e+9 
           3130      3.60883e+9 
           3150      3.55217e+9 
           3170      3.45309e+9 
           3190      3.39323e+9 
           3210      3.30838e+9 
           3230      3.23319e+9 
           3250      3.19106e+9 
           3270       3.0918e+9 
           3290       3.0421e+9 
           3310      2.97275e+9 
           3330      2.89621e+9 
           3350      2.82931e+9 
           3370      2.77177e+9 
           3390        2.743e+9 
           3410      2.68228e+9 
           3430      2.63738e+9 
           3450      2.56499e+9 
           3470      2.52089e+9 
           3490      2.46802e+9 
           3510      2.41989e+9 
           3530      2.38429e+9 
           3550       2.3317e+9 
           3570      2.28842e+9 
           3590      2.22631e+9 
           3610      2.18445e+9 
           3630      2.14595e+9 
           3640      2.12806e+9 
           3650      2.05123e+9 
           3670      2.02102e+9 
           3690      1.98224e+9 
           3710      1.90386e+9 
           3730      1.86398e+9 
           3750      1.85837e+9 
           3770      1.81098e+9 
           3790      1.87524e+9 
           3810      1.91805e+9 
           3830       1.7225e+9 
           3850      1.91312e+9 
           3870      1.85164e+9 
           3890       1.6155e+9 
           3910      1.87141e+9 
           3930      1.80858e+9 
           3950      1.75895e+9 
           3970      1.48745e+9 
           3990      1.72405e+9 
           4010      1.70113e+9 
           4030      1.62713e+9 
           4050      1.64229e+9 
           4070      1.56055e+9 
           4090      1.46617e+9 
           4110      1.34384e+9 
           4130      1.49586e+9 
           4150      1.47964e+9 
           4170      1.47692e+9 
           4190      1.45307e+9 
           4210      1.42873e+9 
           4230      1.40746e+9 
           4250      1.36217e+9 
           4270      1.33117e+9 
           4290      1.30456e+9 
           4310      1.26081e+9 
           4330      1.17962e+9 
           4350      1.10262e+9 
           4370      1.20378e+9 
           4390      1.19268e+9 
           4410      1.17859e+9 
           4430      1.17461e+9 
           4450      1.15084e+9 
           4470      1.11096e+9 
           4490      1.11976e+9 
           4510      1.09471e+9 
           4530      1.08494e+9 
           4550      1.06354e+9 
           4570      1.05469e+9 
           4590      1.03337e+9 
           4610      1.00902e+9 
           4630      9.85754e+8 
           4650      9.35024e+8 
           4670      9.59646e+8 
           4690      9.45947e+8 
           4710      9.23156e+8 
           4730      9.31043e+8 
           4750      9.15171e+8 
           4770      9.11172e+8 
           4790      8.95451e+8 
           4810       8.7685e+8 
           4830      8.58283e+8 
           4850      8.10699e+8 
           4870      7.33781e+8 
           4890      8.19295e+8 
           4910      8.09696e+8 
           4930      7.86245e+8 
           4950      7.83102e+8 
           4970      7.80244e+8 
           4990      7.67526e+8 
           5010      7.35325e+8 
           5030      7.39406e+8 
           5050      7.27622e+8 
           5070      7.23446e+8 
           5090      7.11011e+8 
           5110      6.99108e+8 
           5130      6.85322e+8 
           5150      6.76742e+8 
           5170      6.68472e+8 
           5190      6.60463e+8 
           5210       6.5153e+8 
           5230      6.41997e+8 
           5250        6.305e+8 
           5270      6.20542e+8 
           5290      6.14943e+8 
           5310       6.0587e+8 
           5330      5.97698e+8 
           5350      5.89079e+8 
           5370      5.81067e+8 
           5390      5.72133e+8 
           5410      5.60948e+8 
           5430      5.57372e+8 
           5450      5.49332e+8 
           5470      5.41557e+8 
           5490      5.33969e+8 
           5510      5.27233e+8 
           5530      5.19177e+8 
           5550      5.13387e+8 
           5570      5.05991e+8 
           5590      4.98362e+8 
           5610      4.92864e+8 
           5630      4.86409e+8 
           5650      4.78982e+8 
           5670      4.70535e+8 
           5690       4.5832e+8 
           5710      4.52642e+8 
           5730      4.47687e+8 
           5750      4.40316e+8 
           5770       4.3693e+8 
           5790      4.30736e+8 
           5810      4.24506e+8 
           5830      4.17874e+8 
           5850      4.14559e+8 
           5870      4.00029e+8 
           5890      4.01878e+8 
           5910      3.98807e+8 
           5930      3.93893e+8 
           5950      3.89398e+8 
           5970      3.87121e+8 
           5990      3.80928e+8 
           6010       3.7797e+8 
           6030      3.72431e+8 
           6050      3.68377e+8 
           6070      3.64532e+8 
           6090      3.60151e+8 
           6110      3.55335e+8 
           6130      3.51296e+8 
           6150        3.451e+8 
           6170      3.41461e+8 
           6190      3.38265e+8 
           6210      3.34566e+8 
           6230      3.30519e+8 
           6250      3.25639e+8 
           6270      3.22166e+8 
           6290      3.18559e+8 
           6310      3.14149e+8 
           6330      3.11067e+8 
           6350      3.06746e+8 
           6370      3.03802e+8 
           6390      3.00049e+8 
           6410      2.96428e+8 
           6430      2.93111e+8 
           6450      2.89394e+8 
           6470      2.84746e+8 
           6490      2.81697e+8 
           6510      2.78226e+8 
           6530       2.7428e+8 
           6550      2.65127e+8 
           6570      2.37306e+8 
           6590      2.63288e+8 
           6610      2.62775e+8 
           6630       2.6043e+8 
           6650      2.57289e+8 
           6670      2.51727e+8 
           6690      2.48801e+8 
           6710      2.48324e+8 
           6730      2.44763e+8 
           6750      2.42868e+8 
           6770      2.40547e+8 
           6790      2.36183e+8 
           6810      2.34984e+8 
           6830      2.32278e+8 
           6850      2.29912e+8 
           6870      2.27178e+8 
           6890      2.24028e+8 
           6910       2.2136e+8 
           6930      2.20084e+8 
           6950      2.17634e+8 
           6970      2.15262e+8 
           6990      2.12829e+8 
           7010      2.10329e+8 
           7030      2.07655e+8 
           7050      2.05682e+8 
           7070      2.00669e+8 
           7090      2.01457e+8 
           7110      1.98104e+8 
           7130      1.96135e+8 
           7150      1.95025e+8 
           7170       1.9281e+8 
           7190      1.90915e+8 
           7210      1.89031e+8 
           7230      1.84679e+8 
           7250      1.84571e+8 
           7270      1.83087e+8 
           7290      1.79865e+8 
           7310      1.79164e+8 
           7330      1.77276e+8 
           7350       1.7549e+8 
           7370      1.73706e+8 
           7390      1.71919e+8 
           7410      1.70121e+8 
           7430      1.68374e+8 
           7450      1.66568e+8 
           7470      1.64084e+8 
           7490      1.62618e+8 
           7510      1.61459e+8 
           7530      1.59679e+8 
           7550      1.58286e+8 
           7570      1.56635e+8 
           7590       1.5462e+8 
           7610      1.53087e+8 
           7630      1.51819e+8 
           7650      1.50325e+8 
           7670       1.4894e+8 
           7690      1.47121e+8 
           7710      1.45744e+8 
           7730      1.44039e+8 
           7750      1.43046e+8 
           7770      1.41605e+8 
           7790      1.40308e+8 
           7810      1.38886e+8 
           7830      1.37551e+8 
           7850      1.36154e+8 
           7870      1.34526e+8 
           7890      1.33107e+8 
           7910      1.32055e+8 
           7930      1.30761e+8 
           7950      1.29704e+8 
           7970      1.28354e+8 
           7990      1.27187e+8 
           8010      1.25884e+8 
           8030      1.24597e+8 
           8050      1.23578e+8 
           8070      1.22376e+8 
           8090      1.21138e+8 
           8110      1.19155e+8 
           8130      1.18946e+8 
           8150      1.17739e+8 
           8170      1.16734e+8 
           8190      1.14879e+8 
           8210      1.13509e+8 
           8230      1.12063e+8 
           8250      1.11714e+8 
           8270      1.09715e+8 
           8290      1.09575e+8 
           8310       1.0877e+8 
           8330      1.07575e+8 
           8350      1.06142e+8 
           8370      1.05506e+8 
           8390      1.04875e+8 
           8410       1.0378e+8 
           8430      1.02949e+8 
           8450      1.01481e+8 
           8470      1.01087e+8 
           8490      9.99941e+7 
           8510      9.86872e+7 
           8530      9.81939e+7 
           8550      9.69929e+7 
           8570      9.68947e+7 
