# Kurucz ODFNEW /NOVER (2003)
# teff = 21000 K (value for the effective temperature for the model. Temperatures are given in K)
# logg = 4.5 log(cm/s2) (value for Log(G) for the model.)
# meta = -4  (value for the Metallicity for the model.)
# lh = 1.25  (l/Hp where l is the  mixing length of the convective element and Hp is the pressure scale height)
# vtur = 2 km/s (Microturbulence velocity)
# alpha = 0.4  (Alpha)
#
# column 1: WAVELENGTH (ANGSTROM), Wavelength in Angstrom
# column 2: FLUX (ERG/CM2/S/A), Flux in erg/cm2/s/A
          147.2      8.4923e-20 
            151     5.66887e-19 
          155.2     4.16096e-18 
          158.8     2.11614e-17 
            162     8.46321e-17 
            166     4.44266e-16 
          170.3     2.42259e-15 
          173.4     7.81135e-15 
          176.8     2.69089e-14 
          180.2     8.84278e-14 
          181.7     1.47349e-13 
          186.1     6.28111e-13 
            191      2.9141e-12 
          193.9       6.962e-12 
          198.4      2.5552e-11 
          201.8     6.56236e-11 
            205     1.54833e-10 
          210.5     6.35709e-10 
          216.2      2.54203e-9 
          219.8      5.87084e-9 
            223      1.20657e-8 
          226.8       2.7617e-8 
            230       6.2807e-8 
            234      1.45309e-7 
            240      4.64587e-7 
          246.5      1.52893e-6 
          252.4      4.26914e-6 
          256.8       8.8655e-6 
            260      1.49081e-5 
            264      2.79353e-5 
          268.5      5.52875e-5 
          273.5     0.000114818 
          278.5     0.000232068 
            284     0.000488241 
            290      0.00106223 
            296      0.00223464 
            301      0.00405637 
            308      0.00901595 
            318       0.0265377 
            328       0.0727273 
            338        0.186986 
            348        0.453678 
            357        0.962242 
            366         1.96172 
            375         3.85423 
            385         7.84161 
            395         15.3413 
            405         28.9509 
            414         49.8266 
            422         79.0293 
            430         123.007 
            441         219.609 
            451         361.984 
            460         556.032 
            470         876.881 
            480          1353.9 
            490          2049.5 
            500         3045.33 
            506           19518 
            512         58398.3 
            520         75489.4 
            530          112595 
            540          128416 
            550          184853 
            560          232441 
            570          288953 
            580          306636 
            590          414175 
            600          532685 
            610          644520 
            620          772844 
            630          920828 
            640      1.09027e+6 
            650      1.28391e+6 
            658       1.4571e+6 
            665      1.62295e+6 
            675      1.88454e+6 
            685       2.1766e+6 
            695        2.505e+6 
            705      2.86755e+6 
            716      3.31032e+6 
            726      3.75553e+6 
            735      4.19383e+6 
            745       4.7237e+6 
            755      5.30075e+6 
            765       5.9268e+6 
            775      6.60535e+6 
            785      7.33682e+6 
            795       8.1232e+6 
            805      8.96733e+6 
            815      9.87048e+6 
            825      1.08349e+7 
            835      1.18353e+7 
            845      1.29529e+7 
            855      1.41075e+7 
            865       1.5331e+7 
            875      1.66191e+7 
            885      1.79773e+7 
            895       1.9404e+7 
            905        2.088e+7 
            915      3.62841e+7 
            925      1.64271e+8 
            935      5.28363e+8 
            945      2.91571e+9 
            955      6.82514e+9 
            965      9.75942e+9 
            975      3.20996e+9 
            985     1.51433e+10 
            995     1.64322e+10 
           1005     1.62986e+10 
           1015     1.23006e+10 
           1025      1.63203e+9 
           1035     1.03792e+10 
           1045     1.49553e+10 
           1055     1.52394e+10 
           1065     1.49197e+10 
           1075      1.4737e+10 
           1085     1.40816e+10 
           1095     1.41822e+10 
           1105     1.36737e+10 
           1115     1.34256e+10 
           1125     1.30638e+10 
           1135     1.29279e+10 
           1145      1.2612e+10 
           1155     1.23516e+10 
           1165     1.20578e+10 
           1175     1.13167e+10 
           1185      1.1358e+10 
           1195      1.0458e+10 
           1205      7.65484e+9 
           1215      1.18593e+9 
           1225      6.66006e+9 
           1235      9.61741e+9 
           1245      9.94744e+9 
           1255      9.89359e+9 
           1265      9.70625e+9 
           1275      9.59723e+9 
           1285      9.42288e+9 
           1295      9.09955e+9 
           1305      8.97169e+9 
           1315      8.90722e+9 
           1325      8.72392e+9 
           1335       8.4244e+9 
           1345      8.39976e+9 
           1355      8.24177e+9 
           1365      8.08546e+9 
           1375        7.936e+9 
           1385         7.79e+9 
           1395      7.60709e+9 
           1405      7.48354e+9 
           1415      7.37682e+9 
           1425      7.24823e+9 
           1435      7.12067e+9 
           1442      7.03069e+9 
           1447      6.96725e+9 
           1455      6.86718e+9 
           1465      6.74584e+9 
           1475       6.6268e+9 
           1485       6.5112e+9 
           1495       6.3991e+9 
           1505       6.2884e+9 
           1512      6.21548e+9 
           1517      6.16361e+9 
           1525      6.08032e+9 
           1535      5.97593e+9 
           1545       5.8761e+9 
           1555      5.77817e+9 
           1565      5.68626e+9 
           1575      5.59166e+9 
           1585      5.49928e+9 
           1595      5.40921e+9 
           1605      5.31935e+9 
           1615      5.23317e+9 
           1625      5.15141e+9 
           1635      5.07041e+9 
           1645      4.96635e+9 
           1655      4.91326e+9 
           1665       4.8377e+9 
           1672      4.78003e+9 
           1677      4.74902e+9 
           1685      4.69103e+9 
           1695      4.61906e+9 
           1705      4.54715e+9 
           1715      4.47622e+9 
           1725      4.40763e+9 
           1735      4.34158e+9 
           1745      4.27575e+9 
           1755      4.21175e+9 
           1765      4.14651e+9 
           1775        4.087e+9 
           1785      4.02739e+9 
           1795      3.96907e+9 
           1805       3.9118e+9 
           1815      3.85567e+9 
           1825      3.80097e+9 
           1835      3.74679e+9 
           1845      3.69245e+9 
           1855      3.63052e+9 
           1865      3.58173e+9 
           1875       3.5372e+9 
           1885      3.48651e+9 
           1895      3.43471e+9 
           1905      3.39075e+9 
           1915      3.34105e+9 
           1925      3.29616e+9 
           1935      3.25282e+9 
           1945       3.2099e+9 
           1955      3.16472e+9 
           1967      3.11522e+9 
           1976      3.07794e+9 
           1984      3.04455e+9 
           1995      2.99914e+9 
           2005      2.96143e+9 
           2015      2.92274e+9 
           2025      2.88448e+9 
           2035      2.84665e+9 
           2045      2.80951e+9 
           2055      2.77046e+9 
           2065        2.736e+9 
           2074      2.70583e+9 
           2078      2.68897e+9 
           2085      2.66791e+9 
           2095      2.63331e+9 
           2105      2.60053e+9 
           2115        2.568e+9 
           2125      2.53579e+9 
           2135      2.50416e+9 
           2145      2.47309e+9 
           2155      2.44248e+9 
           2165      2.41233e+9 
           2175      2.38272e+9 
           2185       2.3533e+9 
           2195      2.32448e+9 
           2205      2.29609e+9 
           2215      2.26803e+9 
           2225      2.24046e+9 
           2235      2.21329e+9 
           2245      2.18666e+9 
           2255      2.16042e+9 
           2265      2.13463e+9 
           2275      2.10921e+9 
           2285      2.08422e+9 
           2295      2.05923e+9 
           2305      2.03559e+9 
           2315      2.01186e+9 
           2325      1.98853e+9 
           2335      1.96552e+9 
           2345      1.94269e+9 
           2355      1.92032e+9 
           2365      1.89805e+9 
           2375      1.87629e+9 
           2385      1.85463e+9 
           2395      1.83346e+9 
           2405      1.81271e+9 
           2415      1.79217e+9 
           2425      1.77204e+9 
           2435      1.75212e+9 
           2445      1.73258e+9 
           2455      1.71331e+9 
           2465      1.69429e+9 
           2475      1.67552e+9 
           2485      1.65706e+9 
           2495      1.63721e+9 
           2505       1.6208e+9 
           2513       1.6065e+9 
           2518      1.59775e+9 
           2525      1.58554e+9 
           2535       1.5683e+9 
           2545      1.55135e+9 
           2555      1.53473e+9 
           2565      1.51832e+9 
           2575      1.50212e+9 
           2585      1.48612e+9 
           2595      1.47027e+9 
           2605      1.46589e+9 
           2615      1.45029e+9 
           2625      1.43478e+9 
           2635      1.41794e+9 
           2645      1.40228e+9 
           2655      1.38559e+9 
           2665      1.36858e+9 
           2675      1.35263e+9 
           2685      1.34702e+9 
           2695      1.32345e+9 
           2705      1.31924e+9 
           2715      1.30561e+9 
           2725      1.28204e+9 
           2735      1.27898e+9 
           2745      1.26583e+9 
           2755      1.25293e+9 
           2765      1.23014e+9 
           2775      1.22774e+9 
           2785      1.21535e+9 
           2795       1.2016e+9 
           2805      1.19066e+9 
           2815      1.17917e+9 
           2825      1.15498e+9 
           2835      1.15012e+9 
           2845      1.14443e+9 
           2855       1.1331e+9 
           2865       1.1219e+9 
           2875      1.11087e+9 
           2885      1.09997e+9 
           2895      1.08924e+9 
           2910      1.07336e+9 
           2930      1.05262e+9 
           2950      1.02519e+9 
           2970      1.01279e+9 
           2990      9.93602e+8 
           3010      9.74912e+8 
           3030      9.56627e+8 
           3050      9.38776e+8 
           3070      9.21348e+8 
           3090       9.0437e+8 
           3110       8.8779e+8 
           3130      8.72481e+8 
           3150      8.56654e+8 
           3170       8.4108e+8 
           3190       8.1946e+8 
           3210      8.10926e+8 
           3230      7.96364e+8 
           3250      7.82135e+8 
           3270      7.69074e+8 
           3290      7.54774e+8 
           3310      7.42483e+8 
           3330      7.29616e+8 
           3350      7.15996e+8 
           3370      7.04736e+8 
           3390      6.92708e+8 
           3410      6.80945e+8 
           3430      6.67552e+8 
           3450       6.5458e+8 
           3470      6.45117e+8 
           3490      6.34342e+8 
           3510      6.24687e+8 
           3530       6.1527e+8 
           3550      6.05188e+8 
           3570      5.97924e+8 
           3590      5.85113e+8 
           3610      5.77058e+8 
           3630      5.66371e+8 
           3640      5.64941e+8 
           3650      5.60181e+8 
           3670      5.53589e+8 
           3690      5.42928e+8 
           3710      5.24472e+8 
           3730      5.01127e+8 
           3750      5.27783e+8 
           3770      5.31396e+8 
           3790      5.75765e+8 
           3810      6.12194e+8 
           3830      5.20141e+8 
           3850      6.43204e+8 
           3870      6.63991e+8 
           3890      4.86668e+8 
           3910      6.55773e+8 
           3930      6.57262e+8 
           3950      6.37029e+8 
           3970      4.55013e+8 
           3990      6.08561e+8 
           4010      6.15907e+8 
           4030      5.73854e+8 
           4050      6.04949e+8 
           4070      5.90785e+8 
           4090      5.19824e+8 
           4110      4.39864e+8 
           4130      5.52011e+8 
           4150      5.51209e+8 
           4170      5.48405e+8 
           4190      5.41765e+8 
           4210      5.33017e+8 
           4230       5.2443e+8 
           4250      5.16023e+8 
           4270      5.07212e+8 
           4290      4.97622e+8 
           4310       4.8474e+8 
           4330      4.17782e+8 
           4350      3.75425e+8 
           4370      4.59902e+8 
           4390      4.43386e+8 
           4410      4.53592e+8 
           4430      4.44937e+8 
           4450      4.40147e+8 
           4470      4.08878e+8 
           4490      4.26323e+8 
           4510      4.20642e+8 
           4530      4.14274e+8 
           4550      4.08001e+8 
           4570      4.01859e+8 
           4590      3.95825e+8 
           4610      3.89916e+8 
           4630       3.8413e+8 
           4650      3.78446e+8 
           4670      3.72862e+8 
           4690      3.67376e+8 
           4710       3.5691e+8 
           4730       3.5671e+8 
           4750      3.51508e+8 
           4770      3.46414e+8 
           4790      3.40933e+8 
           4810      3.34961e+8 
           4830      3.26703e+8 
           4850      2.88843e+8 
           4870      2.52864e+8 
           4890      3.10463e+8 
           4910       3.1083e+8 
           4930      2.98998e+8 
           4950      3.04459e+8 
           4970      3.00259e+8 
           4990      2.96087e+8 
           5010      2.87949e+8 
           5030      2.87927e+8 
           5050       2.8215e+8 
           5070      2.80104e+8 
           5090      2.76264e+8 
           5110      2.72505e+8 
           5130      2.68809e+8 
           5150      2.65163e+8 
           5170      2.61593e+8 
           5190      2.58084e+8 
           5210      2.54622e+8 
           5230      2.51232e+8 
           5250      2.47886e+8 
           5270      2.44611e+8 
           5290      2.41378e+8 
           5310      2.38201e+8 
           5330      2.35077e+8 
           5350      2.32007e+8 
           5370      2.28988e+8 
           5390      2.26008e+8 
           5410      2.23079e+8 
           5430      2.20212e+8 
           5450      2.17369e+8 
           5470      2.14586e+8 
           5490       2.1185e+8 
           5510      2.09149e+8 
           5530      2.06505e+8 
           5550      2.03894e+8 
           5570      2.01316e+8 
           5590      1.98793e+8 
           5610        1.963e+8 
           5630       1.9385e+8 
           5650      1.91442e+8 
           5670      1.89063e+8 
           5690      1.86735e+8 
           5710      1.84436e+8 
           5730      1.82164e+8 
           5750       1.7993e+8 
           5770      1.77734e+8 
           5790      1.75576e+8 
           5810      1.73443e+8 
           5830      1.71346e+8 
           5850      1.69285e+8 
           5870      1.61628e+8 
           5890      1.64908e+8 
           5910      1.63276e+8 
           5930      1.61341e+8 
           5950      1.59418e+8 
           5970      1.57537e+8 
           5990      1.55679e+8 
           6010      1.53852e+8 
           6030      1.52045e+8 
           6050       1.5027e+8 
           6070      1.48514e+8 
           6090      1.46789e+8 
           6110      1.45093e+8 
           6130      1.43416e+8 
           6150      1.41757e+8 
           6170      1.40127e+8 
           6190      1.38525e+8 
           6210       1.3695e+8 
           6230      1.35393e+8 
           6250      1.33853e+8 
           6270      1.32339e+8 
           6290      1.30842e+8 
           6310       1.2938e+8 
           6330      1.27924e+8 
           6350      1.26494e+8 
           6370      1.25088e+8 
           6390      1.23697e+8 
           6410      1.22321e+8 
           6430      1.20969e+8 
           6450      1.19641e+8 
           6470      1.18326e+8 
           6490      1.16954e+8 
           6510      1.15339e+8 
           6530       1.1329e+8 
           6550      1.05698e+8 
           6570      9.22079e+7 
           6590      1.08461e+8 
           6610       1.0903e+8 
           6630      1.08227e+8 
           6650       1.0733e+8 
           6670      1.05002e+8 
           6690      1.03913e+8 
           6710      1.03938e+8 
           6730      1.02831e+8 
           6750      1.01743e+8 
           6770      1.00674e+8 
           6790      9.96161e+7 
           6810      9.85688e+7 
           6830      9.75401e+7 
           6850      9.65217e+7 
           6870      9.55136e+7 
           6890      9.45234e+7 
           6910      9.35431e+7 
           6930      9.25803e+7 
           6950      9.16271e+7 
           6970      9.06832e+7 
           6990      8.97564e+7 
           7010      8.88387e+7 
           7030      8.79375e+7 
           7050      8.70451e+7 
           7070      8.48123e+7 
           7090      8.52863e+7 
           7110      8.44271e+7 
           7130      8.35836e+7 
           7150      8.27408e+7 
           7170      8.19061e+7 
           7190       8.1094e+7 
           7210      8.02897e+7 
           7230      7.94929e+7 
           7250      7.87037e+7 
           7270      7.79292e+7 
           7290      7.65806e+7 
           7310      7.63948e+7 
           7330      7.56559e+7 
           7350        7.491e+7 
           7370       7.4185e+7 
           7390      7.34598e+7 
           7410      7.27481e+7 
           7430      7.20431e+7 
           7450      7.13582e+7 
           7470       7.0666e+7 
           7490      6.99869e+7 
           7510      6.93007e+7 
           7530       6.8654e+7 
           7550          6.8e+7 
           7570      6.73519e+7 
           7590      6.67162e+7 
           7610      6.60798e+7 
           7630      6.54555e+7 
           7650      6.48434e+7 
           7670      6.42303e+7 
           7690      6.36284e+7 
           7710      6.30332e+7 
           7730      6.24452e+7 
           7750       6.1863e+7 
           7770      6.12884e+7 
           7790      6.07209e+7 
           7810      6.01342e+7 
           7830      5.96043e+7 
           7850      5.91047e+7 
           7870      5.85614e+7 
           7890      5.80132e+7 
           7910      5.74944e+7 
           7930      5.69705e+7 
           7950      5.64517e+7 
           7970       5.5912e+7 
           7990       5.5433e+7 
           8010      5.49316e+7 
           8030      5.44158e+7 
           8050      5.39144e+7 
           8070       5.3441e+7 
           8090      5.28956e+7 
           8110       5.2454e+7 
           8130       5.2011e+7 
           8150      5.15054e+7 
           8170      5.11012e+7 
           8190      5.06036e+7 
           8210      5.01048e+7 
           8230      4.97742e+7 
           8250      4.93566e+7 
           8270      4.87524e+7 
           8290      4.84862e+7 
           8310      4.80873e+7 
           8330       4.7653e+7 
           8350      4.70641e+7 
           8370      4.67808e+7 
           8390      4.64344e+7 
           8410      4.60178e+7 
           8430      4.55792e+7 
           8450      4.49596e+7 
           8470       4.4717e+7 
           8490      4.43012e+7 
           8510      4.38034e+7 
           8530      4.35631e+7 
           8550      4.25705e+7 
           8570      4.32441e+7 
