# Kurucz ODFNEW /NOVER (2003)
# teff = 31000 K (value for the effective temperature for the model. Temperatures are given in K)
# logg = 4 log(cm/s2) (value for Log(G) for the model.)
# meta = 0  (value for the Metallicity for the model.)
# lh = 1.25  (l/Hp where l is the  mixing length of the convective element and Hp is the pressure scale height)
# vtur = 2 km/s (Microturbulence velocity)
# alpha = 0.4  (Alpha)
#
# column 1: WAVELENGTH (ANGSTROM), Wavelength in Angstrom
# column 2: FLUX (ERG/CM2/S/A), Flux in erg/cm2/s/A
          147.2      4.28596e-8 
            151      1.28856e-7 
          155.2      4.09699e-7 
          158.8      1.05504e-6 
            162      2.36741e-6 
            166      6.23881e-6 
          170.3      1.67671e-5 
          173.4      3.34047e-5 
          176.8      6.92409e-5 
          180.2     0.000139371 
          181.7     0.000188976 
          186.1     0.000444658 
            191      0.00110424 
          193.9      0.00185132 
          198.4         0.00402 
          201.8      0.00705026 
            205       0.0117649 
          210.5       0.0274167 
          216.2       0.0627705 
          219.8        0.104288 
            223        0.161066 
          226.8        0.273373 
            230         65.6157 
            234         140.321 
            240         245.842 
          246.5         452.338 
          252.4         789.759 
          256.8         1112.14 
            260         1798.94 
            264         2573.26 
          268.5         3949.13 
          273.5         5781.21 
          278.5          7890.4 
            284         18459.5 
            290         27861.4 
            296         39300.4 
            301         53406.8 
            308          150761 
            318          321090 
            328          494548 
            338          885138 
            348      1.40726e+6 
            357      3.73776e+6 
            366      7.93838e+6 
            375      1.00083e+7 
            385      1.54354e+7 
            395      3.11356e+7 
            405         3.95e+7 
            414      5.74713e+7 
            422      6.53381e+7 
            430      7.79314e+7 
            441      9.86217e+7 
            451      1.16087e+8 
            460      1.26801e+8 
            470      1.55774e+8 
            480      1.84882e+8 
            490      2.08966e+8 
            500       2.5815e+8 
            506      4.80836e+8 
            512      3.80776e+9 
            520      3.59495e+9 
            530      3.30661e+9 
            540      3.20905e+9 
            550      3.84476e+9 
            560      4.93929e+9 
            570      5.27781e+9 
            580      4.75436e+9 
            590      5.22118e+9 
            600      3.94457e+9 
            610      5.22075e+9 
            620      6.16997e+9 
            630      6.02255e+9 
            640      5.74724e+9 
            650      5.49356e+9 
            658      4.53627e+9 
            665      5.69407e+9 
            675      6.46242e+9 
            685      5.22873e+9 
            695      7.00602e+9 
            705      5.30381e+9 
            716      7.60284e+9 
            726      7.34695e+9 
            735       7.4666e+9 
            745       7.1202e+9 
            755      7.19389e+9 
            765      7.63211e+9 
            775      7.96894e+9 
            785       8.2245e+9 
            795      8.23765e+9 
            805      7.87264e+9 
            815      7.82073e+9 
            825      8.43708e+9 
            835      6.53039e+9 
            845      8.12525e+9 
            855      8.08626e+9 
            865      8.36964e+9 
            875      8.46925e+9 
            885      8.70413e+9 
            895      8.81218e+9 
            905      8.55458e+9 
            915     1.02216e+10 
            925     3.65539e+10 
            935     5.72619e+10 
            945     7.30995e+10 
            955     7.88425e+10 
            965     8.66754e+10 
            975     3.38988e+10 
            985     6.92128e+10 
            995     6.38597e+10 
           1005     6.68548e+10 
           1015     7.06159e+10 
           1025     5.68164e+10 
           1035     6.69917e+10 
           1045     7.86905e+10 
           1055     7.43592e+10 
           1065     6.26894e+10 
           1075     6.62946e+10 
           1085     6.18557e+10 
           1095      6.5865e+10 
           1105     6.24075e+10 
           1115     6.08234e+10 
           1125     4.59085e+10 
           1135     5.85525e+10 
           1145     5.54997e+10 
           1155     5.30715e+10 
           1165     5.27473e+10 
           1175     3.41877e+10 
           1185     4.79582e+10 
           1195     4.61301e+10 
           1205       4.255e+10 
           1215     3.54036e+10 
           1225     4.34514e+10 
           1235     4.63469e+10 
           1245     4.43853e+10 
           1255     4.43409e+10 
           1265       4.514e+10 
           1275     4.63234e+10 
           1285     4.60067e+10 
           1295     4.10308e+10 
           1305     4.17493e+10 
           1315     4.47398e+10 
           1325     4.28932e+10 
           1335     4.15978e+10 
           1345     4.11419e+10 
           1355     4.06353e+10 
           1365     3.86976e+10 
           1375     3.74971e+10 
           1385     3.59069e+10 
           1395     2.43845e+10 
           1405      2.6699e+10 
           1415     3.41163e+10 
           1425     3.10623e+10 
           1435     3.29396e+10 
           1442     3.28815e+10 
           1447     3.26205e+10 
           1455     3.10438e+10 
           1465     3.00281e+10 
           1475     3.03444e+10 
           1485     3.01336e+10 
           1495     2.91975e+10 
           1505     2.79259e+10 
           1512     2.71571e+10 
           1517     2.74335e+10 
           1525     2.66426e+10 
           1535     2.31804e+10 
           1545     2.03135e+10 
           1555      2.0145e+10 
           1565     2.23279e+10 
           1575     2.34895e+10 
           1585      2.3383e+10 
           1595     2.33321e+10 
           1605     2.21882e+10 
           1615     2.11935e+10 
           1625     2.15355e+10 
           1635      2.1862e+10 
           1645     2.17585e+10 
           1655     2.17302e+10 
           1665     2.13096e+10 
           1672     1.98513e+10 
           1677     2.29025e+10 
           1685     2.18098e+10 
           1695     2.09448e+10 
           1705     2.06389e+10 
           1715     1.97175e+10 
           1725     1.89515e+10 
           1735     1.95672e+10 
           1745     1.93572e+10 
           1755     1.90932e+10 
           1765     1.88085e+10 
           1775     1.80914e+10 
           1785     1.82865e+10 
           1795     1.79863e+10 
           1805     1.79934e+10 
           1815     1.72856e+10 
           1825     1.71713e+10 
           1835     1.70384e+10 
           1845      1.5908e+10 
           1855     1.61759e+10 
           1865     1.62282e+10 
           1875     1.59066e+10 
           1885      1.4976e+10 
           1895     1.44554e+10 
           1905     1.49871e+10 
           1915     1.44457e+10 
           1925     1.36189e+10 
           1935     1.43992e+10 
           1945     1.45931e+10 
           1955     1.32436e+10 
           1967     1.38556e+10 
           1976     1.42845e+10 
           1984     1.35924e+10 
           1995     1.32773e+10 
           2005      1.3476e+10 
           2015      1.3452e+10 
           2025     1.34536e+10 
           2035     1.27859e+10 
           2045     1.26657e+10 
           2055     1.07407e+10 
           2065      1.0447e+10 
           2074     1.09109e+10 
           2078     1.06822e+10 
           2085     1.12623e+10 
           2095      1.1464e+10 
           2105     1.16997e+10 
           2115     1.17763e+10 
           2125     1.15906e+10 
           2135     1.14782e+10 
           2145     1.12093e+10 
           2155     1.12751e+10 
           2165     1.08818e+10 
           2175     1.09524e+10 
           2185      1.0689e+10 
           2195     1.07889e+10 
           2205     1.06277e+10 
           2215     1.03124e+10 
           2225     1.02777e+10 
           2235     1.01075e+10 
           2245     1.00027e+10 
           2255      9.72379e+9 
           2265      9.73432e+9 
           2275      9.62273e+9 
           2285      9.36913e+9 
           2295      8.44866e+9 
           2305      9.02005e+9 
           2315      8.93034e+9 
           2325      8.89062e+9 
           2335      8.73932e+9 
           2345       8.6807e+9 
           2355      8.52902e+9 
           2365      8.40047e+9 
           2375      8.22702e+9 
           2385      7.96545e+9 
           2395       7.9411e+9 
           2405      7.92535e+9 
           2415      7.77007e+9 
           2425      7.72149e+9 
           2435      7.57243e+9 
           2445      7.50053e+9 
           2455      7.40017e+9 
           2465      7.30677e+9 
           2475      7.17958e+9 
           2485      6.91693e+9 
           2495      4.89934e+9 
           2505      6.51994e+9 
           2513      6.49282e+9 
           2518      6.57876e+9 
           2525      6.73024e+9 
           2535      6.68721e+9 
           2545      6.49342e+9 
           2555      6.46578e+9 
           2565      6.37481e+9 
           2575      6.33391e+9 
           2585      6.26301e+9 
           2595      6.15666e+9 
           2605      6.12447e+9 
           2615       6.0072e+9 
           2625      5.95714e+9 
           2635      5.88434e+9 
           2645      5.79739e+9 
           2655      5.72868e+9 
           2665      5.58764e+9 
           2675      5.48961e+9 
           2685      5.50628e+9 
           2695      5.37316e+9 
           2705      5.32012e+9 
           2715      5.26107e+9 
           2725      5.19665e+9 
           2735      5.10332e+9 
           2745       5.1017e+9 
           2755      5.03694e+9 
           2765      4.95573e+9 
           2775      4.95139e+9 
           2785      4.85678e+9 
           2795      4.68735e+9 
           2805      4.72711e+9 
           2815      4.70941e+9 
           2825      4.64087e+9 
           2835      4.54111e+9 
           2845      4.54806e+9 
           2855      4.46736e+9 
           2865      4.41351e+9 
           2875      4.35619e+9 
           2885      4.31256e+9 
           2895      4.25958e+9 
           2910      4.14802e+9 
           2930       4.0983e+9 
           2950      3.97972e+9 
           2970       3.9008e+9 
           2990      3.78782e+9 
           3010      3.66305e+9 
           3030      3.58088e+9 
           3050      3.53868e+9 
           3070      3.48561e+9 
           3090      3.35387e+9 
           3110      3.33323e+9 
           3130      3.23713e+9 
           3150      3.18347e+9 
           3170      3.10774e+9 
           3190      3.04353e+9 
           3210      2.97257e+9 
           3230      2.90586e+9 
           3250      2.86425e+9 
           3270      2.78155e+9 
           3290      2.73408e+9 
           3310      2.67504e+9 
           3330       2.6088e+9 
           3350      2.55307e+9 
           3370      2.50109e+9 
           3390      2.46977e+9 
           3410      2.41749e+9 
           3430      2.37606e+9 
           3450      2.31323e+9 
           3470      2.27272e+9 
           3490      2.22565e+9 
           3510      2.18572e+9 
           3530      2.15343e+9 
           3550      2.10637e+9 
           3570      2.06731e+9 
           3590      2.01763e+9 
           3610      1.98377e+9 
           3630      1.94247e+9 
           3640      1.92553e+9 
           3650      1.86322e+9 
           3670      1.83659e+9 
           3690      1.79952e+9 
           3710      1.73353e+9 
           3730      1.69054e+9 
           3750      1.71628e+9 
           3770      1.68608e+9 
           3790      1.73765e+9 
           3810      1.77162e+9 
           3830      1.60758e+9 
           3850      1.75856e+9 
           3870      1.70084e+9 
           3890      1.52182e+9 
           3910      1.70261e+9 
           3930      1.64635e+9 
           3950      1.60898e+9 
           3970      1.40082e+9 
           3990      1.57629e+9 
           4010      1.55065e+9 
           4030      1.49377e+9 
           4050      1.50184e+9 
           4070      1.43438e+9 
           4090      1.36215e+9 
           4110       1.2588e+9 
           4130      1.37207e+9 
           4150      1.35741e+9 
           4170      1.35165e+9 
           4190      1.32599e+9 
           4210      1.30469e+9 
           4230      1.28484e+9 
           4250      1.24812e+9 
           4270      1.21923e+9 
           4290      1.19517e+9 
           4310      1.16462e+9 
           4330      1.10883e+9 
           4350      1.03264e+9 
           4370      1.11556e+9 
           4390      1.09826e+9 
           4410      1.08466e+9 
           4430      1.07731e+9 
           4450      1.05606e+9 
           4470      1.02244e+9 
           4490      1.02602e+9 
           4510       1.0082e+9 
           4530      9.97812e+8 
           4550      9.77358e+8 
           4570      9.65864e+8 
           4590      9.47023e+8 
           4610      9.27833e+8 
           4630      9.10608e+8 
           4650      8.68852e+8 
           4670       8.8269e+8 
           4690      8.67676e+8 
           4710      8.46992e+8 
           4730      8.54949e+8 
           4750      8.39165e+8 
           4770       8.3259e+8 
           4790       8.1933e+8 
           4810      8.03852e+8 
           4830      7.87826e+8 
           4850      7.54836e+8 
           4870       6.9002e+8 
           4890      7.53314e+8 
           4910      7.43408e+8 
           4930      7.23082e+8 
           4950      7.17865e+8 
           4970      7.14753e+8 
           4990      7.03861e+8 
           5010      6.80166e+8 
           5030      6.79459e+8 
           5050      6.68799e+8 
           5070      6.63533e+8 
           5090      6.52614e+8 
           5110      6.42884e+8 
           5130      6.32885e+8 
           5150      6.24087e+8 
           5170      6.14603e+8 
           5190      6.07008e+8 
           5210      5.98665e+8 
           5230      5.90459e+8 
           5250      5.81185e+8 
           5270      5.72279e+8 
           5290      5.65913e+8 
           5310       5.5769e+8 
           5330      5.50184e+8 
           5350      5.42511e+8 
           5370      5.35055e+8 
           5390      5.26735e+8 
           5410       5.1748e+8 
           5430      5.13343e+8 
           5450       5.0598e+8 
           5470      4.99038e+8 
           5490      4.92321e+8 
           5510      4.85763e+8 
           5530       4.7909e+8 
           5550      4.73075e+8 
           5570      4.66539e+8 
           5590      4.59517e+8 
           5610      4.54355e+8 
           5630      4.48399e+8 
           5650      4.42127e+8 
           5670      4.35404e+8 
           5690      4.25821e+8 
           5710      4.19203e+8 
           5730      4.14377e+8 
           5750      4.07774e+8 
           5770      4.04137e+8 
           5790      3.98765e+8 
           5810      3.93446e+8 
           5830      3.88025e+8 
           5850      3.84298e+8 
           5870      3.71909e+8 
           5890      3.74068e+8 
           5910      3.70429e+8 
           5930      3.66178e+8 
           5950      3.61997e+8 
           5970      3.58846e+8 
           5990      3.54207e+8 
           6010      3.50403e+8 
           6030      3.45648e+8 
           6050      3.41576e+8 
           6070      3.37559e+8 
           6090      3.33487e+8 
           6110      3.29249e+8 
           6130      3.25299e+8 
           6150      3.20607e+8 
           6170       3.1682e+8 
           6190      3.13498e+8 
           6210      3.09899e+8 
           6230       3.0602e+8 
           6250      3.02097e+8 
           6270      2.98707e+8 
           6290      2.95192e+8 
           6310      2.91242e+8 
           6330      2.88229e+8 
           6350      2.84492e+8 
           6370       2.8151e+8 
           6390      2.78145e+8 
           6410      2.74771e+8 
           6430      2.71716e+8 
           6450      2.68458e+8 
           6470      2.64659e+8 
           6490      2.61671e+8 
           6510      2.58394e+8 
           6530      2.54923e+8 
           6550      2.48513e+8 
           6570      2.25183e+8 
           6590      2.45574e+8 
           6610      2.44349e+8 
           6630      2.41806e+8 
           6650      2.38786e+8 
           6670      2.34147e+8 
           6690      2.31461e+8 
           6710      2.30669e+8 
           6730      2.27687e+8 
           6750      2.25843e+8 
           6770      2.23492e+8 
           6790      2.20306e+8 
           6810      2.18453e+8 
           6830      2.15859e+8 
           6850      2.13677e+8 
           6870      2.11238e+8 
           6890      2.08347e+8 
           6910       2.0588e+8 
           6930      2.04544e+8 
           6950      2.02316e+8 
           6970      2.00125e+8 
           6990      1.97925e+8 
           7010      1.95647e+8 
           7030        1.934e+8 
           7050       1.9141e+8 
           7070      1.86944e+8 
           7090      1.87502e+8 
           7110      1.85011e+8 
           7130      1.83196e+8 
           7150      1.81605e+8 
           7170      1.79509e+8 
           7190      1.77747e+8 
           7210      1.75928e+8 
           7230      1.72708e+8 
           7250      1.71828e+8 
           7270      1.70449e+8 
           7290      1.67537e+8 
           7310      1.66862e+8 
           7330      1.65153e+8 
           7350      1.63446e+8 
           7370      1.61791e+8 
           7390      1.60137e+8 
           7410      1.58484e+8 
           7430      1.56868e+8 
           7450      1.55219e+8 
           7470      1.53005e+8 
           7490       1.5184e+8 
           7510      1.50518e+8 
           7530      1.48935e+8 
           7550      1.47566e+8 
           7570       1.4607e+8 
           7590      1.44347e+8 
           7610      1.42848e+8 
           7630      1.41666e+8 
           7650      1.40225e+8 
           7670      1.38937e+8 
           7690      1.37355e+8 
           7710      1.36111e+8 
           7730      1.34525e+8 
           7750      1.33487e+8 
           7770      1.32183e+8 
           7790      1.30928e+8 
           7810      1.29609e+8 
           7830      1.28395e+8 
           7850      1.27173e+8 
           7870      1.25664e+8 
           7890      1.24398e+8 
           7910      1.23475e+8 
           7930       1.2226e+8 
           7950      1.21157e+8 
           7970      1.19891e+8 
           7990      1.18796e+8 
           8010      1.17646e+8 
           8030      1.16499e+8 
           8050      1.15462e+8 
           8070      1.14364e+8 
           8090      1.13183e+8 
           8110      1.11457e+8 
           8130      1.11166e+8 
           8150      1.10014e+8 
           8170      1.09115e+8 
           8190      1.07521e+8 
           8210      1.06311e+8 
           8230      1.05238e+8 
           8250      1.04651e+8 
           8270      1.02846e+8 
           8290      1.02624e+8 
           8310      1.01825e+8 
           8330      1.00789e+8 
           8350      9.94958e+7 
           8370      9.88004e+7 
           8390      9.81373e+7 
           8410      9.71597e+7 
           8430      9.63175e+7 
           8450      9.50127e+7 
           8470      9.45225e+7 
           8490      9.36178e+7 
           8510      9.24031e+7 
           8530      9.20376e+7 
           8550       9.0381e+7 
           8570      9.10676e+7 
           8590      8.83057e+7 
