# Kurucz ODFNEW /NOVER (2003)
# teff = 31000 K (value for the effective temperature for the model. Temperatures are given in K)
# logg = 5 log(cm/s2) (value for Log(G) for the model.)
# meta = -1.5  (value for the Metallicity for the model.)
# lh = 1.25  (l/Hp where l is the  mixing length of the convective element and Hp is the pressure scale height)
# vtur = 2 km/s (Microturbulence velocity)
# alpha = 0.4  (Alpha)
#
# column 1: WAVELENGTH (ANGSTROM), Wavelength in Angstrom
# column 2: FLUX (ERG/CM2/S/A), Flux in erg/cm2/s/A
          147.2      8.41719e-8 
            151      2.61766e-7 
          155.2      8.60078e-7 
          158.8      2.26897e-6 
            162      5.18556e-6 
            166      1.39298e-5 
          170.3      3.82496e-5 
          173.4      7.68017e-5 
          176.8     0.000160318 
          180.2     0.000325426 
          181.7     0.000440917 
          186.1      0.00104543 
            191      0.00260853 
          193.9      0.00438311 
          198.4      0.00951477 
          201.8        0.016698 
            205       0.0278632 
          210.5       0.0648139 
          216.2        0.148492 
          219.8        0.245148 
            223        0.377578 
          226.8        0.620922 
            230         115.184 
            234         354.575 
            240         646.294 
          246.5         1188.67 
          252.4         2024.16 
          256.8         2561.91 
            260         3821.96 
            264         5018.03 
          268.5         7264.19 
          273.5         10511.8 
          278.5         14765.2 
            284         22650.2 
            290         33207.3 
            296         47723.2 
            301         62076.5 
            308         86855.4 
            318          170114 
            328          274773 
            338          452594 
            348          704252 
            357      1.09476e+6 
            366      1.61611e+6 
            375       2.1866e+6 
            385      3.15693e+6 
            395       4.4022e+6 
            405      5.94682e+6 
            414      7.82556e+6 
            422      9.56928e+6 
            430      1.18267e+7 
            441       1.5577e+7 
            451      1.99254e+7 
            460      2.41064e+7 
            470      3.00974e+7 
            480      3.67965e+7 
            490      4.45972e+7 
            500      5.42023e+7 
            506      2.41426e+8 
            512       1.0611e+9 
            520       1.0791e+9 
            530       1.1784e+9 
            540      1.09022e+9 
            550      1.28362e+9 
            560       1.3594e+9 
            570      1.43851e+9 
            580      1.36044e+9 
            590      1.52423e+9 
            600       1.5539e+9 
            610      1.63428e+9 
            620      1.71136e+9 
            630      1.78057e+9 
            640      1.77475e+9 
            650      1.88507e+9 
            658       1.9207e+9 
            665      1.97222e+9 
            675      1.99335e+9 
            685       1.9937e+9 
            695      2.18952e+9 
            705       2.1706e+9 
            716       2.3223e+9 
            726      2.35847e+9 
            735      2.43886e+9 
            745      2.52479e+9 
            755      2.58319e+9 
            765       2.6527e+9 
            775      2.73378e+9 
            785      2.83055e+9 
            795      2.87054e+9 
            805      2.93413e+9 
            815       2.9827e+9 
            825      3.07959e+9 
            835       2.9778e+9 
            845      3.17887e+9 
            855      3.23059e+9 
            865      3.31181e+9 
            875      3.38445e+9 
            885      3.45736e+9 
            895      3.52088e+9 
            905      3.54041e+9 
            915      3.79998e+9 
            925     1.35854e+10 
            935     2.74058e+10 
            945     5.79717e+10 
            955     7.20434e+10 
            965     9.50253e+10 
            975     4.35451e+10 
            985     9.90374e+10 
            995     9.06145e+10 
           1005     9.56421e+10 
           1015     8.93239e+10 
           1025     3.99633e+10 
           1035     8.19733e+10 
           1045     9.27554e+10 
           1055     9.03013e+10 
           1065     8.23459e+10 
           1075     8.34224e+10 
           1085     7.54883e+10 
           1095     8.12072e+10 
           1105     7.75658e+10 
           1115     7.56474e+10 
           1125     6.90191e+10 
           1135     7.25545e+10 
           1145     6.80025e+10 
           1155     6.79258e+10 
           1165     6.66981e+10 
           1175     5.62846e+10 
           1185     6.22979e+10 
           1195     5.95423e+10 
           1205     5.31927e+10 
           1215     2.63747e+10 
           1225     5.20524e+10 
           1235     5.57156e+10 
           1245     5.41971e+10 
           1255     5.37387e+10 
           1265     5.26405e+10 
           1275     5.17833e+10 
           1285     5.06222e+10 
           1295     4.66895e+10 
           1305      4.6866e+10 
           1315     4.71341e+10 
           1325     4.54318e+10 
           1335     4.40139e+10 
           1345     4.34035e+10 
           1355     4.29929e+10 
           1365     4.13119e+10 
           1375     4.07012e+10 
           1385     3.98524e+10 
           1395     3.59669e+10 
           1405     3.59148e+10 
           1415     3.69481e+10 
           1425      3.5795e+10 
           1435     3.54661e+10 
           1442     3.52513e+10 
           1447     3.47922e+10 
           1455     3.40636e+10 
           1465     3.32912e+10 
           1475     3.25591e+10 
           1485     3.19803e+10 
           1495       3.121e+10 
           1505     3.00682e+10 
           1512     2.98431e+10 
           1517     2.95632e+10 
           1525     2.89817e+10 
           1535     2.74574e+10 
           1545     2.66138e+10 
           1555     2.59657e+10 
           1565     2.60472e+10 
           1575     2.58845e+10 
           1585     2.55094e+10 
           1595     2.50973e+10 
           1605     2.41011e+10 
           1615     2.34814e+10 
           1625     2.32404e+10 
           1635     2.28499e+10 
           1645     2.18532e+10 
           1655      2.2323e+10 
           1665     2.18817e+10 
           1672     2.14536e+10 
           1677     2.17358e+10 
           1685     2.13043e+10 
           1695     2.08229e+10 
           1705     2.03305e+10 
           1715     1.97841e+10 
           1725     1.93516e+10 
           1735     1.93269e+10 
           1745     1.89415e+10 
           1755     1.86027e+10 
           1765     1.81398e+10 
           1775     1.78403e+10 
           1785     1.75783e+10 
           1795     1.73549e+10 
           1805     1.71157e+10 
           1815     1.67161e+10 
           1825     1.64418e+10 
           1835     1.61747e+10 
           1845      1.5566e+10 
           1855     1.52278e+10 
           1865      1.5105e+10 
           1875     1.49808e+10 
           1885      1.4431e+10 
           1895     1.40063e+10 
           1905     1.41005e+10 
           1915     1.36527e+10 
           1925      1.3318e+10 
           1935     1.33266e+10 
           1945     1.32566e+10 
           1955     1.26877e+10 
           1967      1.2731e+10 
           1976     1.27002e+10 
           1984     1.23453e+10 
           1995     1.19739e+10 
           2005     1.20215e+10 
           2015     1.18997e+10 
           2025     1.17549e+10 
           2035     1.14659e+10 
           2045      1.1282e+10 
           2055     1.03678e+10 
           2065     1.01272e+10 
           2074     1.01752e+10 
           2078      9.98776e+9 
           2085     1.00283e+10 
           2095       1.001e+10 
           2105     1.02195e+10 
           2115     1.01762e+10 
           2125     1.00372e+10 
           2135      9.88225e+9 
           2145      9.71336e+9 
           2155      9.59665e+9 
           2165      9.41899e+9 
           2175      9.31585e+9 
           2185      9.14082e+9 
           2195      9.05225e+9 
           2205      8.91687e+9 
           2215      8.73364e+9 
           2225       8.6477e+9 
           2235      8.51468e+9 
           2245      8.39639e+9 
           2255      8.21688e+9 
           2265       8.1511e+9 
           2275      8.03301e+9 
           2285      7.90513e+9 
           2295      7.66258e+9 
           2305       7.6324e+9 
           2315      7.56801e+9 
           2325      7.46263e+9 
           2335      7.35048e+9 
           2345      7.25435e+9 
           2355      7.15144e+9 
           2365      7.05068e+9 
           2375      6.94735e+9 
           2385      6.80378e+9 
           2395      6.74642e+9 
           2405      6.66047e+9 
           2415      6.56473e+9 
           2425      6.47803e+9 
           2435      6.37982e+9 
           2445      6.29768e+9 
           2455      6.21223e+9 
           2465      6.13024e+9 
           2475      6.04495e+9 
           2485      5.96358e+9 
           2495      5.62629e+9 
           2505      5.79561e+9 
           2513      5.64017e+9 
           2518      5.67317e+9 
           2525      5.64991e+9 
           2535      5.57635e+9 
           2545      5.47172e+9 
           2555      5.41668e+9 
           2565      5.35385e+9 
           2575      5.28695e+9 
           2585      5.21907e+9 
           2595      5.15095e+9 
           2605      5.10826e+9 
           2615      5.04155e+9 
           2625      4.97708e+9 
           2635      4.91149e+9 
           2645      4.84609e+9 
           2655      4.78037e+9 
           2665      4.70791e+9 
           2675      4.64192e+9 
           2685      4.60809e+9 
           2695      4.51503e+9 
           2705      4.48882e+9 
           2715      4.43409e+9 
           2725      4.34458e+9 
           2735       4.3035e+9 
           2745      4.27025e+9 
           2755      4.21876e+9 
           2765      4.13109e+9 
           2775      4.11781e+9 
           2785      4.06566e+9 
           2795      3.97889e+9 
           2805      3.95694e+9 
           2815      3.92103e+9 
           2825      3.83318e+9 
           2835      3.79381e+9 
           2845      3.78148e+9 
           2855      3.73405e+9 
           2865      3.68976e+9 
           2875      3.64627e+9 
           2885      3.60425e+9 
           2895      3.56137e+9 
           2910      3.49676e+9 
           2930      3.41676e+9 
           2950      3.30968e+9 
           2970      3.26128e+9 
           2990      3.18615e+9 
           3010      3.11131e+9 
           3030      3.04276e+9 
           3050      2.97625e+9 
           3070      2.91114e+9 
           3090      2.83645e+9 
           3110      2.78318e+9 
           3130      2.72212e+9 
           3150      2.66313e+9 
           3170      2.60594e+9 
           3190      2.52687e+9 
           3210      2.49127e+9 
           3230      2.44084e+9 
           3250       2.3897e+9 
           3270      2.34125e+9 
           3290      2.28949e+9 
           3310      2.24536e+9 
           3330      2.19823e+9 
           3350       2.1496e+9 
           3370      2.10903e+9 
           3390      2.06704e+9 
           3410      2.02528e+9 
           3430      1.97672e+9 
           3450      1.93025e+9 
           3470      1.89674e+9 
           3490      1.85923e+9 
           3510      1.82468e+9 
           3530      1.79061e+9 
           3550      1.75647e+9 
           3570      1.73362e+9 
           3590      1.68545e+9 
           3610      1.66153e+9 
           3630      1.62203e+9 
           3640      1.62064e+9 
           3650       1.5881e+9 
           3670      1.56502e+9 
           3690      1.53701e+9 
           3710      1.48739e+9 
           3730        1.444e+9 
           3750      1.41867e+9 
           3770      1.37252e+9 
           3790      1.40753e+9 
           3810      1.45329e+9 
           3830      1.28123e+9 
           3850      1.48148e+9 
           3870      1.50444e+9 
           3890      1.19837e+9 
           3910      1.47455e+9 
           3930       1.4671e+9 
           3950      1.42511e+9 
           3970         1.11e+9 
           3990      1.36346e+9 
           4010      1.36744e+9 
           4030       1.2816e+9 
           4050       1.3367e+9 
           4070      1.29729e+9 
           4090      1.17574e+9 
           4110      1.03435e+9 
           4130      1.21688e+9 
           4150      1.21006e+9 
           4170      1.20286e+9 
           4190      1.18265e+9 
           4210      1.16385e+9 
           4230      1.14415e+9 
           4250      1.12225e+9 
           4270      1.09955e+9 
           4290      1.08022e+9 
           4310      1.05233e+9 
           4330      9.39608e+8 
           4350      8.60072e+8 
           4370      9.96798e+8 
           4390      9.62657e+8 
           4410      9.75699e+8 
           4430      9.60401e+8 
           4450      9.46708e+8 
           4470      8.83596e+8 
           4490      9.14573e+8 
           4510      9.02442e+8 
           4530      8.87864e+8 
           4550      8.71796e+8 
           4570      8.58175e+8 
           4590      8.43954e+8 
           4610       8.3101e+8 
           4630      8.18046e+8 
           4650      7.99072e+8 
           4670      7.91344e+8 
           4690       7.7632e+8 
           4710      7.55748e+8 
           4730      7.56106e+8 
           4750      7.43992e+8 
           4770      7.33179e+8 
           4790      7.21388e+8 
           4810      7.07879e+8 
           4830      6.90854e+8 
           4850      6.29305e+8 
           4870      5.65073e+8 
           4890      6.56627e+8 
           4910      6.53789e+8 
           4930      6.28391e+8 
           4950      6.37592e+8 
           4970       6.2913e+8 
           4990       6.1974e+8 
           5010      6.02224e+8 
           5030      6.01435e+8 
           5050      5.89221e+8 
           5070      5.84039e+8 
           5090      5.75445e+8 
           5110      5.67097e+8 
           5130      5.58833e+8 
           5150      5.50751e+8 
           5170      5.42792e+8 
           5190       5.3512e+8 
           5210      5.27453e+8 
           5230      5.20011e+8 
           5250      5.12625e+8 
           5270      5.05378e+8 
           5290      4.98279e+8 
           5310      4.91286e+8 
           5330       4.8445e+8 
           5350      4.77675e+8 
           5370       4.7108e+8 
           5390      4.64517e+8 
           5410      4.57717e+8 
           5430       4.5186e+8 
           5450      4.45657e+8 
           5470      4.39597e+8 
           5490      4.33637e+8 
           5510      4.27765e+8 
           5530      4.21991e+8 
           5550      4.16326e+8 
           5570      4.10743e+8 
           5590      4.05253e+8 
           5610      3.99855e+8 
           5630      3.94559e+8 
           5650      3.89304e+8 
           5670      3.84101e+8 
           5690      3.78893e+8 
           5710      3.74105e+8 
           5730      3.69272e+8 
           5750      3.64304e+8 
           5770      3.59768e+8 
           5790      3.55118e+8 
           5810      3.50546e+8 
           5830      3.46006e+8 
           5850      3.41586e+8 
           5870      3.25836e+8 
           5890      3.31858e+8 
           5910      3.28677e+8 
           5930      3.24536e+8 
           5950      3.20442e+8 
           5970      3.16481e+8 
           5990      3.12491e+8 
           6010      3.08611e+8 
           6030      3.04764e+8 
           6050      3.01003e+8 
           6070      2.97294e+8 
           6090      2.93628e+8 
           6110      2.90024e+8 
           6130       2.8648e+8 
           6150      2.82947e+8 
           6170      2.79532e+8 
           6190      2.76146e+8 
           6210      2.72807e+8 
           6230      2.69524e+8 
           6250      2.66278e+8 
           6270      2.63087e+8 
           6290      2.59951e+8 
           6310      2.56848e+8 
           6330      2.53808e+8 
           6350      2.50782e+8 
           6370      2.47836e+8 
           6390      2.44921e+8 
           6410      2.42039e+8 
           6430      2.39214e+8 
           6450      2.36429e+8 
           6470      2.33637e+8 
           6490      2.30912e+8 
           6510      2.27788e+8 
           6530      2.23948e+8 
           6550      2.12089e+8 
           6570      1.88841e+8 
           6590      2.14536e+8 
           6610      2.14663e+8 
           6630      2.12924e+8 
           6650      2.10699e+8 
           6670      2.05864e+8 
           6690      2.03591e+8 
           6710      2.03685e+8 
           6730      2.01361e+8 
           6750      1.99161e+8 
           6770      1.96942e+8 
           6790      1.94705e+8 
           6810      1.92597e+8 
           6830      1.90453e+8 
           6850      1.88363e+8 
           6870      1.86294e+8 
           6890       1.8423e+8 
           6910      1.82202e+8 
           6930       1.8025e+8 
           6950      1.78294e+8 
           6970      1.76365e+8 
           6990      1.74455e+8 
           7010      1.72579e+8 
           7030      1.70722e+8 
           7050      1.68891e+8 
           7070      1.64409e+8 
           7090      1.65304e+8 
           7110      1.63541e+8 
           7130      1.61809e+8 
           7150      1.60102e+8 
           7170      1.58397e+8 
           7190      1.56744e+8 
           7210      1.55101e+8 
           7230      1.53271e+8 
           7250      1.51846e+8 
           7270      1.50291e+8 
           7290      1.47497e+8 
           7310      1.47178e+8 
           7330      1.45667e+8 
           7350      1.44171e+8 
           7370       1.4269e+8 
           7390      1.41222e+8 
           7410      1.39781e+8 
           7430      1.38354e+8 
           7450       1.3696e+8 
           7470      1.35526e+8 
           7490      1.34199e+8 
           7510       1.3281e+8 
           7530      1.31508e+8 
           7550      1.30191e+8 
           7570      1.28886e+8 
           7590      1.27593e+8 
           7610      1.26305e+8 
           7630      1.25068e+8 
           7650      1.23822e+8 
           7670      1.22601e+8 
           7690      1.21391e+8 
           7710      1.20191e+8 
           7730      1.19009e+8 
           7750      1.17844e+8 
           7770      1.16683e+8 
           7790      1.15556e+8 
           7810      1.14379e+8 
           7830      1.13322e+8 
           7850      1.12323e+8 
           7870      1.11212e+8 
           7890      1.10104e+8 
           7910      1.09109e+8 
           7930      1.08062e+8 
           7950      1.07018e+8 
           7970      1.05924e+8 
           7990      1.04975e+8 
           8010      1.03959e+8 
           8030      1.02904e+8 
           8050      1.01905e+8 
           8070      1.00967e+8 
           8090       9.9852e+7 
           8110      9.89707e+7 
           8130      9.81423e+7 
           8150      9.71565e+7 
           8170      9.63427e+7 
           8190      9.52999e+7 
           8210      9.42381e+7 
           8230      9.35359e+7 
           8250      9.27121e+7 
           8270      9.15041e+7 
           8290      9.09918e+7 
           8310      9.02052e+7 
           8330      8.93274e+7 
           8350      8.81813e+7 
           8370      8.76206e+7 
           8390      8.69411e+7 
           8410      8.61499e+7 
           8430      8.53335e+7 
           8450        8.407e+7 
           8470      8.38152e+7 
           8490      8.29034e+7 
           8510      8.22905e+7 
           8530      8.13665e+7 
           8550      8.06153e+7 
           8570      8.02241e+7 
