# Kurucz ODFNEW /NOVER (2003)
# teff = 32000 K (value for the effective temperature for the model. Temperatures are given in K)
# logg = 4 log(cm/s2) (value for Log(G) for the model.)
# meta = 0.2  (value for the Metallicity for the model.)
# lh = 1.25  (l/Hp where l is the  mixing length of the convective element and Hp is the pressure scale height)
# vtur = 2 km/s (Microturbulence velocity)
# alpha = 0.4  (Alpha)
#
# column 1: WAVELENGTH (ANGSTROM), Wavelength in Angstrom
# column 2: FLUX (ERG/CM2/S/A), Flux in erg/cm2/s/A
          147.2      3.50878e-7 
            151      1.00103e-6 
          155.2      3.00592e-6 
          158.8      7.37745e-6 
            162      1.58722e-5 
            166      3.97756e-5 
          170.3     0.000101316 
          173.4      0.00019492 
          176.8     0.000390779 
          180.2     0.000756625 
          181.7      0.00101756 
          186.1       0.0022816 
            191      0.00538766 
          193.9      0.00876702 
          198.4       0.0182926 
          201.8       0.0310426 
            205        0.050276 
          210.5        0.111556 
          216.2        0.242186 
          219.8        0.392785 
            223        0.591916 
          226.8         1.00096 
            230         271.445 
            234         571.087 
            240         945.944 
          246.5         1652.94 
          252.4         2828.41 
          256.8         3989.05 
            260         6669.11 
            264         10123.6 
          268.5         15629.9 
          273.5         22093.9 
          278.5           28505 
            284         68735.7 
            290          101435 
            296          137086 
            301          199677 
            308          609668 
            318      1.30196e+6 
            328      1.91691e+6 
            338      3.48423e+6 
            348       5.4358e+6 
            357       1.2787e+7 
            366      2.87168e+7 
            375      3.43952e+7 
            385      5.27637e+7 
            395      1.14565e+8 
            405      1.43174e+8 
            414      2.13336e+8 
            422       2.3892e+8 
            430      2.70618e+8 
            441      3.33627e+8 
            451      3.73523e+8 
            460       3.8102e+8 
            470      4.63297e+8 
            480      5.43331e+8 
            490      5.59398e+8 
            500      7.14686e+8 
            506      9.56243e+8 
            512      7.57744e+9 
            520      7.13403e+9 
            530      6.51853e+9 
            540      6.35233e+9 
            550      7.00767e+9 
            560      9.72517e+9 
            570     1.09923e+10 
            580      9.98535e+9 
            590     1.05997e+10 
            600      6.91455e+9 
            610      9.76368e+9 
            620     1.24025e+10 
            630     1.19321e+10 
            640     1.16919e+10 
            650     1.06768e+10 
            658      7.49066e+9 
            665     1.05686e+10 
            675      1.2931e+10 
            685      9.45868e+9 
            695     1.33463e+10 
            705      8.98496e+9 
            716     1.46494e+10 
            726     1.41807e+10 
            735     1.42756e+10 
            745      1.2532e+10 
            755     1.27778e+10 
            765     1.35474e+10 
            775     1.43886e+10 
            785     1.44346e+10 
            795     1.48004e+10 
            805      1.3671e+10 
            815     1.34987e+10 
            825     1.48301e+10 
            835      1.0712e+10 
            845     1.40203e+10 
            855     1.38267e+10 
            865     1.43572e+10 
            875     1.44285e+10 
            885     1.47229e+10 
            895     1.47922e+10 
            905     1.42311e+10 
            915     1.60762e+10 
            925     4.56941e+10 
            935     6.85307e+10 
            945     8.19079e+10 
            955     8.82564e+10 
            965     9.55391e+10 
            975     3.95159e+10 
            985     7.46023e+10 
            995      6.8426e+10 
           1005     7.10099e+10 
           1015     7.60791e+10 
           1025     6.47697e+10 
           1035     7.36701e+10 
           1045     8.53486e+10 
           1055      8.0577e+10 
           1065     6.81798e+10 
           1075     7.14812e+10 
           1085     6.67231e+10 
           1095     7.06722e+10 
           1105     6.72669e+10 
           1115       6.559e+10 
           1125     4.88792e+10 
           1135     6.26671e+10 
           1145     6.05026e+10 
           1155     5.65903e+10 
           1165     5.62086e+10 
           1175     3.60923e+10 
           1185     5.09362e+10 
           1195     4.89766e+10 
           1205     4.62627e+10 
           1215     3.95225e+10 
           1225     4.61929e+10 
           1235     4.92763e+10 
           1245     4.71001e+10 
           1255     4.71275e+10 
           1265     4.82264e+10 
           1275     4.99386e+10 
           1285     4.97507e+10 
           1295     4.53866e+10 
           1305      4.5605e+10 
           1315     4.86656e+10 
           1325     4.68716e+10 
           1335     4.53646e+10 
           1345     4.49674e+10 
           1355     4.41625e+10 
           1365     4.22359e+10 
           1375     4.07231e+10 
           1385     3.89372e+10 
           1395     2.65566e+10 
           1405     2.88631e+10 
           1415     3.75031e+10 
           1425     3.37746e+10 
           1435     3.61376e+10 
           1442      3.5697e+10 
           1447     3.55353e+10 
           1455     3.36757e+10 
           1465     3.26716e+10 
           1475     3.31842e+10 
           1485     3.30361e+10 
           1495      3.1982e+10 
           1505     3.07717e+10 
           1512     3.01777e+10 
           1517     3.04931e+10 
           1525     2.93527e+10 
           1535     2.54924e+10 
           1545     2.12794e+10 
           1555     2.14148e+10 
           1565     2.43736e+10 
           1575     2.57083e+10 
           1585     2.56189e+10 
           1595     2.56289e+10 
           1605     2.42883e+10 
           1615     2.31348e+10 
           1625     2.36228e+10 
           1635     2.39491e+10 
           1645     2.39554e+10 
           1655     2.38194e+10 
           1665     2.33235e+10 
           1672     2.14994e+10 
           1677     2.53445e+10 
           1685     2.40576e+10 
           1695     2.31359e+10 
           1705     2.28809e+10 
           1715     2.17157e+10 
           1725     2.08683e+10 
           1735     2.16046e+10 
           1745     2.14245e+10 
           1755     2.11065e+10 
           1765     2.07942e+10 
           1775      1.9983e+10 
           1785     2.02847e+10 
           1795     1.98372e+10 
           1805     1.98088e+10 
           1815     1.91771e+10 
           1825     1.89359e+10 
           1835     1.88621e+10 
           1845     1.77927e+10 
           1855     1.81247e+10 
           1865     1.81366e+10 
           1875     1.76544e+10 
           1885     1.67583e+10 
           1895     1.63532e+10 
           1905     1.68359e+10 
           1915     1.62846e+10 
           1925     1.52903e+10 
           1935     1.62223e+10 
           1945     1.63906e+10 
           1955     1.48463e+10 
           1967      1.5545e+10 
           1976     1.59392e+10 
           1984     1.53123e+10 
           1995     1.49375e+10 
           2005     1.51872e+10 
           2015     1.51379e+10 
           2025     1.51045e+10 
           2035     1.44261e+10 
           2045     1.42466e+10 
           2055     1.16943e+10 
           2065     1.13251e+10 
           2074     1.18699e+10 
           2078     1.17318e+10 
           2085     1.25371e+10 
           2095     1.29026e+10 
           2105     1.31102e+10 
           2115     1.32501e+10 
           2125      1.2973e+10 
           2135      1.2894e+10 
           2145     1.26283e+10 
           2155     1.26598e+10 
           2165      1.2122e+10 
           2175     1.23038e+10 
           2185     1.19776e+10 
           2195     1.21525e+10 
           2205     1.19566e+10 
           2215     1.15409e+10 
           2225     1.15676e+10 
           2235     1.13858e+10 
           2245     1.12338e+10 
           2255     1.09069e+10 
           2265     1.09386e+10 
           2275     1.08332e+10 
           2285     1.04889e+10 
           2295      9.37563e+9 
           2305     1.00915e+10 
           2315      9.99321e+9 
           2325      9.99245e+9 
           2335      9.83381e+9 
           2345      9.73025e+9 
           2355      9.53231e+9 
           2365      9.37105e+9 
           2375      9.16072e+9 
           2385      8.81517e+9 
           2395      8.83432e+9 
           2405      8.83851e+9 
           2415      8.67116e+9 
           2425      8.63182e+9 
           2435      8.47593e+9 
           2445       8.3872e+9 
           2455      8.26464e+9 
           2465      8.15866e+9 
           2475      8.01844e+9 
           2485      7.62765e+9 
           2495      5.14432e+9 
           2505      7.11851e+9 
           2513      7.20032e+9 
           2518       7.3001e+9 
           2525      7.51199e+9 
           2535      7.47863e+9 
           2545      7.27864e+9 
           2555      7.23966e+9 
           2565      7.13064e+9 
           2575      7.08503e+9 
           2585      7.00551e+9 
           2595      6.86323e+9 
           2605      6.84617e+9 
           2615      6.69419e+9 
           2625      6.65477e+9 
           2635      6.58428e+9 
           2645       6.4775e+9 
           2655      6.40956e+9 
           2665      6.25122e+9 
           2675      6.10506e+9 
           2685      6.14694e+9 
           2695      6.01271e+9 
           2705      5.96061e+9 
           2715      5.88254e+9 
           2725      5.81662e+9 
           2735      5.69459e+9 
           2745      5.71467e+9 
           2755      5.63405e+9 
           2765       5.5505e+9 
           2775      5.53845e+9 
           2785      5.42201e+9 
           2795      5.22944e+9 
           2805      5.28846e+9 
           2815      5.26379e+9 
           2825      5.19544e+9 
           2835      5.08807e+9 
           2845      5.08867e+9 
           2855      4.99901e+9 
           2865      4.92746e+9 
           2875      4.86544e+9 
           2885      4.81864e+9 
           2895      4.76113e+9 
           2910      4.62854e+9 
           2930      4.58268e+9 
           2950      4.45625e+9 
           2970      4.35672e+9 
           2990      4.22025e+9 
           3010      4.07874e+9 
           3030      3.97587e+9 
           3050      3.94095e+9 
           3070      3.87918e+9 
           3090      3.74413e+9 
           3110      3.72114e+9 
           3130      3.60983e+9 
           3150      3.55688e+9 
           3170      3.46888e+9 
           3190      3.40323e+9 
           3210      3.30896e+9 
           3230       3.2424e+9 
           3250      3.19798e+9 
           3270      3.09564e+9 
           3290      3.04917e+9 
           3310      2.97918e+9 
           3330      2.90535e+9 
           3350      2.83501e+9 
           3370      2.78093e+9 
           3390      2.75051e+9 
           3410      2.69051e+9 
           3430      2.65083e+9 
           3450      2.57433e+9 
           3470      2.53425e+9 
           3490      2.48312e+9 
           3510      2.43634e+9 
           3530      2.39892e+9 
           3550      2.34599e+9 
           3570      2.30059e+9 
           3590      2.24849e+9 
           3610      2.20674e+9 
           3630      2.16247e+9 
           3640      2.13531e+9 
           3650       2.0376e+9 
           3670      2.00679e+9 
           3690      1.96705e+9 
           3710      1.89732e+9 
           3730      1.86538e+9 
           3750      1.88848e+9 
           3770      1.85835e+9 
           3790      1.91185e+9 
           3810      1.94182e+9 
           3830      1.77731e+9 
           3850      1.91965e+9 
           3870       1.8459e+9 
           3890      1.67989e+9 
           3910      1.85475e+9 
           3930      1.79021e+9 
           3950      1.74533e+9 
           3970      1.54273e+9 
           3990      1.71664e+9 
           4010       1.6852e+9 
           4030      1.62743e+9 
           4050      1.63083e+9 
           4070      1.55748e+9 
           4090      1.48218e+9 
           4110      1.38068e+9 
           4130      1.49045e+9 
           4150      1.47293e+9 
           4170      1.46836e+9 
           4190      1.43977e+9 
           4210      1.41258e+9 
           4230      1.39506e+9 
           4250      1.35443e+9 
           4270      1.32475e+9 
           4290      1.29625e+9 
           4310      1.26288e+9 
           4330      1.20874e+9 
           4350      1.13133e+9 
           4370      1.21149e+9 
           4390      1.19217e+9 
           4410      1.17396e+9 
           4430      1.16722e+9 
           4450      1.14386e+9 
           4470      1.11313e+9 
           4490      1.11301e+9 
           4510      1.08855e+9 
           4530      1.07947e+9 
           4550      1.05603e+9 
           4570      1.04711e+9 
           4590      1.02609e+9 
           4610      1.00562e+9 
           4630      9.85244e+8 
           4650      9.35216e+8 
           4670      9.55483e+8 
           4690      9.37435e+8 
           4710      9.20473e+8 
           4730      9.29628e+8 
           4750      9.12583e+8 
           4770       9.0478e+8 
           4790      8.90509e+8 
           4810      8.73593e+8 
           4830      8.56797e+8 
           4850      8.24056e+8 
           4870      7.55305e+8 
           4890      8.18192e+8 
           4910      8.06961e+8 
           4930      7.86942e+8 
           4950      7.79535e+8 
           4970      7.76583e+8 
           4990      7.64788e+8 
           5010      7.38417e+8 
           5030      7.36815e+8 
           5050      7.26367e+8 
           5070      7.20808e+8 
           5090      7.09062e+8 
           5110      6.98329e+8 
           5130      6.87555e+8 
           5150       6.7795e+8 
           5170      6.67345e+8 
           5190      6.59078e+8 
           5210       6.5017e+8 
           5230      6.41295e+8 
           5250      6.30377e+8 
           5270      6.20555e+8 
           5290      6.14579e+8 
           5310      6.05509e+8 
           5330      5.97367e+8 
           5350      5.89158e+8 
           5370      5.80871e+8 
           5390      5.71861e+8 
           5410      5.60111e+8 
           5430      5.57398e+8 
           5450      5.49421e+8 
           5470      5.41759e+8 
           5490      5.34444e+8 
           5510      5.27035e+8 
           5530      5.20027e+8 
           5550      5.13509e+8 
           5570      5.06282e+8 
           5590      4.98109e+8 
           5610      4.93199e+8 
           5630      4.86694e+8 
           5650      4.79915e+8 
           5670      4.72574e+8 
           5690      4.60543e+8 
           5710      4.50204e+8 
           5730      4.45025e+8 
           5750      4.38026e+8 
           5770      4.34089e+8 
           5790      4.28331e+8 
           5810      4.22251e+8 
           5830      4.16843e+8 
           5850      4.13524e+8 
           5870      4.01254e+8 
           5890      4.03399e+8 
           5910      3.99724e+8 
           5930      3.95543e+8 
           5950      3.91547e+8 
           5970      3.88537e+8 
           5990      3.83837e+8 
           6010      3.80045e+8 
           6030      3.74783e+8 
           6050      3.70353e+8 
           6070      3.66015e+8 
           6090      3.61665e+8 
           6110      3.56899e+8 
           6130      3.52639e+8 
           6150      3.47471e+8 
           6170      3.43272e+8 
           6190      3.39937e+8 
           6210      3.36031e+8 
           6230      3.31528e+8 
           6250      3.27336e+8 
           6270      3.23814e+8 
           6290      3.19977e+8 
           6310      3.15303e+8 
           6330      3.12467e+8 
           6350      3.08316e+8 
           6370      3.05167e+8 
           6390      3.01534e+8 
           6410      2.97528e+8 
           6430      2.94523e+8 
           6450       2.9087e+8 
           6470      2.86744e+8 
           6490      2.83396e+8 
           6510      2.79506e+8 
           6530      2.75933e+8 
           6550      2.69781e+8 
           6570      2.45126e+8 
           6590      2.66299e+8 
           6610      2.64724e+8 
           6630      2.62015e+8 
           6650      2.58712e+8 
           6670      2.53446e+8 
           6690      2.50283e+8 
           6710       2.4963e+8 
           6730      2.46376e+8 
           6750      2.44398e+8 
           6770      2.42019e+8 
           6790      2.38667e+8 
           6810      2.36625e+8 
           6830      2.33796e+8 
           6850      2.31373e+8 
           6870      2.28679e+8 
           6890      2.25179e+8 
           6910      2.22772e+8 
           6930      2.21512e+8 
           6950      2.19069e+8 
           6970      2.16705e+8 
           6990      2.14302e+8 
           7010      2.11678e+8 
           7030      2.09195e+8 
           7050      2.07054e+8 
           7070      2.02395e+8 
           7090      2.02986e+8 
           7110      2.00236e+8 
           7130       1.9824e+8 
           7150      1.96594e+8 
           7170       1.9407e+8 
           7190      1.92249e+8 
           7210      1.90415e+8 
           7230      1.86978e+8 
           7250      1.85962e+8 
           7270       1.8447e+8 
           7290      1.81368e+8 
           7310      1.80504e+8 
           7330      1.78713e+8 
           7350       1.7685e+8 
           7370      1.75031e+8 
           7390      1.73264e+8 
           7410      1.71438e+8 
           7430      1.69711e+8 
           7450      1.67851e+8 
           7470      1.65535e+8 
           7490      1.64015e+8 
           7510      1.62782e+8 
           7530      1.61068e+8 
           7550      1.59587e+8 
           7570      1.57943e+8 
           7590      1.55719e+8 
           7610      1.54394e+8 
           7630      1.53126e+8 
           7650      1.51561e+8 
           7670      1.50221e+8 
           7690      1.48306e+8 
           7710      1.47082e+8 
           7730      1.45225e+8 
           7750      1.44269e+8 
           7770      1.42916e+8 
           7790      1.41537e+8 
           7810      1.40128e+8 
           7830      1.38786e+8 
           7850       1.3734e+8 
           7870      1.35712e+8 
           7890      1.34414e+8 
           7910      1.33428e+8 
           7930      1.32115e+8 
           7950      1.30944e+8 
           7970      1.29529e+8 
           7990      1.28379e+8 
           8010      1.27152e+8 
           8030      1.25859e+8 
           8050      1.24764e+8 
           8070      1.23579e+8 
           8090      1.22307e+8 
           8110      1.20421e+8 
           8130      1.20109e+8 
           8150      1.18868e+8 
           8170      1.17846e+8 
           8190      1.16092e+8 
           8210      1.14286e+8 
           8230      1.12975e+8 
           8250      1.12422e+8 
           8270      1.10579e+8 
           8290      1.10293e+8 
           8310      1.09457e+8 
           8330      1.08232e+8 
           8350      1.06893e+8 
           8370      1.06194e+8 
           8390      1.05523e+8 
           8410      1.04457e+8 
           8430      1.03607e+8 
           8450      1.02288e+8 
           8470      1.01711e+8 
           8490      1.00773e+8 
           8510       9.9353e+7 
           8530      9.90999e+7 
           8550       9.7431e+7 
           8570      9.79513e+7 
