# Kurucz ODFNEW /NOVER (2003)
# teff = 28000 K (value for the effective temperature for the model. Temperatures are given in K)
# logg = 3.5 log(cm/s2) (value for Log(G) for the model.)
# meta = 0.5  (value for the Metallicity for the model.)
# lh = 1.25  (l/Hp where l is the  mixing length of the convective element and Hp is the pressure scale height)
# vtur = 2 km/s (Microturbulence velocity)
# alpha = 0.4  (Alpha)
#
# column 1: WAVELENGTH (ANGSTROM), Wavelength in Angstrom
# column 2: FLUX (ERG/CM2/S/A), Flux in erg/cm2/s/A
          147.2      4.1992e-11 
            151     1.48061e-10 
          155.2     5.57062e-10 
          158.8      1.64615e-9 
            162      4.15445e-9 
            166      1.26065e-8 
          170.3      3.90666e-8 
          173.4      8.65107e-8 
          176.8       1.9927e-7 
          180.2      4.45318e-7 
          181.7       6.2817e-7 
          186.1      1.67919e-6 
            191      4.78406e-6 
          193.9      8.66993e-6 
          198.4      2.11093e-5 
          201.8      4.03111e-5 
            205      7.27112e-5 
          210.5     0.000192853 
          216.2     0.000502054 
          219.8     0.000900338 
            223       0.0014874 
          226.8      0.00297571 
            230        0.121458 
            234        0.264645 
            240        0.546729 
          246.5         1.18241 
          252.4         2.33031 
          256.8         3.68913 
            260         5.98866 
            264         8.95338 
          268.5         14.7358 
          273.5         23.9302 
          278.5         36.8287 
            284         85.2377 
            290         141.746 
            296         225.889 
            301         326.063 
            308         841.112 
            318         1892.36 
            328         3424.09 
            338         6775.55 
            348         12167.9 
            357         66981.2 
            366          186208 
            375          255332 
            385          443790 
            395      1.72751e+6 
            405       2.3418e+6 
            414      5.00464e+6 
            422      6.33728e+6 
            430      8.28968e+6 
            441      1.10915e+7 
            451      1.30608e+7 
            460      1.44756e+7 
            470      1.98836e+7 
            480      2.52412e+7 
            490      3.03031e+7 
            500      3.81853e+7 
            506      6.20913e+7 
            512      7.41836e+8 
            520      7.41115e+8 
            530      7.07363e+8 
            540      7.26276e+8 
            550      9.99796e+8 
            560      1.48469e+9 
            570      1.67435e+9 
            580      1.44779e+9 
            590      1.67726e+9 
            600      1.07504e+9 
            610      1.75962e+9 
            620      2.18148e+9 
            630      2.11487e+9 
            640      1.70706e+9 
            650      1.12626e+9 
            658      1.16543e+9 
            665      1.83038e+9 
            675      2.28068e+9 
            685      1.62069e+9 
            695      2.73329e+9 
            705      1.75318e+9 
            716      3.15416e+9 
            726      2.89797e+9 
            735      3.17025e+9 
            745      2.88202e+9 
            755      2.99328e+9 
            765      3.33744e+9 
            775      3.70968e+9 
            785       3.9094e+9 
            795      3.88248e+9 
            805      3.62768e+9 
            815      3.52457e+9 
            825      4.08609e+9 
            835      2.54002e+9 
            845      3.85206e+9 
            855      3.79061e+9 
            865      4.00829e+9 
            875      4.12603e+9 
            885      4.36351e+9 
            895      4.44922e+9 
            905      4.22232e+9 
            915      6.35138e+9 
            925     2.53853e+10 
            935     3.87371e+10 
            945     4.39112e+10 
            955     4.53426e+10 
            965     4.56173e+10 
            975     1.09481e+10 
            985     2.88803e+10 
            995     3.20444e+10 
           1005     3.69853e+10 
           1015     4.08022e+10 
           1025     3.57522e+10 
           1035     3.72184e+10 
           1045     4.83148e+10 
           1055     4.43569e+10 
           1065     3.45167e+10 
           1075     3.85784e+10 
           1085     3.64945e+10 
           1095     3.93405e+10 
           1105     3.65152e+10 
           1115     3.46359e+10 
           1125     2.14972e+10 
           1135     3.42156e+10 
           1145     3.34883e+10 
           1155     3.18011e+10 
           1165     3.15434e+10 
           1175     1.56144e+10 
           1185     2.82448e+10 
           1195     2.77714e+10 
           1205     2.27152e+10 
           1215     2.32447e+10 
           1225     2.70128e+10 
           1235     2.95609e+10 
           1245     2.75737e+10 
           1255     2.79302e+10 
           1265     2.90135e+10 
           1275     3.05926e+10 
           1285     3.06727e+10 
           1295     2.42501e+10 
           1305     2.60676e+10 
           1315     3.06028e+10 
           1325     2.90762e+10 
           1335     2.80989e+10 
           1345     2.80596e+10 
           1355     2.77701e+10 
           1365     2.60808e+10 
           1375     2.45032e+10 
           1385     2.17507e+10 
           1395     1.02686e+10 
           1405     1.34247e+10 
           1415     2.14384e+10 
           1425     2.02963e+10 
           1435     2.21604e+10 
           1442     2.22067e+10 
           1447     2.20265e+10 
           1455     2.07368e+10 
           1465      1.9412e+10 
           1475     2.04293e+10 
           1485     2.02388e+10 
           1495     1.96066e+10 
           1505     1.80878e+10 
           1512     1.70688e+10 
           1517     1.76096e+10 
           1525     1.72504e+10 
           1535     1.42318e+10 
           1545     1.20435e+10 
           1555     1.20359e+10 
           1565     1.41661e+10 
           1575     1.54208e+10 
           1585     1.55447e+10 
           1595     1.54703e+10 
           1605     1.51509e+10 
           1615     1.43952e+10 
           1625     1.46034e+10 
           1635     1.53653e+10 
           1645     1.57526e+10 
           1655     1.52478e+10 
           1665     1.52596e+10 
           1672     1.38128e+10 
           1677     1.70058e+10 
           1685     1.59291e+10 
           1695     1.50808e+10 
           1705     1.50315e+10 
           1715     1.38999e+10 
           1725     1.34733e+10 
           1735     1.40794e+10 
           1745      1.3984e+10 
           1755     1.39279e+10 
           1765     1.39362e+10 
           1775     1.29952e+10 
           1785     1.33726e+10 
           1795     1.33117e+10 
           1805     1.33982e+10 
           1815     1.24321e+10 
           1825     1.26288e+10 
           1835     1.24636e+10 
           1845     1.14291e+10 
           1855     1.19828e+10 
           1865     1.20669e+10 
           1875     1.19739e+10 
           1885     1.09661e+10 
           1895     1.04216e+10 
           1905     1.11502e+10 
           1915     1.05985e+10 
           1925      9.88664e+9 
           1935     1.07438e+10 
           1945      1.1019e+10 
           1955      9.65562e+9 
           1967     1.05441e+10 
           1976     1.10744e+10 
           1984     1.03766e+10 
           1995     1.02161e+10 
           2005     1.05858e+10 
           2015     1.05497e+10 
           2025     1.06929e+10 
           2035      9.86939e+9 
           2045      9.92985e+9 
           2055      8.63431e+9 
           2065      8.48339e+9 
           2074      9.09533e+9 
           2078      8.59237e+9 
           2085      9.34105e+9 
           2095      9.00575e+9 
           2105      9.31828e+9 
           2115      9.47461e+9 
           2125      9.42486e+9 
           2135      9.29876e+9 
           2145      8.91831e+9 
           2155      9.20321e+9 
           2165      8.94318e+9 
           2175       8.9543e+9 
           2185      8.73286e+9 
           2195      8.88101e+9 
           2205      8.81614e+9 
           2215      8.61385e+9 
           2225      8.45746e+9 
           2235      8.29899e+9 
           2245      8.29473e+9 
           2255      8.07612e+9 
           2265      8.10557e+9 
           2275      8.02137e+9 
           2285      7.79979e+9 
           2295      6.45987e+9 
           2305      7.50406e+9 
           2315      7.34869e+9 
           2325      7.37621e+9 
           2335      7.20331e+9 
           2345      7.24887e+9 
           2355      7.09438e+9 
           2365      6.99073e+9 
           2375      6.80108e+9 
           2385      6.64747e+9 
           2395      6.59668e+9 
           2405      6.58492e+9 
           2415      6.45189e+9 
           2425      6.44728e+9 
           2435      6.31921e+9 
           2445      6.28073e+9 
           2455       6.2096e+9 
           2465       6.0856e+9 
           2475      5.90449e+9 
           2485      5.33881e+9 
           2495      3.14945e+9 
           2505       4.7972e+9 
           2513      5.25021e+9 
           2518      5.41001e+9 
           2525      5.59272e+9 
           2535      5.62448e+9 
           2545      5.38761e+9 
           2555       5.4573e+9 
           2565      5.34389e+9 
           2575      5.36326e+9 
           2585      5.29935e+9 
           2595      5.22591e+9 
           2605      5.20791e+9 
           2615      5.06866e+9 
           2625      5.05389e+9 
           2635      5.00763e+9 
           2645       4.9273e+9 
           2655      4.88122e+9 
           2665      4.67985e+9 
           2675      4.62381e+9 
           2685      4.68135e+9 
           2695      4.51991e+9 
           2705      4.42677e+9 
           2715      4.42019e+9 
           2725      4.41865e+9 
           2735      4.35396e+9 
           2745       4.3269e+9 
           2755      4.28527e+9 
           2765      4.22407e+9 
           2775      4.25205e+9 
           2785      4.14643e+9 
           2795      3.96968e+9 
           2805      4.04734e+9 
           2815      4.05153e+9 
           2825      4.01426e+9 
           2835      3.87912e+9 
           2845      3.90691e+9 
           2855      3.81928e+9 
           2865      3.79317e+9 
           2875      3.73552e+9 
           2885      3.70066e+9 
           2895      3.65154e+9 
           2910      3.53013e+9 
           2930      3.53704e+9 
           2950      3.43695e+9 
           2970      3.36382e+9 
           2990       3.2537e+9 
           3010      3.10008e+9 
           3030      3.05823e+9 
           3050      3.05117e+9 
           3070      3.02114e+9 
           3090      2.87717e+9 
           3110      2.90326e+9 
           3130      2.80218e+9 
           3150      2.77434e+9 
           3170      2.69393e+9 
           3190      2.65963e+9 
           3210      2.59895e+9 
           3230      2.52299e+9 
           3250      2.50394e+9 
           3270      2.42158e+9 
           3290      2.38597e+9 
           3310      2.33054e+9 
           3330      2.26988e+9 
           3350      2.22318e+9 
           3370      2.17345e+9 
           3390      2.16191e+9 
           3410        2.117e+9 
           3430      2.09206e+9 
           3450      2.03059e+9 
           3470      1.99764e+9 
           3490      1.95462e+9 
           3510      1.91751e+9 
           3530      1.90093e+9 
           3550      1.85583e+9 
           3570      1.81813e+9 
           3590      1.77346e+9 
           3610      1.74378e+9 
           3630      1.71223e+9 
           3640      1.69681e+9 
           3650       1.6452e+9 
           3670      1.62379e+9 
           3690       1.5862e+9 
           3710       1.5236e+9 
           3730      1.49412e+9 
           3750      1.54611e+9 
           3770      1.51803e+9 
           3790      1.55543e+9 
           3810       1.5829e+9 
           3830       1.4448e+9 
           3850      1.55053e+9 
           3870      1.47486e+9 
           3890      1.37551e+9 
           3910       1.5007e+9 
           3930      1.43819e+9 
           3950       1.4043e+9 
           3970      1.26157e+9 
           3990      1.38684e+9 
           4010      1.36519e+9 
           4030      1.32041e+9 
           4050      1.31289e+9 
           4070      1.24218e+9 
           4090       1.1843e+9 
           4110      1.11314e+9 
           4130      1.19573e+9 
           4150       1.1839e+9 
           4170      1.18657e+9 
           4190      1.16844e+9 
           4210      1.15256e+9 
           4230      1.12779e+9 
           4250      1.09036e+9 
           4270      1.06478e+9 
           4290      1.03524e+9 
           4310      1.00432e+9 
           4330      9.69507e+8 
           4350      9.12174e+8 
           4370      9.65689e+8 
           4390      9.68853e+8 
           4410      9.46274e+8 
           4430      9.44046e+8 
           4450      9.23194e+8 
           4470      9.07202e+8 
           4490      9.05473e+8 
           4510      8.84884e+8 
           4530      8.80263e+8 
           4550      8.66227e+8 
           4570       8.5473e+8 
           4590      8.37248e+8 
           4610      8.15906e+8 
           4630      8.03179e+8 
           4650      7.59574e+8 
           4670      7.78372e+8 
           4690      7.72141e+8 
           4710       7.4758e+8 
           4730       7.5981e+8 
           4750       7.4521e+8 
           4770      7.46044e+8 
           4790      7.33457e+8 
           4810      7.17616e+8 
           4830       7.0429e+8 
           4850      6.82669e+8 
           4870      6.25481e+8 
           4890      6.73863e+8 
           4910      6.64665e+8 
           4930      6.49115e+8 
           4950      6.40221e+8 
           4970      6.41896e+8 
           4990      6.31587e+8 
           5010      6.03185e+8 
           5030      6.06781e+8 
           5050      5.98468e+8 
           5070      5.96042e+8 
           5090       5.8494e+8 
           5110      5.75148e+8 
           5130      5.64445e+8 
           5150      5.58251e+8 
           5170      5.50783e+8 
           5190      5.44728e+8 
           5210      5.37307e+8 
           5230      5.30313e+8 
           5250      5.21441e+8 
           5270      5.12336e+8 
           5290      5.08753e+8 
           5310      5.00879e+8 
           5330      4.94859e+8 
           5350      4.88034e+8 
           5370      4.81453e+8 
           5390      4.73192e+8 
           5410      4.66302e+8 
           5430       4.6235e+8 
           5450       4.5531e+8 
           5470      4.49153e+8 
           5490      4.43174e+8 
           5510      4.38002e+8 
           5530      4.31243e+8 
           5550      4.26917e+8 
           5570      4.20748e+8 
           5590       4.1444e+8 
           5610      4.10113e+8 
           5630       4.0503e+8 
           5650       3.9865e+8 
           5670      3.91484e+8 
           5690      3.81534e+8 
           5710      3.77422e+8 
           5730      3.73931e+8 
           5750       3.6713e+8 
           5770      3.65358e+8 
           5790      3.60142e+8 
           5810      3.55334e+8 
           5830      3.50041e+8 
           5850      3.47431e+8 
           5870      3.36824e+8 
           5890      3.36984e+8 
           5910      3.34146e+8 
           5930      3.30096e+8 
           5950      3.26454e+8 
           5970      3.25275e+8 
           5990      3.19232e+8 
           6010      3.16704e+8 
           6030      3.11747e+8 
           6050      3.08341e+8 
           6070        3.053e+8 
           6090      3.01846e+8 
           6110      2.97744e+8 
           6130      2.94461e+8 
           6150      2.89052e+8 
           6170      2.85856e+8 
           6190      2.83766e+8 
           6210      2.80876e+8 
           6230      2.77183e+8 
           6250      2.73029e+8 
           6270      2.70495e+8 
           6290      2.67511e+8 
           6310      2.63301e+8 
           6330       2.6148e+8 
           6350      2.57547e+8 
           6370      2.55523e+8 
           6390      2.52422e+8 
           6410      2.49291e+8 
           6430      2.46768e+8 
           6450      2.43709e+8 
           6470      2.39352e+8 
           6490      2.36636e+8 
           6510      2.33344e+8 
           6530      2.30901e+8 
           6550       2.2685e+8 
           6570      2.05388e+8 
           6590      2.22742e+8 
           6610      2.21586e+8 
           6630      2.19634e+8 
           6650      2.16637e+8 
           6670      2.12545e+8 
           6690      2.10224e+8 
           6710      2.09567e+8 
           6730      2.06219e+8 
           6750      2.05238e+8 
           6770      2.03222e+8 
           6790      1.99297e+8 
           6810      1.98486e+8 
           6830       1.9592e+8 
           6850      1.94272e+8 
           6870      1.91961e+8 
           6890      1.89198e+8 
           6910      1.86431e+8 
           6930      1.86196e+8 
           6950      1.84198e+8 
           6970      1.82243e+8 
           6990      1.80168e+8 
           7010      1.78015e+8 
           7030      1.75883e+8 
           7050      1.74204e+8 
           7070      1.70017e+8 
           7090      1.70767e+8 
           7110      1.67066e+8 
           7130      1.65589e+8 
           7150      1.65437e+8 
           7170       1.6357e+8 
           7190      1.62013e+8 
           7210      1.60369e+8 
           7230      1.56377e+8 
           7250       1.5634e+8 
           7270      1.55402e+8 
           7290       1.5263e+8 
           7310      1.52078e+8 
           7330      1.50499e+8 
           7350      1.48997e+8 
           7370      1.47545e+8 
           7390      1.46071e+8 
           7410      1.44556e+8 
           7430      1.43076e+8 
           7450      1.41501e+8 
           7470      1.38692e+8 
           7490      1.38181e+8 
           7510      1.37252e+8 
           7530      1.35607e+8 
           7550      1.34619e+8 
           7570      1.33244e+8 
           7590      1.31608e+8 
           7610      1.30019e+8 
           7630      1.29157e+8 
           7650      1.27813e+8 
           7670      1.26789e+8 
           7690      1.25239e+8 
           7710      1.24114e+8 
           7730      1.22527e+8 
           7750      1.21789e+8 
           7770      1.20514e+8 
           7790      1.19548e+8 
           7810      1.18356e+8 
           7830      1.17248e+8 
           7850      1.16034e+8 
           7870      1.14411e+8 
           7890      1.13191e+8 
           7910      1.12529e+8 
           7930      1.11387e+8 
           7950      1.10535e+8 
           7970      1.09322e+8 
           7990       1.0838e+8 
           8010      1.07305e+8 
           8030      1.06257e+8 
           8050      1.05445e+8 
           8070      1.04455e+8 
           8090      1.03398e+8 
           8110      1.01388e+8 
           8130      1.01551e+8 
           8150      1.00508e+8 
           8170      9.97178e+7 
           8190      9.77318e+7 
           8210      9.68091e+7 
           8230      9.56662e+7 
           8250       9.5535e+7 
           8270      9.32392e+7 
           8290      9.35737e+7 
           8310       9.2982e+7 
           8330      9.20583e+7 
           8350      9.07695e+7 
           8370      9.00835e+7 
           8390      8.96545e+7 
           8410      8.86054e+7 
           8430      8.80159e+7 
           8450      8.67819e+7 
           8470      8.62308e+7 
           8490      8.56839e+7 
           8510      8.40279e+7 
           8530      8.44213e+7 
           8550      8.20325e+7 
           8570      8.36351e+7 
