# Kurucz ODFNEW /NOVER (2003)
# teff = 26000 K (value for the effective temperature for the model. Temperatures are given in K)
# logg = 4 log(cm/s2) (value for Log(G) for the model.)
# meta = -2  (value for the Metallicity for the model.)
# lh = 1.25  (l/Hp where l is the  mixing length of the convective element and Hp is the pressure scale height)
# vtur = 2 km/s (Microturbulence velocity)
# alpha = 0  (Alpha)
#
# column 1: WAVELENGTH (ANGSTROM), Wavelength in Angstrom
# column 2: FLUX (ERG/CM2/S/A), Flux in erg/cm2/s/A
          147.2     8.58514e-13 
            151     3.85503e-12 
          155.2     1.85885e-11 
          158.8     6.68994e-11 
            162     1.98887e-10 
            166     7.31325e-10 
          170.3      2.76486e-9 
          173.4      6.91574e-9 
          176.8      1.81783e-8 
          180.2      4.60145e-8 
          181.7      6.85315e-8 
          186.1      2.12235e-7 
            191      7.01588e-7 
          193.9      1.38208e-6 
          198.4       3.7972e-6 
          201.8      7.89746e-6 
            205      1.53767e-5 
          210.5      4.60184e-5 
          216.2     0.000134782 
          219.8      0.00025768 
            223     0.000450092 
          226.8     0.000854408 
            230       0.0160797 
            234       0.0371459 
            240       0.0850519 
          246.5        0.199778 
          252.4         0.42084 
          256.8        0.662956 
            260         1.02252 
            264         1.59246 
          268.5         2.58377 
          273.5         4.33216 
          278.5         7.13414 
            284         12.0932 
            290         20.9441 
            296         35.3704 
            301         53.3944 
            308         89.1825 
            318         203.296 
            328         412.643 
            338         805.963 
            348         1505.31 
            357         2561.57 
            366         4249.72 
            375         6795.46 
            385         11232.1 
            395         17971.9 
            405           28046 
            414         41109.3 
            422         56622.4 
            430         76908.6 
            441          115678 
            451          164256 
            460          221177 
            470          304368 
            480          411541 
            490          549404 
            500          723742 
            506      4.61458e+6 
            512      1.40574e+7 
            520       1.6135e+7 
            530      2.00542e+7 
            540      2.09733e+7 
            550      2.70872e+7 
            560      3.04339e+7 
            570      3.51127e+7 
            580      3.49505e+7 
            590       4.3069e+7 
            600      4.90878e+7 
            610      5.53299e+7 
            620      6.08461e+7 
            630      6.78018e+7 
            640      7.28856e+7 
            650      8.10427e+7 
            658      8.80994e+7 
            665      9.36318e+7 
            675      9.97418e+7 
            685      1.07184e+8 
            695      1.20649e+8 
            705      1.28324e+8 
            716      1.40608e+8 
            726      1.50398e+8 
            735      1.61229e+8 
            745      1.73912e+8 
            755       1.8601e+8 
            765       1.9791e+8 
            775      2.11759e+8 
            785      2.25704e+8 
            795      2.38099e+8 
            805      2.52294e+8 
            815      2.65294e+8 
            825      2.81391e+8 
            835      2.88734e+8 
            845      3.09277e+8 
            855      3.23646e+8 
            865      3.40908e+8 
            875      3.58915e+8 
            885      3.75977e+8 
            895      3.92327e+8 
            905      4.05186e+8 
            915      6.09355e+8 
            925      4.83535e+9 
            935     1.22285e+10 
            945     2.75992e+10 
            955     3.34553e+10 
            965     4.18105e+10 
            975     1.90825e+10 
            985     4.24596e+10 
            995     4.00883e+10 
           1005     4.16928e+10 
           1015     3.90067e+10 
           1025      1.8121e+10 
           1035     3.57871e+10 
           1045     4.05251e+10 
           1055     3.93509e+10 
           1065     3.62705e+10 
           1075     3.71147e+10 
           1085     3.43472e+10 
           1095     3.61546e+10 
           1105     3.47411e+10 
           1115     3.41207e+10 
           1125     3.19958e+10 
           1135     3.28352e+10 
           1145     3.12728e+10 
           1155     3.14877e+10 
           1165     3.09355e+10 
           1175      2.6743e+10 
           1185     2.92723e+10 
           1195      2.7935e+10 
           1205     2.52096e+10 
           1215     1.21357e+10 
           1225     2.50185e+10 
           1235     2.63919e+10 
           1245     2.57509e+10 
           1255     2.55096e+10 
           1265     2.48983e+10 
           1275      2.4653e+10 
           1285     2.41407e+10 
           1295      2.2463e+10 
           1305      2.2526e+10 
           1315     2.26596e+10 
           1325      2.1894e+10 
           1335      2.1124e+10 
           1345     2.11603e+10 
           1355     2.09127e+10 
           1365     2.03365e+10 
           1375     1.99561e+10 
           1385     1.95912e+10 
           1395     1.84802e+10 
           1405     1.83418e+10 
           1415     1.83427e+10 
           1425     1.79606e+10 
           1435      1.7725e+10 
           1442     1.75709e+10 
           1447     1.73696e+10 
           1455     1.70788e+10 
           1465     1.67102e+10 
           1475     1.63996e+10 
           1485     1.60938e+10 
           1495     1.57714e+10 
           1505     1.53225e+10 
           1512     1.50893e+10 
           1517         1.5e+10 
           1525     1.47528e+10 
           1535     1.41188e+10 
           1545     1.39006e+10 
           1555     1.35322e+10 
           1565     1.35785e+10 
           1575     1.34551e+10 
           1585     1.32448e+10 
           1595     1.30268e+10 
           1605     1.25826e+10 
           1615     1.23436e+10 
           1625     1.22469e+10 
           1635     1.20853e+10 
           1645     1.16448e+10 
           1655     1.17141e+10 
           1665     1.15388e+10 
           1672      1.1347e+10 
           1677     1.13894e+10 
           1685      1.1199e+10 
           1695     1.09595e+10 
           1705     1.07274e+10 
           1715     1.04664e+10 
           1725     1.03197e+10 
           1735     1.02132e+10 
           1745     1.00231e+10 
           1755      9.89959e+9 
           1765      9.60911e+9 
           1775      9.49696e+9 
           1785      9.40374e+9 
           1795      9.27435e+9 
           1805      9.15915e+9 
           1815      8.94608e+9 
           1825      8.82309e+9 
           1835      8.68221e+9 
           1845      8.36645e+9 
           1855      8.16219e+9 
           1865      8.12689e+9 
           1875      8.10333e+9 
           1885      7.77203e+9 
           1895        7.538e+9 
           1905      7.63015e+9 
           1915      7.38229e+9 
           1925      7.23839e+9 
           1935      7.24788e+9 
           1945      7.21975e+9 
           1955      6.90568e+9 
           1967      6.96101e+9 
           1976      6.95727e+9 
           1984      6.75982e+9 
           1995      6.55505e+9 
           2005      6.59853e+9 
           2015      6.55501e+9 
           2025      6.49392e+9 
           2035      6.32982e+9 
           2045      6.23609e+9 
           2055      5.99597e+9 
           2065       5.9019e+9 
           2074      5.95501e+9 
           2078      5.82375e+9 
           2085      5.83471e+9 
           2095      5.73417e+9 
           2105       5.7384e+9 
           2115      5.68645e+9 
           2125      5.63089e+9 
           2135      5.54239e+9 
           2145       5.4422e+9 
           2155      5.38735e+9 
           2165      5.31559e+9 
           2175      5.23816e+9 
           2185      5.16759e+9 
           2195      5.10529e+9 
           2205      5.03352e+9 
           2215      4.96207e+9 
           2225      4.89321e+9 
           2235      4.82275e+9 
           2245      4.76493e+9 
           2255      4.69239e+9 
           2265      4.63739e+9 
           2275      4.57509e+9 
           2285      4.51558e+9 
           2295      4.40135e+9 
           2305      4.39111e+9 
           2315       4.3328e+9 
           2325      4.27638e+9 
           2335      4.21606e+9 
           2345      4.16565e+9 
           2355      4.11296e+9 
           2365      4.05919e+9 
           2375      4.00504e+9 
           2385      3.95014e+9 
           2395      3.90165e+9 
           2405      3.85234e+9 
           2415      3.80145e+9 
           2425      3.75632e+9 
           2435      3.70609e+9 
           2445      3.66027e+9 
           2455      3.61564e+9 
           2465      3.56987e+9 
           2475      3.52478e+9 
           2485      3.48036e+9 
           2495      3.37173e+9 
           2505      3.39301e+9 
           2513      3.33881e+9 
           2518      3.33804e+9 
           2525       3.3104e+9 
           2535       3.2698e+9 
           2545      3.22042e+9 
           2555      3.18857e+9 
           2565      3.15133e+9 
           2575      3.11434e+9 
           2585      3.07676e+9 
           2595      3.03984e+9 
           2605       3.0231e+9 
           2615      2.98707e+9 
           2625       2.9508e+9 
           2635      2.91065e+9 
           2645      2.87586e+9 
           2655      2.83837e+9 
           2665       2.7995e+9 
           2675      2.76481e+9 
           2685      2.74927e+9 
           2695      2.69592e+9 
           2705      2.68431e+9 
           2715      2.65358e+9 
           2725      2.60279e+9 
           2735      2.59089e+9 
           2745      2.56115e+9 
           2755      2.53281e+9 
           2765      2.48368e+9 
           2775      2.47638e+9 
           2785      2.44784e+9 
           2795      2.40678e+9 
           2805      2.38917e+9 
           2815      2.36623e+9 
           2825      2.31581e+9 
           2835      2.29716e+9 
           2845       2.2876e+9 
           2855       2.2618e+9 
           2865        2.237e+9 
           2875       2.2123e+9 
           2885      2.18808e+9 
           2895      2.16386e+9 
           2910      2.12818e+9 
           2930      2.08202e+9 
           2950      2.02289e+9 
           2970      1.99369e+9 
           2990      1.95096e+9 
           3010      1.90924e+9 
           3030      1.86988e+9 
           3050      1.83082e+9 
           3070      1.79277e+9 
           3090      1.75409e+9 
           3110      1.71945e+9 
           3130      1.68582e+9 
           3150       1.6515e+9 
           3170      1.61753e+9 
           3190      1.57176e+9 
           3210      1.55253e+9 
           3230      1.52166e+9 
           3250      1.49126e+9 
           3270       1.4636e+9 
           3290      1.43277e+9 
           3310      1.40701e+9 
           3330      1.37973e+9 
           3350      1.35052e+9 
           3370      1.32714e+9 
           3390      1.30186e+9 
           3410      1.27717e+9 
           3430      1.24676e+9 
           3450      1.21873e+9 
           3470      1.19969e+9 
           3490      1.17729e+9 
           3510      1.15938e+9 
           3530       1.1403e+9 
           3550      1.11986e+9 
           3570      1.10534e+9 
           3590      1.07841e+9 
           3610      1.06135e+9 
           3630      1.03999e+9 
           3640      1.03784e+9 
           3650      1.01791e+9 
           3670      1.00413e+9 
           3690      9.81769e+8 
           3710      9.48659e+8 
           3730      9.12681e+8 
           3750      9.57248e+8 
           3770      9.56369e+8 
           3790      9.99963e+8 
           3810      1.03911e+9 
           3830      9.11897e+8 
           3850      1.05957e+9 
           3870      1.06155e+9 
           3890      8.64465e+8 
           3910      1.04076e+9 
           3930      1.02377e+9 
           3950      1.00612e+9 
           3970      8.02082e+8 
           3990       9.6612e+8 
           4010      9.56367e+8 
           4030      9.05423e+8 
           4050      9.33526e+8 
           4070      9.12935e+8 
           4090      8.49663e+8 
           4110      7.46452e+8 
           4130      8.57381e+8 
           4150      8.48262e+8 
           4170      8.39993e+8 
           4190      8.27894e+8 
           4210      8.14244e+8 
           4230      8.00604e+8 
           4250      7.87039e+8 
           4270      7.72555e+8 
           4290      7.60803e+8 
           4310      7.44836e+8 
           4330      6.82493e+8 
           4350      6.23851e+8 
           4370      7.07676e+8 
           4390      6.83043e+8 
           4410      6.89414e+8 
           4430      6.76005e+8 
           4450      6.67963e+8 
           4470      6.31323e+8 
           4490      6.46566e+8 
           4510      6.36825e+8 
           4530       6.2679e+8 
           4550      6.16761e+8 
           4570      6.07117e+8 
           4590      5.97743e+8 
           4610      5.88544e+8 
           4630      5.79463e+8 
           4650      5.69611e+8 
           4670      5.61737e+8 
           4690      5.52726e+8 
           4710      5.38209e+8 
           4730      5.36547e+8 
           4750      5.28298e+8 
           4770      5.20764e+8 
           4790      5.12976e+8 
           4810      5.04974e+8 
           4830      4.95133e+8 
           4850      4.61188e+8 
           4870      4.13567e+8 
           4890      4.72296e+8 
           4910      4.67878e+8 
           4930       4.5186e+8 
           4950       4.5555e+8 
           4970      4.49085e+8 
           4990      4.42602e+8 
           5010      4.31001e+8 
           5030      4.30007e+8 
           5050      4.21423e+8 
           5070       4.1787e+8 
           5090      4.11961e+8 
           5110      4.06145e+8 
           5130      4.00408e+8 
           5150       3.9479e+8 
           5170      3.89317e+8 
           5190      3.83917e+8 
           5210      3.78574e+8 
           5230       3.7337e+8 
           5250      3.68235e+8 
           5270       3.6318e+8 
           5290      3.58231e+8 
           5310      3.53346e+8 
           5330      3.48564e+8 
           5350      3.43831e+8 
           5370      3.39224e+8 
           5390      3.34662e+8 
           5410      3.30158e+8 
           5430      3.25776e+8 
           5450      3.21449e+8 
           5470      3.17189e+8 
           5490      3.13007e+8 
           5510       3.0889e+8 
           5530      3.04836e+8 
           5550      3.00858e+8 
           5570      2.96928e+8 
           5590      2.93083e+8 
           5610      2.89285e+8 
           5630      2.85558e+8 
           5650      2.81876e+8 
           5670      2.78239e+8 
           5690      2.74634e+8 
           5710      2.71223e+8 
           5730      2.67772e+8 
           5750      2.64363e+8 
           5770      2.61062e+8 
           5790      2.57779e+8 
           5810      2.54556e+8 
           5830      2.51372e+8 
           5850      2.48247e+8 
           5870      2.38107e+8 
           5890      2.41857e+8 
           5910      2.39144e+8 
           5930      2.36194e+8 
           5950        2.333e+8 
           5970      2.30461e+8 
           5990      2.27654e+8 
           6010       2.2489e+8 
           6030      2.22167e+8 
           6050      2.19487e+8 
           6070      2.16846e+8 
           6090      2.14246e+8 
           6110      2.11685e+8 
           6130      2.09163e+8 
           6150       2.0667e+8 
           6170      2.04224e+8 
           6190      2.01815e+8 
           6210      1.99442e+8 
           6230      1.97096e+8 
           6250      1.94785e+8 
           6270      1.92519e+8 
           6290      1.90278e+8 
           6310      1.88061e+8 
           6330      1.85888e+8 
           6350      1.83738e+8 
           6370      1.81629e+8 
           6390      1.79544e+8 
           6410       1.7749e+8 
           6430      1.75467e+8 
           6450      1.73475e+8 
           6470      1.71495e+8 
           6490      1.69555e+8 
           6510      1.67652e+8 
           6530       1.6516e+8 
           6550      1.58656e+8 
           6570       1.4158e+8 
           6590      1.58896e+8 
           6610      1.58307e+8 
           6630      1.56736e+8 
           6650      1.55105e+8 
           6670      1.51898e+8 
           6690      1.50259e+8 
           6710       1.5005e+8 
           6730      1.48403e+8 
           6750      1.46789e+8 
           6770      1.45192e+8 
           6790      1.43602e+8 
           6810      1.42069e+8 
           6830      1.40536e+8 
           6850      1.39026e+8 
           6870      1.37531e+8 
           6890      1.36059e+8 
           6910       1.3461e+8 
           6930      1.33175e+8 
           6950       1.3177e+8 
           6970      1.30372e+8 
           6990      1.28987e+8 
           7010      1.27638e+8 
           7030      1.26303e+8 
           7050      1.24981e+8 
           7070      1.21675e+8 
           7090      1.22391e+8 
           7110      1.21115e+8 
           7130      1.19866e+8 
           7150      1.18621e+8 
           7170      1.17374e+8 
           7190      1.16197e+8 
           7210      1.15003e+8 
           7230      1.13704e+8 
           7250      1.12662e+8 
           7270      1.11523e+8 
           7290      1.09473e+8 
           7310      1.09255e+8 
           7330      1.08169e+8 
           7350      1.07079e+8 
           7370      1.06006e+8 
           7390      1.04943e+8 
           7410      1.03891e+8 
           7430      1.02861e+8 
           7450      1.01848e+8 
           7470      1.00838e+8 
           7490      9.98432e+7 
           7510      9.88178e+7 
           7530      9.78817e+7 
           7550       9.6921e+7 
           7570      9.59756e+7 
           7590      9.50323e+7 
           7610      9.41041e+7 
           7630      9.31908e+7 
           7650      9.22858e+7 
           7670      9.13953e+7 
           7690      9.05128e+7 
           7710      8.96382e+7 
           7730       8.8784e+7 
           7750      8.79312e+7 
           7770       8.7086e+7 
           7790      8.62607e+7 
           7810      8.53748e+7 
           7830      8.46258e+7 
           7850      8.39201e+7 
           7870       8.3117e+7 
           7890      8.22786e+7 
           7910       8.1568e+7 
           7930      8.07976e+7 
           7950      7.99267e+7 
           7970      7.90753e+7 
           7990      7.83612e+7 
           8010      7.76122e+7 
           8030      7.68873e+7 
           8050      7.62034e+7 
           8070      7.55658e+7 
           8090      7.47091e+7 
           8110      7.41406e+7 
           8130      7.35426e+7 
           8150      7.27454e+7 
           8170       7.2226e+7 
           8190      7.14637e+7 
           8210      7.05906e+7 
           8230      7.01644e+7 
           8250      6.95535e+7 
           8270       6.8562e+7 
           8290       6.8237e+7 
           8310      6.76471e+7 
           8330      6.70186e+7 
           8350      6.60766e+7 
           8370       6.5702e+7 
           8390      6.52179e+7 
           8410      6.46258e+7 
           8430      6.39802e+7 
           8450      6.29865e+7 
           8470      6.27419e+7 
           8490      6.21697e+7 
           8510      6.14356e+7 
           8530      6.11582e+7 
           8550       5.9682e+7 
           8570      6.08297e+7 
           8590      5.82595e+7 
