# Kurucz ODFNEW /NOVER (2003)
# teff = 23000 K (value for the effective temperature for the model. Temperatures are given in K)
# logg = 3 log(cm/s2) (value for Log(G) for the model.)
# meta = 0  (value for the Metallicity for the model.)
# lh = 1.25  (l/Hp where l is the  mixing length of the convective element and Hp is the pressure scale height)
# vtur = 2 km/s (Microturbulence velocity)
# alpha = 0  (Alpha)
#
# column 1: WAVELENGTH (ANGSTROM), Wavelength in Angstrom
# column 2: FLUX (ERG/CM2/S/A), Flux in erg/cm2/s/A
          147.2      1.2736e-16 
            151     6.35158e-16 
          155.2     3.45292e-15 
          158.8      1.3807e-14 
            162     4.51834e-14 
            166     1.87517e-13 
          170.3     8.07416e-13 
          173.4     2.22272e-12 
          176.8     6.48973e-12 
          180.2     1.82424e-11 
          181.7     2.84439e-11 
          186.1     1.00788e-10 
            191     3.86457e-10 
          193.9     8.30159e-10 
          198.4      2.60535e-9 
          201.8      5.98325e-9 
            205      1.27671e-8 
          210.5      4.45832e-8 
          216.2      1.52473e-7 
          219.8      3.20904e-7 
            223      6.09431e-7 
          226.8      1.27671e-6 
            230       9.6155e-5 
            234     0.000230561 
            240     0.000572367 
          246.5      0.00148138 
          252.4      0.00339487 
          256.8       0.0057618 
            260       0.0099393 
            264       0.0163327 
          268.5       0.0283581 
          273.5       0.0508972 
          278.5       0.0894002 
            284        0.175996 
            290        0.325681 
            296        0.591994 
            301        0.941397 
            308         1.85569 
            318         4.75587 
            328         10.4561 
            338         23.3901 
            348         48.2204 
            357          221.26 
            366         444.124 
            375         698.406 
            385         1211.68 
            395         2280.08 
            405         3602.04 
            414         5520.73 
            422         7901.87 
            430         11605.9 
            441         18098.1 
            451         25444.9 
            460         34640.9 
            470         50472.2 
            480         70417.7 
            490         98141.1 
            500          131958 
            506          901610 
            512      8.39904e+6 
            520       9.3965e+6 
            530      1.08175e+7 
            540      1.14422e+7 
            550      1.80457e+7 
            560      2.20295e+7 
            570       2.6276e+7 
            580      2.45042e+7 
            590      3.32195e+7 
            600       3.7427e+7 
            610      4.52673e+7 
            620      5.11633e+7 
            630      5.49195e+7 
            640      5.21185e+7 
            650         4.08e+7 
            658          6.3e+7 
            665      7.40263e+7 
            675      7.59561e+7 
            685      7.49292e+7 
            695       1.0246e+8 
            705      1.01795e+8 
            716      1.17607e+8 
            726       1.2015e+8 
            735      1.25796e+8 
            745      1.45716e+8 
            755      1.55589e+8 
            765      1.67178e+8 
            775      1.79971e+8 
            785      1.93505e+8 
            795      2.01304e+8 
            805      2.08274e+8 
            815      2.13245e+8 
            825      2.35987e+8 
            835      1.96263e+8 
            845      2.41373e+8 
            855      2.45417e+8 
            865      2.63133e+8 
            875      2.82764e+8 
            885      3.08295e+8 
            895       3.2353e+8 
            905      3.18449e+8 
            915      6.53857e+8 
            925      6.34292e+9 
            935     1.07564e+10 
            945     1.39002e+10 
            955     1.51981e+10 
            965      1.4627e+10 
            975      3.01185e+9 
            985      9.84628e+9 
            995      1.1834e+10 
           1005     1.50013e+10 
           1015     1.55475e+10 
           1025     1.22845e+10 
           1035     1.22603e+10 
           1045     1.84624e+10 
           1055     1.68729e+10 
           1065     1.37605e+10 
           1075     1.60322e+10 
           1085     1.42413e+10 
           1095     1.63505e+10 
           1105     1.47344e+10 
           1115     1.40995e+10 
           1125     1.09924e+10 
           1135     1.53189e+10 
           1145      1.4237e+10 
           1155     1.45205e+10 
           1165     1.42584e+10 
           1175      7.71755e+9 
           1185     1.34678e+10 
           1195      1.2726e+10 
           1205      7.83283e+9 
           1215      9.34815e+9 
           1225      1.2573e+10 
           1235     1.38552e+10 
           1245     1.32488e+10 
           1255     1.32432e+10 
           1265     1.34671e+10 
           1275     1.39941e+10 
           1285     1.37963e+10 
           1295      9.48998e+9 
           1305     1.06916e+10 
           1315     1.35422e+10 
           1325      1.2686e+10 
           1335     1.21515e+10 
           1345     1.25354e+10 
           1355     1.23375e+10 
           1365      1.1404e+10 
           1375     1.10542e+10 
           1385     1.05982e+10 
           1395      6.90668e+9 
           1405      7.87248e+9 
           1415      9.53101e+9 
           1425      9.43834e+9 
           1435      9.87256e+9 
           1442     1.01018e+10 
           1447      9.90363e+9 
           1455       9.5733e+9 
           1465      8.79815e+9 
           1475      9.10419e+9 
           1485      9.04742e+9 
           1495      8.84217e+9 
           1505      8.07756e+9 
           1512      7.14027e+9 
           1517      7.42265e+9 
           1525      7.65616e+9 
           1535      6.40475e+9 
           1545      6.16996e+9 
           1555      6.01203e+9 
           1565      6.65315e+9 
           1575      7.16183e+9 
           1585      7.21045e+9 
           1595      7.11351e+9 
           1605      7.17592e+9 
           1615      7.02104e+9 
           1625      6.93032e+9 
           1635      7.39951e+9 
           1645      7.41855e+9 
           1655      7.32587e+9 
           1665       7.4311e+9 
           1672      7.04613e+9 
           1677       7.8465e+9 
           1685      7.53041e+9 
           1695      7.05722e+9 
           1705      6.93879e+9 
           1715      6.48691e+9 
           1725      6.46446e+9 
           1735       6.7372e+9 
           1745      6.57619e+9 
           1755      6.62561e+9 
           1765      6.61351e+9 
           1775      6.12094e+9 
           1785       6.2837e+9 
           1795      6.46726e+9 
           1805      6.55352e+9 
           1815      5.74879e+9 
           1825      6.04373e+9 
           1835      5.88965e+9 
           1845      5.34412e+9 
           1855      5.41354e+9 
           1865      5.50327e+9 
           1875      5.78142e+9 
           1885       5.1018e+9 
           1895      4.72288e+9 
           1905      5.21054e+9 
           1915      4.86082e+9 
           1925      4.59563e+9 
           1935      4.95011e+9 
           1945      5.04583e+9 
           1955      4.49953e+9 
           1967      4.97478e+9 
           1976      5.18264e+9 
           1984      4.82328e+9 
           1995      4.72461e+9 
           2005      4.96867e+9 
           2015      4.91317e+9 
           2025      5.06109e+9 
           2035      4.55662e+9 
           2045       4.6854e+9 
           2055      4.46006e+9 
           2065      4.42722e+9 
           2074      4.79605e+9 
           2078       4.2126e+9 
           2085      4.56082e+9 
           2095      4.29189e+9 
           2105      4.44905e+9 
           2115      4.49518e+9 
           2125      4.52697e+9 
           2135      4.47937e+9 
           2145      4.18658e+9 
           2155      4.41519e+9 
           2165      4.42256e+9 
           2175       4.3702e+9 
           2185      4.19662e+9 
           2195      4.28397e+9 
           2205      4.28634e+9 
           2215      4.21263e+9 
           2225      4.10264e+9 
           2235      4.03094e+9 
           2245       4.0854e+9 
           2255      3.95405e+9 
           2265      4.00814e+9 
           2275      3.95333e+9 
           2285      3.95877e+9 
           2295      3.53317e+9 
           2305      3.82095e+9 
           2315      3.70654e+9 
           2325       3.6665e+9 
           2335      3.55695e+9 
           2345      3.60066e+9 
           2355      3.58734e+9 
           2365      3.56084e+9 
           2375      3.48503e+9 
           2385      3.45891e+9 
           2395      3.41886e+9 
           2405       3.3643e+9 
           2415      3.33398e+9 
           2425      3.32723e+9 
           2435      3.23477e+9 
           2445      3.24977e+9 
           2455      3.25366e+9 
           2465      3.19129e+9 
           2475      3.13733e+9 
           2485       3.0585e+9 
           2495       2.4668e+9 
           2505      2.94388e+9 
           2513      2.86259e+9 
           2518      2.97197e+9 
           2525       2.9473e+9 
           2535      2.91976e+9 
           2545      2.80769e+9 
           2555      2.85281e+9 
           2565      2.81567e+9 
           2575      2.82452e+9 
           2585      2.77537e+9 
           2595      2.75329e+9 
           2605      2.73797e+9 
           2615      2.69101e+9 
           2625      2.67579e+9 
           2635      2.65498e+9 
           2645      2.62428e+9 
           2655      2.61518e+9 
           2665      2.51385e+9 
           2675      2.52505e+9 
           2685      2.51903e+9 
           2695      2.43294e+9 
           2705      2.38667e+9 
           2715      2.39309e+9 
           2725       2.3891e+9 
           2735      2.36955e+9 
           2745      2.31747e+9 
           2755      2.30966e+9 
           2765      2.28603e+9 
           2775      2.29532e+9 
           2785      2.25735e+9 
           2795      2.18186e+9 
           2805      2.20234e+9 
           2815      2.19979e+9 
           2825      2.17575e+9 
           2835      2.09865e+9 
           2845      2.12111e+9 
           2855      2.08067e+9 
           2865       2.0832e+9 
           2875      2.06194e+9 
           2885      2.04378e+9 
           2895      2.00712e+9 
           2910      1.96962e+9 
           2930      1.94568e+9 
           2950      1.88956e+9 
           2970       1.8633e+9 
           2990      1.82476e+9 
           3010      1.75597e+9 
           3030      1.75437e+9 
           3050      1.72795e+9 
           3070      1.70112e+9 
           3090      1.63367e+9 
           3110      1.62956e+9 
           3130       1.5908e+9 
           3150      1.56637e+9 
           3170      1.52736e+9 
           3190      1.49883e+9 
           3210      1.47784e+9 
           3230      1.44287e+9 
           3250      1.42356e+9 
           3270      1.39074e+9 
           3290      1.36455e+9 
           3310       1.3412e+9 
           3330      1.31315e+9 
           3350       1.2911e+9 
           3370      1.26617e+9 
           3390      1.24741e+9 
           3410      1.22582e+9 
           3430      1.19933e+9 
           3450      1.17445e+9 
           3470      1.15438e+9 
           3490      1.13262e+9 
           3510      1.11553e+9 
           3530      1.10108e+9 
           3550       1.0807e+9 
           3570      1.06422e+9 
           3590      1.03524e+9 
           3610      1.01634e+9 
           3630      1.00374e+9 
           3640      1.00165e+9 
           3650      9.78436e+8 
           3670      9.66878e+8 
           3690      9.37666e+8 
           3710      9.22548e+8 
           3730      9.13439e+8 
           3750      9.71071e+8 
           3770      9.59046e+8 
           3790      9.66785e+8 
           3810      9.88843e+8 
           3830      9.03474e+8 
           3850      9.76281e+8 
           3870      9.49213e+8 
           3890      8.67279e+8 
           3910      9.38737e+8 
           3930       9.0623e+8 
           3950      9.00939e+8 
           3970      8.04305e+8 
           3990      8.73571e+8 
           4010      8.61248e+8 
           4030      8.32261e+8 
           4050      8.32973e+8 
           4070      8.02337e+8 
           4090      7.76718e+8 
           4110      7.22856e+8 
           4130      7.66406e+8 
           4150      7.59562e+8 
           4170      7.53377e+8 
           4190      7.44227e+8 
           4210       7.3662e+8 
           4230      7.21713e+8 
           4250      7.04758e+8 
           4270      6.87406e+8 
           4290      6.79538e+8 
           4310      6.62842e+8 
           4330      6.38428e+8 
           4350      5.96993e+8 
           4370      6.32535e+8 
           4390        6.287e+8 
           4410      6.20628e+8 
           4430      6.14038e+8 
           4450      6.04574e+8 
           4470      5.87355e+8 
           4490      5.87422e+8 
           4510      5.81038e+8 
           4530      5.72156e+8 
           4550      5.64061e+8 
           4570      5.54752e+8 
           4590      5.46137e+8 
           4610       5.3485e+8 
           4630      5.27726e+8 
           4650      5.10878e+8 
           4670      5.12195e+8 
           4690      5.08093e+8 
           4710      4.91611e+8 
           4730      4.91167e+8 
           4750      4.83266e+8 
           4770      4.82401e+8 
           4790      4.74473e+8 
           4810      4.65846e+8 
           4830      4.58863e+8 
           4850       4.4639e+8 
           4870      4.11232e+8 
           4890       4.4096e+8 
           4910         4.35e+8 
           4930      4.23402e+8 
           4950      4.20971e+8 
           4970      4.18154e+8 
           4990      4.11632e+8 
           5010      3.96735e+8 
           5030      3.99795e+8 
           5050      3.91686e+8 
           5070      3.89291e+8 
           5090      3.83562e+8 
           5110      3.77897e+8 
           5130      3.70332e+8 
           5150      3.66382e+8 
           5170       3.6313e+8 
           5190      3.58602e+8 
           5210      3.53273e+8 
           5230      3.48772e+8 
           5250      3.44329e+8 
           5270      3.39062e+8 
           5290      3.35278e+8 
           5310      3.30539e+8 
           5330      3.26578e+8 
           5350      3.22048e+8 
           5370      3.18269e+8 
           5390      3.13759e+8 
           5410      3.10117e+8 
           5430      3.05831e+8 
           5450      3.01739e+8 
           5470      2.97887e+8 
           5490      2.94095e+8 
           5510      2.90823e+8 
           5530      2.86579e+8 
           5550        2.836e+8 
           5570      2.79734e+8 
           5590       2.7647e+8 
           5610      2.72862e+8 
           5630      2.69643e+8 
           5650      2.65378e+8 
           5670      2.61001e+8 
           5690        2.569e+8 
           5710      2.55543e+8 
           5730      2.52626e+8 
           5750      2.48775e+8 
           5770      2.46986e+8 
           5790      2.43732e+8 
           5810      2.40851e+8 
           5830      2.37362e+8 
           5850      2.34916e+8 
           5870      2.27381e+8 
           5890      2.27707e+8 
           5910      2.25964e+8 
           5930      2.22781e+8 
           5950      2.20041e+8 
           5970      2.18791e+8 
           5990       2.1517e+8 
           6010      2.13281e+8 
           6030      2.10346e+8 
           6050      2.08093e+8 
           6070      2.06039e+8 
           6090      2.03641e+8 
           6110      2.01271e+8 
           6130      1.99047e+8 
           6150      1.95952e+8 
           6170      1.93942e+8 
           6190      1.92022e+8 
           6210      1.89996e+8 
           6230      1.87875e+8 
           6250       1.8543e+8 
           6270      1.83435e+8 
           6290       1.8147e+8 
           6310       1.7929e+8 
           6330      1.77454e+8 
           6350      1.75021e+8 
           6370      1.73394e+8 
           6390      1.71416e+8 
           6410       1.6955e+8 
           6430      1.67759e+8 
           6450      1.65842e+8 
           6470      1.63558e+8 
           6490      1.61764e+8 
           6510      1.60327e+8 
           6530      1.58375e+8 
           6550      1.55267e+8 
           6570      1.41388e+8 
           6590      1.52173e+8 
           6610      1.51538e+8 
           6630      1.50094e+8 
           6650      1.48392e+8 
           6670      1.45953e+8 
           6690      1.44434e+8 
           6710      1.43817e+8 
           6730       1.4194e+8 
           6750      1.40794e+8 
           6770      1.39314e+8 
           6790      1.36934e+8 
           6810      1.36196e+8 
           6830      1.34746e+8 
           6850      1.33462e+8 
           6870      1.32056e+8 
           6890      1.30528e+8 
           6910      1.29056e+8 
           6930      1.27951e+8 
           6950      1.26646e+8 
           6970      1.25339e+8 
           6990      1.24014e+8 
           7010       1.2274e+8 
           7030      1.21455e+8 
           7050      1.20214e+8 
           7070      1.17311e+8 
           7090       1.1779e+8 
           7110      1.15868e+8 
           7130      1.14797e+8 
           7150      1.14222e+8 
           7170      1.13058e+8 
           7190      1.11942e+8 
           7210      1.10814e+8 
           7230      1.08234e+8 
           7250      1.08391e+8 
           7270      1.07489e+8 
           7290       1.0568e+8 
           7310      1.05342e+8 
           7330      1.04271e+8 
           7350      1.03285e+8 
           7370      1.02282e+8 
           7390      1.01267e+8 
           7410      1.00275e+8 
           7430      9.92649e+7 
           7450      9.83118e+7 
           7470      9.69826e+7 
           7490      9.63647e+7 
           7510      9.54246e+7 
           7530      9.44732e+7 
           7550      9.36363e+7 
           7570      9.27346e+7 
           7590       9.1828e+7 
           7610      9.08515e+7 
           7630      9.00653e+7 
           7650      8.92151e+7 
           7670      8.83727e+7 
           7690      8.75186e+7 
           7710      8.66659e+7 
           7730      8.58397e+7 
           7750      8.50711e+7 
           7770      8.40222e+7 
           7790      8.34857e+7 
           7810      8.26449e+7 
           7830      8.19283e+7 
           7850      8.11873e+7 
           7870      8.03434e+7 
           7890      7.94645e+7 
           7910      7.88585e+7 
           7930      7.80718e+7 
           7950      7.73278e+7 
           7970       7.6614e+7 
           7990        7.593e+7 
           8010      7.52107e+7 
           8030      7.45619e+7 
           8050      7.39361e+7 
           8070      7.32866e+7 
           8090       7.2516e+7 
           8110      7.16147e+7 
           8130      7.13369e+7 
           8150      7.05845e+7 
           8170      7.00869e+7 
           8190      6.92283e+7 
           8210      6.84276e+7 
           8230      6.77784e+7 
           8250      6.74391e+7 
           8270      6.62925e+7 
           8290      6.61485e+7 
           8310      6.56013e+7 
           8330      6.50315e+7 
           8350       6.4207e+7 
           8370       6.3664e+7 
           8390      6.32109e+7 
           8410      6.25857e+7 
           8430        6.204e+7 
           8450      6.11663e+7 
           8470      6.05837e+7 
           8490       6.0701e+7 
           8510      5.92144e+7 
           8530      5.99156e+7 
           8550      5.74969e+7 
           8570      5.95679e+7 
           8590      5.71108e+7 
