# Kurucz ODFNEW /NOVER (2003)
# teff = 6500 K (value for the effective temperature for the model. Temperatures are given in K)
# logg = 2.5 log(cm/s2) (value for Log(G) for the model.)
# meta = -4  (value for the Metallicity for the model.)
# lh = 1.25  (l/Hp where l is the  mixing length of the convective element and Hp is the pressure scale height)
# vtur = 2 km/s (Microturbulence velocity)
# alpha = 0.4  (Alpha)
#
# column 1: WAVELENGTH (ANGSTROM), Wavelength in Angstrom
# column 2: FLUX (ERG/CM2/S/A), Flux in erg/cm2/s/A
          147.2     1.73866e-35 
            151     1.65225e-35 
          155.2     1.56403e-35 
          158.8     1.49392e-35 
            162     1.43549e-35 
            166     1.36714e-35 
          170.3     1.29897e-35 
          173.4     1.25294e-35 
          176.8     1.20522e-35 
          180.2     1.16017e-35 
          181.7     1.14109e-35 
          186.1     1.08777e-35 
            191     1.03267e-35 
          193.9     1.00201e-35 
          198.4     9.57076e-36 
          201.8     9.25097e-36 
            205     8.96441e-36 
          210.5     8.50208e-36 
          216.2     8.05969e-36 
          219.8     7.79784e-36 
            223     7.57565e-36 
          226.8     7.32392e-36 
            230     7.12154e-36 
            234     6.88015e-36 
            240     6.54044e-36 
          246.5     6.20006e-36 
          252.4     5.91358e-36 
          256.8     5.71267e-36 
            260     5.57292e-36 
            264     5.40532e-36 
          268.5     5.22566e-36 
          273.5     5.03634e-36 
          278.5     4.85712e-36 
            284     4.67082e-36 
            290     4.47954e-36 
            296     4.29978e-36 
            301     4.15812e-36 
            308     3.97126e-36 
            318     3.72542e-36 
            328     3.50172e-36 
            338     3.29759e-36 
            348     9.89201e-23 
            357     7.63633e-22 
            366     5.16598e-21 
            375      3.1735e-20 
            385     2.15167e-19 
            395     1.31965e-18 
            405     7.37726e-18 
            414     3.22557e-17 
            422     1.13325e-16 
            430     3.79297e-16 
            441     1.85398e-15 
            451     7.31581e-15 
            460     2.38643e-14 
            470     8.39992e-14 
            480     2.79947e-13 
            490     8.86326e-13 
            500     2.67433e-12 
            506     4.82175e-12 
            512     9.32425e-12 
            520     2.13122e-11 
            530     5.65751e-11 
            540     1.44594e-10 
            550     3.56579e-10 
            560     8.50044e-10 
            570      1.96249e-9 
            580      4.32209e-9 
            590      9.56455e-9 
            600      2.02523e-8 
            610      4.17835e-8 
            620      8.41026e-8 
            630      1.65357e-7 
            640      3.17921e-7 
            650      5.98344e-7 
            658      9.77925e-7 
            665      1.48758e-6 
            675      2.66565e-6 
            685       4.6908e-6 
            695      8.11291e-6 
            705      1.38011e-5 
            716      2.43098e-5 
            726      4.00312e-5 
            735      6.19385e-5 
            745      9.92756e-5 
            755     0.000157003 
            765     0.000245128 
            775     0.000378018 
            785      2.43617e-7 
            795      3.50201e-7 
            805      4.98229e-7 
            815      7.01761e-7 
            825      9.79206e-7 
            835      1.35395e-6 
            845      1.85551e-6 
            855      2.52117e-6 
            865       3.3975e-6 
            875      4.54201e-6 
            885      6.02642e-6 
            895      7.93694e-6 
            905      1.03784e-5 
            915       0.0649852 
            925        0.240596 
            935        0.360184 
            945        0.567145 
            955        0.839439 
            965        0.880549 
            975        0.633876 
            985         1.95225 
            995         2.37566 
           1005         2.50754 
           1015         1.74018 
           1025         2.83788 
           1035         3.97329 
           1045          6.8755 
           1055         9.22002 
           1065         12.2074 
           1075         14.9023 
           1085         18.1855 
           1095         20.9205 
           1105          24.192 
           1115         27.6311 
           1125         30.4658 
           1135         21.4026 
           1145         16.4327 
           1155         13.7261 
           1165         12.1597 
           1175         11.3148 
           1185         76.8952 
           1195          52.298 
           1205         49.1115 
           1215         42.9217 
           1225         64.4542 
           1235         93.1607 
           1245         24.1361 
           1255         30.7358 
           1265         39.1908 
           1275         51.1715 
           1285         70.3665 
           1295         96.1286 
           1305          132.26 
           1315         189.388 
           1325         270.891 
           1335         401.413 
           1345          635.85 
           1355         729.277 
           1365         845.264 
           1375         991.128 
           1385         1149.11 
           1395         1327.25 
           1405         1533.35 
           1415          1733.7 
           1425         1994.75 
           1435         2257.57 
           1442         2465.43 
           1447         2640.23 
           1455         2886.39 
           1465         3258.91 
           1475         3651.06 
           1485          4076.8 
           1495          4570.6 
           1505         5080.72 
           1512          5479.7 
           1517         5738.63 
           1525         6221.25 
           1535         6849.55 
           1545         7519.99 
           1555         8233.12 
           1565         8812.41 
           1575         9757.42 
           1585         10609.9 
           1595         11547.3 
           1605         12512.5 
           1615           13762 
           1625         15293.9 
           1635         17383.3 
           1645         22540.9 
           1655         35547.6 
           1665         98285.5 
           1672          163813 
           1677          249038 
           1685          395541 
           1695          618772 
           1705          859356 
           1715      1.11199e+6 
           1725      1.29644e+6 
           1735      1.48278e+6 
           1745      1.56864e+6 
           1755      1.71484e+6 
           1765      1.75315e+6 
           1775      1.88088e+6 
           1785        1.969e+6 
           1795      2.11222e+6 
           1805      2.13744e+6 
           1815       2.2274e+6 
           1825      2.27194e+6 
           1835      2.39638e+6 
           1845      2.36804e+6 
           1855      2.52947e+6 
           1865      2.65459e+6 
           1875      2.72333e+6 
           1885      2.81146e+6 
           1895        2.896e+6 
           1905      2.90419e+6 
           1915      3.05567e+6 
           1925      3.17009e+6 
           1935      3.17736e+6 
           1945       3.3291e+6 
           1955      3.40158e+6 
           1967       3.5123e+6 
           1976      3.50556e+6 
           1984      3.55601e+6 
           1995      3.69732e+6 
           2005      3.72201e+6 
           2015      3.78379e+6 
           2025      3.79704e+6 
           2035       3.9846e+6 
           2045      4.05671e+6 
           2055      4.05104e+6 
           2065       4.1325e+6 
           2074      4.29832e+6 
           2078       4.3207e+6 
           2085      4.33446e+6 
           2095       4.3991e+6 
           2105       4.4556e+6 
           2115      4.54764e+6 
           2125       4.5686e+6 
           2135       4.6121e+6 
           2145      4.73509e+6 
           2155      4.78429e+6 
           2165      4.76013e+6 
           2175       4.8567e+6 
           2185      4.95975e+6 
           2195      5.07847e+6 
           2205      5.05754e+6 
           2215      4.95408e+6 
           2225      5.13512e+6 
           2235      5.32677e+6 
           2245      5.32427e+6 
           2255      5.25907e+6 
           2265      5.22148e+6 
           2275       5.4391e+6 
           2285      5.51332e+6 
           2295      5.50207e+6 
           2305      5.61681e+6 
           2315      5.63636e+6 
           2325      5.68688e+6 
           2335      5.69576e+6 
           2345      5.55048e+6 
           2355      5.84587e+6 
           2365      5.68426e+6 
           2375      5.87065e+6 
           2385      5.60005e+6 
           2395      5.91238e+6 
           2405       5.9601e+6 
           2415      6.01278e+6 
           2425      6.27181e+6 
           2435      6.21075e+6 
           2445       6.3101e+6 
           2455      6.36443e+6 
           2465      6.31848e+6 
           2475      6.32964e+6 
           2485      6.32882e+6 
           2495      6.33811e+6 
           2505      6.55417e+6 
           2513      6.37052e+6 
           2518      6.36961e+6 
           2525      6.31839e+6 
           2535      6.39761e+6 
           2545      6.53414e+6 
           2555      6.76702e+6 
           2565        6.747e+6 
           2575       6.8589e+6 
           2585      6.91925e+6 
           2595       6.9119e+6 
           2605      6.86116e+6 
           2615      6.86938e+6 
           2625      6.92594e+6 
           2635      7.04113e+6 
           2645      7.32509e+6 
           2655      7.34911e+6 
           2665      7.26223e+6 
           2675      7.33229e+6 
           2685      7.45231e+6 
           2695      7.43705e+6 
           2705      7.50161e+6 
           2715      7.37899e+6 
           2725      7.41828e+6 
           2735      7.48249e+6 
           2745      7.23008e+6 
           2755      7.31667e+6 
           2765      7.52451e+6 
           2775      7.70129e+6 
           2785      7.68348e+6 
           2795       7.0528e+6 
           2805      7.40959e+6 
           2815       7.9033e+6 
           2825      7.92628e+6 
           2835      7.86624e+6 
           2845       7.9153e+6 
           2855      7.77952e+6 
           2865      7.88916e+6 
           2875      7.98524e+6 
           2885      7.97931e+6 
           2895      8.11532e+6 
           2910      8.17913e+6 
           2930      8.14596e+6 
           2950      8.15753e+6 
           2970       8.2509e+6 
           2990      8.28964e+6 
           3010      8.37403e+6 
           3030      8.41813e+6 
           3050      8.48466e+6 
           3070      8.47001e+6 
           3090      8.57378e+6 
           3110      8.62005e+6 
           3130      8.66252e+6 
           3150      8.68841e+6 
           3170      8.73096e+6 
           3190      8.70919e+6 
           3210       8.7882e+6 
           3230      8.73134e+6 
           3250      8.83036e+6 
           3270      8.93195e+6 
           3290      8.97996e+6 
           3310      9.01171e+6 
           3330      8.98363e+6 
           3350      8.96161e+6 
           3370      9.01379e+6 
           3390      9.03625e+6 
           3410      9.13402e+6 
           3430      9.15718e+6 
           3450      9.15324e+6 
           3470        9.181e+6 
           3490      9.21619e+6 
           3510      9.24661e+6 
           3530      9.27123e+6 
           3550       9.2953e+6 
           3570      9.27982e+6 
           3590      9.30153e+6 
           3610      9.31901e+6 
           3630      9.34126e+6 
           3640      9.35056e+6 
           3650      9.39639e+6 
           3670       9.3144e+6 
           3690      9.31247e+6 
           3710      1.09933e+7 
           3730      1.23228e+7 
           3750      1.51814e+7 
           3770      1.56524e+7 
           3790      1.71835e+7 
           3810      1.88576e+7 
           3830      1.63362e+7 
           3850      1.98105e+7 
           3870      2.06754e+7 
           3890      1.56223e+7 
           3910      2.05771e+7 
           3930      2.05965e+7 
           3950      2.05135e+7 
           3970      1.53059e+7 
           3990      2.01551e+7 
           4010      2.06848e+7 
           4030      2.06424e+7 
           4050      2.05266e+7 
           4070      2.02444e+7 
           4090      1.85916e+7 
           4110      1.58488e+7 
           4130      1.98844e+7 
           4150      2.00036e+7 
           4170      1.99545e+7 
           4190      1.98672e+7 
           4210      1.97576e+7 
           4230      1.96388e+7 
           4250      1.95499e+7 
           4270       1.9424e+7 
           4290      1.92767e+7 
           4310      1.90069e+7 
           4330      1.71118e+7 
           4350      1.53688e+7 
           4370      1.86732e+7 
           4390      1.87461e+7 
           4410      1.87016e+7 
           4430        1.863e+7 
           4450      1.85232e+7 
           4470       1.8424e+7 
           4490       1.8326e+7 
           4510      1.82231e+7 
           4530      1.81191e+7 
           4550      1.80137e+7 
           4570      1.79204e+7 
           4590      1.78223e+7 
           4610      1.77251e+7 
           4630      1.76231e+7 
           4650      1.75258e+7 
           4670      1.74261e+7 
           4690      1.73292e+7 
           4710      1.72282e+7 
           4730      1.71333e+7 
           4750      1.70361e+7 
           4770      1.69382e+7 
           4790      1.68266e+7 
           4810       1.6687e+7 
           4830      1.64667e+7 
           4850      1.51574e+7 
           4870      1.32745e+7 
           4890      1.60998e+7 
           4910      1.62049e+7 
           4930      1.61573e+7 
           4950      1.60901e+7 
           4970      1.60005e+7 
           4990      1.59088e+7 
           5010      1.58151e+7 
           5030      1.57283e+7 
           5050      1.56379e+7 
           5070      1.55485e+7 
           5090        1.546e+7 
           5110      1.53709e+7 
           5130      1.52828e+7 
           5150      1.51942e+7 
           5170      1.50783e+7 
           5190       1.5007e+7 
           5210      1.49323e+7 
           5230      1.48445e+7 
           5250       1.4763e+7 
           5270      1.46729e+7 
           5290      1.45944e+7 
           5310      1.45088e+7 
           5330       1.4424e+7 
           5350      1.43426e+7 
           5370      1.42595e+7 
           5390      1.41772e+7 
           5410      1.40945e+7 
           5430      1.40138e+7 
           5450      1.39327e+7 
           5470      1.38537e+7 
           5490      1.37742e+7 
           5510      1.36942e+7 
           5530      1.36151e+7 
           5550      1.35367e+7 
           5570      1.34591e+7 
           5590       1.3381e+7 
           5610      1.33038e+7 
           5630      1.32284e+7 
           5650      1.31515e+7 
           5670      1.30764e+7 
           5690      1.30009e+7 
           5710      1.29262e+7 
           5730      1.28522e+7 
           5750      1.27778e+7 
           5770      1.27052e+7 
           5790      1.26322e+7 
           5810      1.25587e+7 
           5830      1.24871e+7 
           5850      1.24151e+7 
           5870      1.23438e+7 
           5890      1.22677e+7 
           5910       1.2201e+7 
           5930      1.21306e+7 
           5950      1.20609e+7 
           5970      1.19918e+7 
           5990      1.19224e+7 
           6010      1.18536e+7 
           6030      1.17855e+7 
           6050       1.1718e+7 
           6070      1.16511e+7 
           6090      1.15838e+7 
           6110      1.15182e+7 
           6130      1.14512e+7 
           6150      1.13858e+7 
           6170       1.1321e+7 
           6190      1.12568e+7 
           6210      1.11922e+7 
           6230      1.11283e+7 
           6250      1.10649e+7 
           6270      1.10021e+7 
           6290      1.09398e+7 
           6310      1.08772e+7 
           6330      1.08152e+7 
           6350      1.07537e+7 
           6370      1.06928e+7 
           6390      1.06324e+7 
           6410      1.05717e+7 
           6430      1.05115e+7 
           6450      1.04509e+7 
           6470      1.03918e+7 
           6490      1.03296e+7 
           6510      1.02431e+7 
           6530      1.01284e+7 
           6550      9.64073e+6 
           6570      8.30378e+6 
           6590      9.87798e+6 
           6610      9.94159e+6 
           6630       9.9177e+6 
           6650      9.87432e+6 
           6670      9.81858e+6 
           6690      9.76333e+6 
           6710      9.70856e+6 
           6730      9.65344e+6 
           6750      9.59962e+6 
           6770      9.54545e+6 
           6790      9.49176e+6 
           6810      9.43852e+6 
           6830      9.38494e+6 
           6850      9.33263e+6 
           6870      9.27997e+6 
           6890      9.22855e+6 
           6910      9.17678e+6 
           6930      9.12546e+6 
           6950       9.0738e+6 
           6970      9.02335e+6 
           6990      8.97333e+6 
           7010      8.92296e+6 
           7030      8.87303e+6 
           7050      8.82351e+6 
           7070      8.77442e+6 
           7090      8.72573e+6 
           7110      8.67746e+6 
           7130      8.62885e+6 
           7150      8.58138e+6 
           7170      8.53357e+6 
           7190      8.48616e+6 
           7210      8.43915e+6 
           7230      8.39252e+6 
           7250      8.34628e+6 
           7270      8.29971e+6 
           7290      8.25423e+6 
           7310      8.20842e+6 
           7330      8.16299e+6 
           7350      8.11793e+6 
           7370      8.07323e+6 
           7390      8.02891e+6 
           7410      7.98425e+6 
           7430      7.94064e+6 
           7450      7.89671e+6 
           7470      7.85313e+6 
           7490      7.81057e+6 
           7510      7.76769e+6 
           7530      7.72516e+6 
           7550       7.6823e+6 
           7570      7.64044e+6 
           7590      7.59892e+6 
           7610      7.55708e+6 
           7630      7.51622e+6 
           7650      7.47504e+6 
           7670      7.43419e+6 
           7690      7.39366e+6 
           7710      7.35345e+6 
           7730      7.31356e+6 
           7750      7.27397e+6 
           7770      7.23408e+6 
           7790      7.19512e+6 
           7810      7.15646e+6 
           7830      7.11749e+6 
           7850      7.07944e+6 
           7870      7.04107e+6 
           7890        7.003e+6 
           7910      6.96522e+6 
           7930      6.92773e+6 
           7950      6.89054e+6 
           7970      6.85363e+6 
           7990      6.81641e+6 
           8010      6.78006e+6 
           8030      6.74341e+6 
           8050      6.70762e+6 
           8070      6.67152e+6 
           8090       6.6357e+6 
           8110      6.60014e+6 
           8130      6.56486e+6 
           8150      6.52984e+6 
           8170      6.49509e+6 
           8190       6.4606e+6 
           8210      6.42916e+6 
           8230      6.39573e+6 
           8250      6.36309e+6 
           8270       6.3307e+6 
           8290      6.29745e+6 
           8310      6.26227e+6 
           8330      6.22626e+6 
           8350      6.19377e+6 
           8370      6.14431e+6 
           8390      6.11291e+6 
           8410      6.07002e+6 
           8430      6.06192e+6 
           8450      6.02957e+6 
           8470      5.91763e+6 
           8490      6.02672e+6 
           8510      5.79399e+6 
           8530      5.99674e+6 
           8550      5.65229e+6 
           8570       5.9732e+6 
