# Kurucz ODFNEW /NOVER (2003)
# teff = 10000 K (value for the effective temperature for the model. Temperatures are given in K)
# logg = 3.5 log(cm/s2) (value for Log(G) for the model.)
# meta = -0.5  (value for the Metallicity for the model.)
# lh = 1.25  (l/Hp where l is the  mixing length of the convective element and Hp is the pressure scale height)
# vtur = 2 km/s (Microturbulence velocity)
# alpha = 0.4  (Alpha)
#
# column 1: WAVELENGTH (ANGSTROM), Wavelength in Angstrom
# column 2: FLUX (ERG/CM2/S/A), Flux in erg/cm2/s/A
          268.5     5.37041e-23 
          273.5     2.44116e-22 
          278.5     9.76282e-22 
            284     4.20925e-21 
            290     1.94193e-20 
            296     8.41682e-20 
            301     2.74311e-19 
            308     1.34646e-18 
            318     1.16043e-17 
            328     8.79458e-17 
            338     5.91752e-16 
            348     3.57461e-15 
            357     1.65922e-14 
            366     7.12984e-14 
            375      2.8531e-13 
            385     1.23499e-12 
            395     4.95344e-12 
            405     1.85511e-11 
            414     5.75987e-11 
            422     1.51251e-10 
            430     3.82312e-10 
            441      1.29821e-9 
            451      3.73616e-9 
            460      9.29005e-9 
            470      2.45036e-8 
            480      6.19821e-8 
            490      1.50809e-7 
            500      3.53493e-7 
            506      7.27192e-7 
            512      1.27624e-6 
            520      2.35484e-6 
            530      4.95555e-6 
            540      1.00252e-5 
            550      1.99909e-5 
            560       3.8622e-5 
            570      7.28494e-5 
            580     0.000133479 
            590      0.00024225 
            600     0.000428163 
            610     0.000742443 
            620      0.00126298 
            630      0.00211136 
            640      0.00346874 
            650      0.00561233 
            658      0.00815369 
            665       0.0112144 
            675       0.0174745 
            685       0.0268602 
            695       0.0407494 
            705       0.0609998 
            716       0.0938634 
            726        0.137183 
            735         0.19118 
            745        0.273649 
            755         0.38775 
            765        0.544007 
            775         0.75625 
            785         1.04174 
            795         1.42073 
            805         1.92491 
            815         2.58619 
            825          3.4474 
            835         4.55544 
            845         5.98894 
            855         7.81056 
            865         10.1188 
            875         13.0173 
            885          16.655 
            895         21.1724 
            905          26.735 
            915         380.102 
            925         2776.74 
            935         4806.16 
            945         8561.18 
            955         13373.1 
            965         17879.6 
            975         13489.5 
            985         27554.3 
            995         34208.8 
           1005           39399 
           1015         37529.4 
           1025         23139.7 
           1035         46935.3 
           1045         67585.5 
           1055         92085.1 
           1065          104958 
           1075          133528 
           1085          156692 
           1095          168846 
           1105      2.08551e+6 
           1115      2.12648e+7 
           1125      2.80226e+7 
           1135      3.28001e+7 
           1145      2.91608e+7 
           1155       2.9124e+7 
           1165      2.73707e+7 
           1175      1.79048e+7 
           1185      1.21862e+7 
           1195          224488 
           1205          187075 
           1215         47599.5 
           1225          192973 
           1235          519489 
           1245      6.97449e+6 
           1255       2.9095e+7 
           1265      2.84249e+7 
           1275      6.63693e+7 
           1285      9.55749e+7 
           1295      8.79292e+7 
           1305      4.18931e+7 
           1315      9.81373e+7 
           1325       1.1612e+8 
           1335      1.10244e+8 
           1345      1.32058e+8 
           1355      1.23156e+8 
           1365      1.08359e+8 
           1375      1.19099e+8 
           1385      1.19343e+8 
           1395      1.23427e+8 
           1405      1.27041e+8 
           1415      1.21287e+8 
           1425      1.30019e+8 
           1435      1.18526e+8 
           1442      1.31992e+8 
           1447      1.42609e+8 
           1455      1.43414e+8 
           1465      1.32682e+8 
           1475      1.24496e+8 
           1485      1.29759e+8 
           1495      1.38994e+8 
           1505      1.39463e+8 
           1512      1.30997e+8 
           1517      1.39888e+8 
           1525      1.27997e+8 
           1535      1.23688e+8 
           1545      1.45228e+8 
           1555      1.26164e+8 
           1565       1.1289e+8 
           1575      1.29216e+8 
           1585      1.41216e+8 
           1595      1.49165e+8 
           1605      1.40534e+8 
           1615      1.39938e+8 
           1625      1.27059e+8 
           1635      1.31342e+8 
           1645      1.38042e+8 
           1655      1.19165e+8 
           1665      1.35223e+8 
           1672      1.06306e+8 
           1677      1.28203e+8 
           1685      1.39508e+8 
           1695       1.2928e+8 
           1705      1.23902e+8 
           1715      1.24329e+8 
           1725      1.22778e+8 
           1735      1.28466e+8 
           1745      1.25551e+8 
           1755      1.35181e+8 
           1765      1.18271e+8 
           1775      1.30251e+8 
           1785      1.28926e+8 
           1795      1.37689e+8 
           1805      1.30744e+8 
           1815      1.29868e+8 
           1825      1.24874e+8 
           1835      1.21828e+8 
           1845      1.13671e+8 
           1855      1.18689e+8 
           1865      1.18492e+8 
           1875      1.23447e+8 
           1885      1.22936e+8 
           1895      1.20047e+8 
           1905      1.14554e+8 
           1915      1.18734e+8 
           1925      1.19588e+8 
           1935      1.18143e+8 
           1945      1.22001e+8 
           1955      1.20214e+8 
           1967      1.22442e+8 
           1976      1.20509e+8 
           1984      1.17433e+8 
           1995      1.14873e+8 
           2005      1.14255e+8 
           2015      1.08151e+8 
           2025      1.10062e+8 
           2035      1.11221e+8 
           2045      1.13153e+8 
           2055      1.07157e+8 
           2065      1.07429e+8 
           2074      1.10379e+8 
           2078      1.13078e+8 
           2085      1.12363e+8 
           2095      1.08787e+8 
           2105      1.07109e+8 
           2115      1.06419e+8 
           2125      1.06754e+8 
           2135      9.45331e+7 
           2145      1.03447e+8 
           2155      1.03478e+8 
           2165      9.93499e+7 
           2175      9.81915e+7 
           2185      9.76183e+7 
           2195      1.02384e+8 
           2205      9.83118e+7 
           2215      9.12448e+7 
           2225      8.98329e+7 
           2235      9.80433e+7 
           2245      8.98764e+7 
           2255      8.83995e+7 
           2265      8.87074e+7 
           2275      9.37888e+7 
           2285      9.56971e+7 
           2295      9.04661e+7 
           2305      8.89171e+7 
           2315      8.66041e+7 
           2325      8.67736e+7 
           2335      8.29296e+7 
           2345      7.75584e+7 
           2355      8.49302e+7 
           2365      7.79899e+7 
           2375      8.17225e+7 
           2385       7.3356e+7 
           2395       7.9365e+7 
           2405      7.59643e+7 
           2415      7.75327e+7 
           2425      8.07832e+7 
           2435      7.71284e+7 
           2445      8.17168e+7 
           2455      7.86584e+7 
           2465      7.84865e+7 
           2475      7.54735e+7 
           2485      7.96624e+7 
           2495      7.72096e+7 
           2505       8.2574e+7 
           2513        7.671e+7 
           2518      7.72018e+7 
           2525      7.27149e+7 
           2535      7.18844e+7 
           2545      7.24607e+7 
           2555      7.58015e+7 
           2565      7.53834e+7 
           2575      7.93273e+7 
           2585      7.93462e+7 
           2595      7.85736e+7 
           2605       7.5501e+7 
           2615      7.52112e+7 
           2625      7.74713e+7 
           2635      7.77254e+7 
           2645      8.34391e+7 
           2655      8.23201e+7 
           2665      7.74493e+7 
           2675      7.97986e+7 
           2685      7.97174e+7 
           2695      7.68913e+7 
           2705      7.79663e+7 
           2715      7.50318e+7 
           2725      7.53395e+7 
           2735      7.94331e+7 
           2745      7.08909e+7 
           2755       7.0814e+7 
           2765      7.27567e+7 
           2775      7.61421e+7 
           2785       7.4586e+7 
           2795      5.78933e+7 
           2805      6.44814e+7 
           2815       7.6537e+7 
           2825      7.66523e+7 
           2835      7.44204e+7 
           2845       7.2176e+7 
           2855      7.05435e+7 
           2865      7.34116e+7 
           2875      7.18899e+7 
           2885      7.32301e+7 
           2895      7.16732e+7 
           2910      7.60968e+7 
           2930      7.32887e+7 
           2950      7.31684e+7 
           2970      7.34761e+7 
           2990      7.33308e+7 
           3010       7.4081e+7 
           3030       7.3373e+7 
           3050      7.23248e+7 
           3070      7.10417e+7 
           3090      7.16205e+7 
           3110      7.02115e+7 
           3130      6.97478e+7 
           3150      6.98596e+7 
           3170      6.92621e+7 
           3190      6.73079e+7 
           3210      6.79708e+7 
           3230      6.66153e+7 
           3250      6.68572e+7 
           3270      6.67994e+7 
           3290      6.69503e+7 
           3310      6.68073e+7 
           3330      6.54467e+7 
           3350      6.44057e+7 
           3370      6.44496e+7 
           3390      6.37963e+7 
           3410       6.4372e+7 
           3430      6.40045e+7 
           3450      6.35146e+7 
           3470      6.27908e+7 
           3490      6.24166e+7 
           3510      6.23586e+7 
           3530      6.22133e+7 
           3550      6.19029e+7 
           3570      6.11492e+7 
           3590       6.0727e+7 
           3610      6.03855e+7 
           3630      5.99106e+7 
           3640      5.96331e+7 
           3650      6.05425e+7 
           3670        5.996e+7 
           3690      5.74525e+7 
           3710      6.14904e+7 
           3730      6.62943e+7 
           3750      9.02141e+7 
           3770      9.70709e+7 
           3790      1.19808e+8 
           3810      1.37387e+8 
           3830      1.08476e+8 
           3850      1.47362e+8 
           3870      1.62442e+8 
           3890      9.48415e+7 
           3910       1.5884e+8 
           3930      1.60574e+8 
           3950      1.57346e+8 
           3970      8.96785e+7 
           3990      1.50558e+8 
           4010      1.57918e+8 
           4030       1.5568e+8 
           4050      1.54449e+8 
           4070      1.49678e+8 
           4090      1.23749e+8 
           4110      9.47951e+7 
           4130      1.41284e+8 
           4150      1.44189e+8 
           4170       1.4183e+8 
           4190      1.40702e+8 
           4210      1.39107e+8 
           4230        1.365e+8 
           4250      1.34763e+8 
           4270      1.32617e+8 
           4290      1.30399e+8 
           4310      1.25347e+8 
           4330      9.98301e+7 
           4350      8.47649e+7 
           4370      1.21216e+8 
           4390      1.20638e+8 
           4410      1.20375e+8 
           4430      1.19274e+8 
           4450      1.18014e+8 
           4470      1.16191e+8 
           4490      1.13571e+8 
           4510      1.13142e+8 
           4530      1.11477e+8 
           4550       1.0924e+8 
           4570       1.0893e+8 
           4590      1.07198e+8 
           4610      1.06943e+8 
           4630      1.04614e+8 
           4650      1.04186e+8 
           4670      1.02741e+8 
           4690      1.01283e+8 
           4710       9.8942e+7 
           4730      9.89372e+7 
           4750        9.768e+7 
           4770      9.64867e+7 
           4790      9.50571e+7 
           4810      9.33499e+7 
           4830      9.06163e+7 
           4850      7.38756e+7 
           4870      5.97477e+7 
           4890      8.61959e+7 
           4910      8.76531e+7 
           4930      8.65605e+7 
           4950      8.62176e+7 
           4970      8.53787e+7 
           4990      8.42342e+7 
           5010      8.24839e+7 
           5030      8.20303e+7 
           5050      8.05014e+7 
           5070      8.02735e+7 
           5090      7.93444e+7 
           5110      7.83479e+7 
           5130      7.74677e+7 
           5150      7.64495e+7 
           5170      7.48754e+7 
           5190      7.41232e+7 
           5210       7.3787e+7 
           5230      7.26026e+7 
           5250      7.21844e+7 
           5270      7.08223e+7 
           5290      7.05665e+7 
           5310      6.94187e+7 
           5330      6.86693e+7 
           5350      6.82239e+7 
           5370      6.74058e+7 
           5390       6.6638e+7 
           5410      6.57717e+7 
           5430      6.50696e+7 
           5450      6.44686e+7 
           5470      6.37046e+7 
           5490      6.30263e+7 
           5510      6.23227e+7 
           5530      6.16005e+7 
           5550      6.09959e+7 
           5570      6.03182e+7 
           5590      5.96679e+7 
           5610      5.90421e+7 
           5630      5.84047e+7 
           5650      5.77158e+7 
           5670      5.70937e+7 
           5690      5.65162e+7 
           5710      5.59165e+7 
           5730      5.53306e+7 
           5750      5.47219e+7 
           5770      5.41474e+7 
           5790      5.35549e+7 
           5810      5.29949e+7 
           5830      5.24379e+7 
           5850      5.18884e+7 
           5870      5.12402e+7 
           5890      5.06757e+7 
           5910      5.02664e+7 
           5930      4.97511e+7 
           5950      4.91523e+7 
           5970      4.87083e+7 
           5990      4.81263e+7 
           6010      4.77043e+7 
           6030      4.72288e+7 
           6050      4.67246e+7 
           6070       4.6268e+7 
           6090      4.57959e+7 
           6110      4.53311e+7 
           6130      4.48624e+7 
           6150      4.41039e+7 
           6170      4.39511e+7 
           6190      4.35358e+7 
           6210      4.30946e+7 
           6230      4.26563e+7 
           6250      4.21165e+7 
           6270      4.18215e+7 
           6290      4.14102e+7 
           6310      4.09769e+7 
           6330      4.05905e+7 
           6350      3.98755e+7 
           6370      3.95967e+7 
           6390      3.94028e+7 
           6410      3.89977e+7 
           6430      3.86398e+7 
           6450      3.81153e+7 
           6470      3.78575e+7 
           6490      3.73804e+7 
           6510      3.68986e+7 
           6530      3.60598e+7 
           6550      3.19868e+7 
           6570      2.58016e+7 
           6590      3.43122e+7 
           6610      3.50611e+7 
           6630      3.49416e+7 
           6650      3.46934e+7 
           6670      3.44171e+7 
           6690      3.41005e+7 
           6710       3.3798e+7 
           6730      3.34468e+7 
           6750      3.31588e+7 
           6770      3.28637e+7 
           6790      3.25519e+7 
           6810      3.22562e+7 
           6830      3.19472e+7 
           6850       3.1659e+7 
           6870      3.13712e+7 
           6890      3.10846e+7 
           6910      3.07992e+7 
           6930      3.05118e+7 
           6950      3.02405e+7 
           6970      2.99649e+7 
           6990      2.96973e+7 
           7010      2.93755e+7 
           7030      2.91598e+7 
           7050        2.889e+7 
           7070      2.86348e+7 
           7090      2.83881e+7 
           7110      2.80892e+7 
           7130       2.7874e+7 
           7150      2.76122e+7 
           7170      2.73858e+7 
           7190      2.71441e+7 
           7210      2.69067e+7 
           7230      2.66636e+7 
           7250      2.64142e+7 
           7270       2.6205e+7 
           7290      2.59678e+7 
           7310       2.5742e+7 
           7330      2.55246e+7 
           7350      2.53057e+7 
           7370      2.50894e+7 
           7390      2.48704e+7 
           7410      2.46492e+7 
           7430      2.43986e+7 
           7450      2.42155e+7 
           7470      2.39894e+7 
           7490      2.38064e+7 
           7510      2.36083e+7 
           7530       2.3418e+7 
           7550       2.3222e+7 
           7570      2.30232e+7 
           7590      2.28301e+7 
           7610      2.26407e+7 
           7630      2.24484e+7 
           7650      2.22558e+7 
           7670      2.20701e+7 
           7690       2.1886e+7 
           7710      2.17016e+7 
           7730      2.15277e+7 
           7750       2.1349e+7 
           7770      2.08055e+7 
           7790      2.09987e+7 
           7810      2.08264e+7 
           7830      2.06526e+7 
           7850       2.0468e+7 
           7870      2.02473e+7 
           7890      2.00407e+7 
           7910      1.99798e+7 
           7930      1.98199e+7 
           7950      1.95981e+7 
           7970      1.95064e+7 
           7990      1.91828e+7 
           8010      1.91923e+7 
           8030      1.90378e+7 
           8050      1.88852e+7 
           8070      1.87338e+7 
           8090      1.85849e+7 
           8110      1.84321e+7 
           8130      1.82902e+7 
           8150      1.81466e+7 
           8170      1.80026e+7 
           8190      1.78266e+7 
           8210      1.77533e+7 
           8230      1.75926e+7 
           8250       1.7509e+7 
           8270       1.7441e+7 
           8290      1.73059e+7 
           8310      1.71862e+7 
           8330      1.70288e+7 
           8350      1.69106e+7 
           8370      1.67557e+7 
           8390      1.65897e+7 
           8410      1.63895e+7 
           8430      1.62636e+7 
           8450      1.59988e+7 
           8470      1.56172e+7 
           8490      1.61312e+7 
           8510      1.50806e+7 
           8530       1.6191e+7 
           8550      1.42436e+7 
           8570      1.63982e+7 
           8590      1.49996e+7 
           8610       1.4558e+7 
           8630      1.66161e+7 
           8650      1.58551e+7 
           8670      1.28908e+7 
           8690      1.62942e+7 
           8710      1.68958e+7 
           8730      1.61902e+7 
           8750      1.24254e+7 
           8770      1.52978e+7 
           8790       1.6673e+7 
           8810      1.67037e+7 
           8830      1.63184e+7 
           8850      1.44713e+7 
           8870      1.20321e+7 
           8890      1.54916e+7 
           8910      1.60281e+7 
           8930      1.60178e+7 
           8950      1.59868e+7 
           8970      1.57526e+7 
           8990      1.50743e+7 
           9010      1.18309e+7 
           9030      1.30232e+7 
           9050      1.49841e+7 
           9070      1.51164e+7 
           9090      1.50217e+7 
           9110      1.50506e+7 
           9130      1.49757e+7 
           9150      1.48658e+7 
           9170      1.46935e+7 
