# Kurucz ODFNEW /NOVER (2003)
# teff = 8500 K (value for the effective temperature for the model. Temperatures are given in K)
# logg = 3.5 log(cm/s2) (value for Log(G) for the model.)
# meta = -4  (value for the Metallicity for the model.)
# lh = 1.25  (l/Hp where l is the  mixing length of the convective element and Hp is the pressure scale height)
# vtur = 2 km/s (Microturbulence velocity)
# alpha = 0.4  (Alpha)
#
# column 1: WAVELENGTH (ANGSTROM), Wavelength in Angstrom
# column 2: FLUX (ERG/CM2/S/A), Flux in erg/cm2/s/A
          147.2     1.73866e-35 
            151     1.65225e-35 
          155.2     1.56403e-35 
          158.8     1.49392e-35 
            162     1.43549e-35 
            166     1.36714e-35 
          170.3     1.29897e-35 
          173.4     1.25294e-35 
          176.8     1.20522e-35 
          180.2     1.16017e-35 
          181.7     1.14109e-35 
          186.1     1.08777e-35 
            191     1.03267e-35 
          193.9     1.00201e-35 
          198.4     9.57076e-36 
          201.8     9.25097e-36 
            205     8.96441e-36 
          210.5     8.50208e-36 
          216.2     8.05969e-36 
          219.8     7.79784e-36 
            223     7.57565e-36 
          226.8     7.32392e-36 
            230     7.12154e-36 
            234     6.88015e-36 
            240     6.54044e-36 
          246.5     6.20006e-36 
          252.4     5.91358e-36 
          256.8     5.71267e-36 
            260     5.57292e-36 
            264     5.40532e-36 
          268.5     5.22566e-36 
          273.5     3.71168e-23 
          278.5     1.82914e-22 
            284     8.66483e-22 
            290     4.29557e-21 
            296     1.98495e-20 
            301     6.78355e-20 
            308     3.53668e-19 
            318     3.28508e-18 
            328     2.65462e-17 
            338      1.8884e-16 
            348     1.19666e-15 
            357     5.74957e-15 
            366     2.55408e-14 
            375     1.05259e-13 
            385     4.68621e-13 
            395     1.92932e-12 
            405     7.39081e-12 
            414     2.33736e-11 
            422     6.22876e-11 
            430     1.59836e-10 
            441     5.51105e-10 
            451        1.607e-9 
            460      4.04112e-9 
            470      1.07901e-8 
            480       2.7599e-8 
            490      6.78395e-8 
            500      1.60502e-7 
            506      3.33315e-7 
            512      5.95437e-7 
            520      1.11439e-6 
            530      2.38899e-6 
            540      4.90394e-6 
            550      9.89783e-6 
            560       1.9359e-5 
            570      3.69216e-5 
            580      6.82335e-5 
            590      0.00012527 
            600     0.000223348 
            610     0.000390215 
            620     0.000668783 
            630      0.00112563 
            640      0.00186277 
            650      0.00303167 
            658      0.00442516 
            665      0.00611184 
            675      0.00957399 
            685       0.0147898 
            695       0.0225394 
            705         0.03391 
            716       0.0524093 
            726       0.0769218 
            735        0.107609 
            745        0.154676 
            755         0.22002 
            765        0.309874 
            775         0.43228 
            785        0.597509 
            795        0.818579 
            805         1.11218 
            815         1.49926 
            825         2.00529 
            835         2.66187 
            845         3.50779 
            855         4.59012 
            865         5.96544 
            875         7.70164 
            885         9.88114 
            895          12.601 
            905         15.9753 
            915         39.9572 
            925         144.145 
            935         230.651 
            945          407.19 
            955         639.018 
            965          829.98 
            975          596.07 
            985         1816.15 
            995         2963.26 
           1005         2679.11 
           1015         1742.41 
           1025         1227.01 
           1035         2542.16 
           1045         5451.76 
           1055         16855.6 
           1065          218975 
           1075          838136 
           1085      1.90652e+6 
           1095      2.35317e+6 
           1105      2.41164e+6 
           1115      1.95731e+6 
           1125      1.44096e+6 
           1135      1.03907e+6 
           1145          461521 
           1155          116660 
           1165         26918.5 
           1175         15895.4 
           1185         25524.2 
           1195         14327.1 
           1205         11217.1 
           1215         6574.15 
           1225           12868 
           1235         21034.7 
           1245         18682.3 
           1255         29214.6 
           1265         45391.9 
           1275          105156 
           1285          581558 
           1295      1.25339e+6 
           1305      2.77267e+6 
           1315      4.04763e+6 
           1325      5.93111e+6 
           1335      7.65286e+6 
           1345      9.79087e+6 
           1355      1.12437e+7 
           1365      1.29296e+7 
           1375      1.21484e+7 
           1385      1.06006e+7 
           1395      9.74644e+6 
           1405      1.53625e+7 
           1415      2.33934e+7 
           1425      2.49418e+7 
           1435      2.61944e+7 
           1442      2.76147e+7 
           1447       2.6611e+7 
           1455      2.88318e+7 
           1465      2.73636e+7 
           1475      2.89003e+7 
           1485      2.90915e+7 
           1495      2.97031e+7 
           1505      3.05488e+7 
           1512      3.10889e+7 
           1517      2.92686e+7 
           1525      3.02307e+7 
           1535      2.95903e+7 
           1545      2.85787e+7 
           1555      2.81703e+7 
           1565       2.5092e+7 
           1575       2.5072e+7 
           1585      2.36395e+7 
           1595      2.31159e+7 
           1605      2.26577e+7 
           1615      2.64612e+7 
           1625      3.02953e+7 
           1635      3.39225e+7 
           1645      3.78327e+7 
           1655      3.70262e+7 
           1665      4.10971e+7 
           1672      4.09397e+7 
           1677      4.18426e+7 
           1685      4.22835e+7 
           1695      4.21781e+7 
           1705      4.19401e+7 
           1715      4.23772e+7 
           1725      4.21418e+7 
           1735      4.23983e+7 
           1745      4.18729e+7 
           1755      4.19585e+7 
           1765      4.17553e+7 
           1775      4.16712e+7 
           1785      4.13132e+7 
           1795       4.1399e+7 
           1805      4.06999e+7 
           1815      4.07261e+7 
           1825      4.04224e+7 
           1835      4.05581e+7 
           1845      4.00687e+7 
           1855      4.01787e+7 
           1865      4.01097e+7 
           1875      3.99552e+7 
           1885      3.98006e+7 
           1895      3.96544e+7 
           1905      3.94011e+7 
           1915      3.93174e+7 
           1925      3.91916e+7 
           1935      3.85883e+7 
           1945      3.88956e+7 
           1955      3.87402e+7 
           1967      3.85649e+7 
           1976      3.83852e+7 
           1984      3.82467e+7 
           1995      3.81441e+7 
           2005      3.79548e+7 
           2015      3.77544e+7 
           2025      3.75799e+7 
           2035      3.75681e+7 
           2045      3.74259e+7 
           2055      3.70402e+7 
           2065      3.70137e+7 
           2074      3.70767e+7 
           2078      3.70292e+7 
           2085      3.69327e+7 
           2095      3.68101e+7 
           2105       3.6689e+7 
           2115      3.65973e+7 
           2125       3.6438e+7 
           2135      3.63479e+7 
           2145        3.628e+7 
           2155      3.61485e+7 
           2165      3.58643e+7 
           2175      3.58323e+7 
           2185      3.58034e+7 
           2195      3.57539e+7 
           2205       3.5545e+7 
           2215      3.51864e+7 
           2225      3.52361e+7 
           2235      3.53371e+7 
           2245      3.52016e+7 
           2255      3.49701e+7 
           2265      3.47956e+7 
           2275       3.4858e+7 
           2285      3.47953e+7 
           2295      3.46336e+7 
           2305      3.46294e+7 
           2315        3.452e+7 
           2325      3.44251e+7 
           2335      3.39457e+7 
           2345      3.33711e+7 
           2355      3.39809e+7 
           2365      3.32772e+7 
           2375      3.36401e+7 
           2385       3.2887e+7 
           2395      3.33801e+7 
           2405      3.33239e+7 
           2415      3.32403e+7 
           2425      3.36913e+7 
           2435      3.35435e+7 
           2445      3.34663e+7 
           2455      3.34805e+7 
           2465      3.33234e+7 
           2475      3.32614e+7 
           2485      3.31614e+7 
           2495      3.29608e+7 
           2505      3.31202e+7 
           2513      3.29031e+7 
           2518      3.28748e+7 
           2525      3.27861e+7 
           2535       3.2627e+7 
           2545      3.27713e+7 
           2555      3.28448e+7 
           2565      3.24861e+7 
           2575      3.25826e+7 
           2585      3.24359e+7 
           2595      3.23005e+7 
           2605      3.21729e+7 
           2615      3.20893e+7 
           2625      3.20596e+7 
           2635       3.2063e+7 
           2645      3.24554e+7 
           2655      3.23979e+7 
           2665      3.22883e+7 
           2675       3.2258e+7 
           2685      3.22449e+7 
           2695      3.21788e+7 
           2705      3.21344e+7 
           2715      3.19886e+7 
           2725      3.19024e+7 
           2735      3.18881e+7 
           2745      3.13107e+7 
           2755       3.1402e+7 
           2765      3.17074e+7 
           2775      3.17934e+7 
           2785      3.17292e+7 
           2795      3.08587e+7 
           2805      3.12127e+7 
           2815      3.16246e+7 
           2825      3.15743e+7 
           2835      3.14903e+7 
           2845      3.14573e+7 
           2855      3.12803e+7 
           2865      3.13464e+7 
           2875      3.13216e+7 
           2885       3.1261e+7 
           2895      3.12548e+7 
           2910      3.11933e+7 
           2930      3.10497e+7 
           2950      3.09639e+7 
           2970      3.09122e+7 
           2990      3.08156e+7 
           3010      3.07455e+7 
           3030      3.06586e+7 
           3050      3.05692e+7 
           3070      3.04652e+7 
           3090      3.03906e+7 
           3110      3.03028e+7 
           3130       3.0211e+7 
           3150      3.01175e+7 
           3170      3.00348e+7 
           3190      2.99211e+7 
           3210      2.98543e+7 
           3230      2.97389e+7 
           3250       2.9675e+7 
           3270      2.95961e+7 
           3290      2.95081e+7 
           3310      2.94184e+7 
           3330      2.93212e+7 
           3350      2.92176e+7 
           3370      2.91312e+7 
           3390      2.90422e+7 
           3410      2.89598e+7 
           3430      2.88664e+7 
           3450      2.87729e+7 
           3470      2.86784e+7 
           3490      2.85848e+7 
           3510      2.84908e+7 
           3530      2.83957e+7 
           3550      2.82999e+7 
           3570      2.82022e+7 
           3590      2.81063e+7 
           3610      2.80094e+7 
           3630      2.79111e+7 
           3640      2.78612e+7 
           3650      2.79621e+7 
           3670      2.77838e+7 
           3690      2.68113e+7 
           3710      2.94451e+7 
           3730      3.21494e+7 
           3750      4.25339e+7 
           3770      4.55402e+7 
           3790      5.53157e+7 
           3810      6.56391e+7 
           3830      5.24456e+7 
           3850      7.35795e+7 
           3870      8.39189e+7 
           3890      4.49498e+7 
           3910      8.36769e+7 
           3930      9.13962e+7 
           3950      8.28599e+7 
           3970      4.34816e+7 
           3990       7.8346e+7 
           4010      8.92993e+7 
           4030      8.97188e+7 
           4050      8.83457e+7 
           4070      8.41978e+7 
           4090      6.27316e+7 
           4110      4.74321e+7 
           4130      7.88691e+7 
           4150      8.28225e+7 
           4170      8.28121e+7 
           4190      8.20877e+7 
           4210      8.11609e+7 
           4230      8.01447e+7 
           4250      7.90584e+7 
           4270      7.78071e+7 
           4290      7.60537e+7 
           4310      7.19181e+7 
           4330      5.21545e+7 
           4350      4.41245e+7 
           4370      6.82425e+7 
           4390       7.1389e+7 
           4410      7.14364e+7 
           4430       7.0885e+7 
           4450      7.01713e+7 
           4470      6.94241e+7 
           4490      6.86967e+7 
           4510      6.78962e+7 
           4530      6.71015e+7 
           4550      6.63146e+7 
           4570      6.55442e+7 
           4590      6.47865e+7 
           4610      6.40377e+7 
           4630      6.32993e+7 
           4650      6.25748e+7 
           4670      6.18586e+7 
           4690       6.1154e+7 
           4710      6.04456e+7 
           4730       5.9656e+7 
           4750      5.89126e+7 
           4770      5.81364e+7 
           4790      5.72415e+7 
           4810      5.59621e+7 
           4830      5.30401e+7 
           4850      4.09618e+7 
           4870      3.31587e+7 
           4890      4.99662e+7 
           4910      5.26853e+7 
           4930      5.28942e+7 
           4950      5.25968e+7 
           4970      5.21454e+7 
           4990      5.16617e+7 
           5010      5.11885e+7 
           5030      5.06467e+7 
           5050       5.0106e+7 
           5070      4.95722e+7 
           5090      4.90468e+7 
           5110       4.8528e+7 
           5130      4.80172e+7 
           5150      4.75129e+7 
           5170      4.70078e+7 
           5190      4.65218e+7 
           5210      4.60404e+7 
           5230      4.55622e+7 
           5250      4.50914e+7 
           5270      4.46263e+7 
           5290      4.41684e+7 
           5310       4.3716e+7 
           5330      4.32692e+7 
           5350      4.28292e+7 
           5370      4.23945e+7 
           5390      4.19663e+7 
           5410      4.15433e+7 
           5430      4.11254e+7 
           5450      4.07138e+7 
           5470      4.03071e+7 
           5490      3.99052e+7 
           5510      3.95093e+7 
           5530      3.91181e+7 
           5550      3.87327e+7 
           5570      3.83518e+7 
           5590      3.79754e+7 
           5610      3.76034e+7 
           5630      3.72369e+7 
           5650      3.68746e+7 
           5670      3.65176e+7 
           5690      3.61648e+7 
           5710       3.5816e+7 
           5730      3.54712e+7 
           5750      3.51314e+7 
           5770      3.47955e+7 
           5790      3.44634e+7 
           5810      3.41361e+7 
           5830      3.38125e+7 
           5850      3.34926e+7 
           5870      3.31696e+7 
           5890      3.28644e+7 
           5910      3.25571e+7 
           5930      3.22532e+7 
           5950      3.19527e+7 
           5970      3.16555e+7 
           5990      3.13615e+7 
           6010      3.10717e+7 
           6030      3.07862e+7 
           6050      3.05027e+7 
           6070      3.02233e+7 
           6090      2.99469e+7 
           6110      2.96745e+7 
           6130       2.9404e+7 
           6150      2.91373e+7 
           6170      2.88745e+7 
           6190      2.86135e+7 
           6210      2.83562e+7 
           6230      2.81017e+7 
           6250      2.78507e+7 
           6270      2.76015e+7 
           6290      2.73558e+7 
           6310      2.71126e+7 
           6330      2.68729e+7 
           6350      2.66348e+7 
           6370         2.64e+7 
           6390      2.61676e+7 
           6410      2.59386e+7 
           6430      2.56964e+7 
           6450      2.54196e+7 
           6470       2.5161e+7 
           6490      2.48648e+7 
           6510      2.44634e+7 
           6530      2.36493e+7 
           6550       2.0538e+7 
           6570      1.65756e+7 
           6590       2.2328e+7 
           6610      2.32692e+7 
           6630      2.33561e+7 
           6650      2.32584e+7 
           6670      2.31065e+7 
           6690      2.29542e+7 
           6710      2.27833e+7 
           6730      2.25915e+7 
           6750      2.24008e+7 
           6770      2.22127e+7 
           6790      2.20265e+7 
           6810      2.18421e+7 
           6830      2.16602e+7 
           6850      2.14801e+7 
           6870       2.1301e+7 
           6890      2.11243e+7 
           6910      2.09501e+7 
           6930      2.07768e+7 
           6950       2.0606e+7 
           6970      2.04367e+7 
           6990       2.0269e+7 
           7010      2.01037e+7 
           7030      1.99392e+7 
           7050      1.97769e+7 
           7070      1.96162e+7 
           7090       1.9457e+7 
           7110         1.93e+7 
           7130      1.91444e+7 
           7150      1.89896e+7 
           7170      1.88369e+7 
           7190      1.86863e+7 
           7210      1.85364e+7 
           7230      1.83886e+7 
           7250      1.82421e+7 
           7270       1.8097e+7 
           7290      1.79532e+7 
           7310      1.78114e+7 
           7330      1.76701e+7 
           7350      1.75308e+7 
           7370      1.73928e+7 
           7390       1.7256e+7 
           7410      1.71212e+7 
           7430      1.69868e+7 
           7450      1.68543e+7 
           7470       1.6723e+7 
           7490      1.65929e+7 
           7510      1.64645e+7 
           7530      1.63366e+7 
           7550      1.62106e+7 
           7570      1.60856e+7 
           7590      1.59617e+7 
           7610      1.58395e+7 
           7630      1.57177e+7 
           7650      1.55977e+7 
           7670      1.54787e+7 
           7690      1.53607e+7 
           7710      1.52437e+7 
           7730      1.51277e+7 
           7750      1.50134e+7 
           7770      1.48981e+7 
           7790      1.47876e+7 
           7810      1.46761e+7 
           7830      1.45656e+7 
           7850      1.44566e+7 
           7870      1.43479e+7 
           7890      1.42408e+7 
           7910      1.41346e+7 
           7930      1.40298e+7 
           7950      1.39253e+7 
           7970      1.38223e+7 
           7990      1.37202e+7 
           8010      1.36188e+7 
           8030      1.35184e+7 
           8050      1.34187e+7 
           8070      1.33199e+7 
           8090      1.32225e+7 
           8110      1.31258e+7 
           8130        1.303e+7 
           8150      1.29349e+7 
           8170      1.28406e+7 
           8190      1.27477e+7 
           8210      1.26828e+7 
           8230      1.25979e+7 
           8250      1.25153e+7 
           8270      1.24339e+7 
           8290      1.23521e+7 
           8310      1.22681e+7 
           8330        1.218e+7 
           8350      1.20877e+7 
           8370      1.19773e+7 
           8390      1.18704e+7 
           8410      1.17491e+7 
           8430      1.16849e+7 
           8450      1.16281e+7 
           8470      1.12529e+7 
           8490      1.15961e+7 
           8510      1.09388e+7 
           8530      1.15907e+7 
           8550      1.03765e+7 
           8570      1.16781e+7 
