# Kurucz ODFNEW /NOVER (2003)
# teff = 8250 K (value for the effective temperature for the model. Temperatures are given in K)
# logg = 4.5 log(cm/s2) (value for Log(G) for the model.)
# meta = 0.2  (value for the Metallicity for the model.)
# lh = 1.25  (l/Hp where l is the  mixing length of the convective element and Hp is the pressure scale height)
# vtur = 2 km/s (Microturbulence velocity)
# alpha = 0  (Alpha)
#
# column 1: WAVELENGTH (ANGSTROM), Wavelength in Angstrom
# column 2: FLUX (ERG/CM2/S/A), Flux in erg/cm2/s/A
            318     3.46289e-24 
            328     1.56765e-22 
            338      1.6847e-21 
            348     1.54725e-20 
            357     1.01935e-19 
            366     6.10165e-19 
            375     3.34174e-18 
            385     1.45215e-18 
            395      7.2318e-18 
            405     3.31058e-17 
            414     1.21765e-16 
            422     3.68492e-16 
            430     1.06699e-15 
            441     4.30346e-15 
            451     1.43429e-14 
            460     4.03934e-14 
            470     1.21415e-13 
            480     3.47232e-13 
            490     9.48382e-13 
            500     2.47752e-12 
            506     5.71548e-12 
            512      1.1091e-11 
            520     2.23112e-11 
            530     5.21265e-11 
            540     1.15517e-10 
            550     2.51979e-10 
            560     5.29439e-10 
            570      1.08031e-9 
            580      2.11871e-9 
            590      4.14803e-9 
            600      7.82833e-9 
            610      1.44587e-8 
            620      2.60829e-8 
            630      4.60884e-8 
            640      7.98278e-8 
            650      1.35801e-7 
            658      2.04947e-7 
            665      2.90564e-7 
            675      4.73259e-7 
            685      7.58437e-7 
            695      1.19674e-6 
            705      1.85005e-6 
            716      2.97177e-6 
            726      4.48758e-6 
            735      6.43151e-6 
            745      9.47618e-6 
            755      1.38088e-5 
            765      1.99023e-5 
            775      2.83708e-5 
            785      4.00704e-5 
            795      5.53323e-5 
            805      7.69591e-5 
            815     0.000105959 
            825     0.000143978 
            835     0.000193934 
            845     0.000259127 
            855     0.000343461 
            865     0.000451733 
            875     0.000587169 
            885     0.000764161 
            895     0.000983887 
            905       0.0012509 
            915        0.418759 
            925         1.31499 
            935         1.71152 
            945         2.23909 
            955         3.02032 
            965         3.85911 
            975         4.70127 
            985         5.96259 
            995         7.18013 
           1005         9.35273 
           1015         11.5408 
           1025         13.4538 
           1035         17.1606 
           1045         20.9825 
           1055         25.4711 
           1065          30.336 
           1075         36.9908 
           1085         44.6325 
           1095         52.5776 
           1105         135.811 
           1115         399.418 
           1125         563.773 
           1135         778.214 
           1145         960.512 
           1155         1049.03 
           1165         1399.86 
           1175         1645.51 
           1185         1732.44 
           1195         1101.41 
           1205         1176.51 
           1215         320.758 
           1225         1340.95 
           1235         2699.95 
           1245         5379.37 
           1255         11684.4 
           1265         11012.1 
           1275         15968.1 
           1285         21441.7 
           1295         25211.5 
           1305         21778.3 
           1315         30206.3 
           1325         34711.1 
           1335         37746.4 
           1345         44988.2 
           1355         45812.2 
           1365         49886.9 
           1375         53872.4 
           1385         57182.3 
           1395         64581.4 
           1405         71155.9 
           1415         73378.7 
           1425         81157.4 
           1435         81729.8 
           1442         93629.6 
           1447         98775.4 
           1455          108688 
           1465          109751 
           1475          119149 
           1485          130152 
           1495          144228 
           1505          157017 
           1512          158511 
           1517          170285 
           1525          190566 
           1535          279946 
           1545          486476 
           1555          497720 
           1565          468523 
           1575          740892 
           1585      1.01044e+6 
           1595      1.17111e+6 
           1605       1.2532e+6 
           1615      1.43398e+6 
           1625      1.38936e+6 
           1635      2.15294e+6 
           1645      4.49245e+6 
           1655      2.26558e+6 
           1665       4.9562e+6 
           1672      2.55422e+6 
           1677      7.06205e+6 
           1685      1.02455e+7 
           1695      6.57442e+6 
           1705       8.9165e+6 
           1715      1.40062e+7 
           1725      1.48812e+7 
           1735      1.95422e+7 
           1745      1.83575e+7 
           1755      2.35478e+7 
           1765      1.45529e+7 
           1775      2.13796e+7 
           1785       2.1648e+7 
           1795      2.83129e+7 
           1805      2.26973e+7 
           1815      2.41095e+7 
           1825      2.12693e+7 
           1835      1.99507e+7 
           1845      1.66838e+7 
           1855      2.04818e+7 
           1865      2.45909e+7 
           1875      2.33391e+7 
           1885      2.42383e+7 
           1895      2.61715e+7 
           1905      2.36209e+7 
           1915       2.6239e+7 
           1925       2.4866e+7 
           1935      1.67787e+7 
           1945      2.76615e+7 
           1955       2.8289e+7 
           1967      3.16381e+7 
           1976      3.06868e+7 
           1984      2.87199e+7 
           1995      2.85546e+7 
           2005      2.59136e+7 
           2015      2.54993e+7 
           2025      2.34281e+7 
           2035       2.7696e+7 
           2045      3.04309e+7 
           2055       2.8652e+7 
           2065      2.74881e+7 
           2074      3.25076e+7 
           2078      3.50496e+7 
           2085      3.32834e+7 
           2095      3.06729e+7 
           2105      2.80518e+7 
           2115      2.91759e+7 
           2125      3.03611e+7 
           2135      2.38093e+7 
           2145       2.9222e+7 
           2155      2.91883e+7 
           2165      2.64871e+7 
           2175      2.62855e+7 
           2185      2.85209e+7 
           2195      3.09279e+7 
           2205      2.90658e+7 
           2215      2.49869e+7 
           2225      2.47666e+7 
           2235      3.00427e+7 
           2245      2.67604e+7 
           2255      2.40995e+7 
           2265      2.40626e+7 
           2275      2.64254e+7 
           2285       2.8497e+7 
           2295      2.51486e+7 
           2305      2.65156e+7 
           2315      2.52586e+7 
           2325      2.45142e+7 
           2335      2.07096e+7 
           2345      1.64639e+7 
           2355      2.42299e+7 
           2365      1.73431e+7 
           2375      2.08227e+7 
           2385      1.47434e+7 
           2395      1.77067e+7 
           2405      1.72465e+7 
           2415      1.79256e+7 
           2425      2.29947e+7 
           2435      2.19186e+7 
           2445      2.43272e+7 
           2455       2.4132e+7 
           2465       2.4042e+7 
           2475       2.1794e+7 
           2485      2.20222e+7 
           2495       2.0655e+7 
           2505      2.66045e+7 
           2513      2.08505e+7 
           2518      2.10209e+7 
           2525      1.85551e+7 
           2535      1.71797e+7 
           2545        1.603e+7 
           2555      1.90499e+7 
           2565      1.88158e+7 
           2575      2.26494e+7 
           2585      2.29717e+7 
           2595      2.21919e+7 
           2605      2.04303e+7 
           2615      1.90612e+7 
           2625      2.38674e+7 
           2635      2.49671e+7 
           2645      3.07543e+7 
           2655      3.20339e+7 
           2665      2.57252e+7 
           2675      2.87369e+7 
           2685      2.85614e+7 
           2695      2.58263e+7 
           2705      2.77889e+7 
           2715      2.47624e+7 
           2725      2.53557e+7 
           2735      2.80524e+7 
           2745      1.98623e+7 
           2755      2.17802e+7 
           2765      2.35936e+7 
           2775      2.72622e+7 
           2785      2.36323e+7 
           2795      1.09971e+7 
           2805      1.42829e+7 
           2815      2.81626e+7 
           2825      3.12633e+7 
           2835      2.94063e+7 
           2845      2.76705e+7 
           2855      2.45772e+7 
           2865       2.9495e+7 
           2875      2.88034e+7 
           2885      2.89671e+7 
           2895      2.73064e+7 
           2910      3.25203e+7 
           2930       3.0395e+7 
           2950      3.01648e+7 
           2970      3.17902e+7 
           2990      3.18485e+7 
           3010      3.25896e+7 
           3030      3.21436e+7 
           3050      3.20632e+7 
           3070      3.25178e+7 
           3090      3.30471e+7 
           3110      3.19196e+7 
           3130      3.17018e+7 
           3150       3.2744e+7 
           3170       3.2499e+7 
           3190      3.01917e+7 
           3210      3.13358e+7 
           3230      2.95779e+7 
           3250       3.1065e+7 
           3270      3.20049e+7 
           3290      3.20551e+7 
           3310      3.26812e+7 
           3330      3.18662e+7 
           3350      3.14163e+7 
           3370      3.08734e+7 
           3390      3.10861e+7 
           3410      3.11547e+7 
           3430      3.12735e+7 
           3450      3.11148e+7 
           3470       3.0703e+7 
           3490      3.06973e+7 
           3510      3.13031e+7 
           3530      3.09464e+7 
           3550       3.1908e+7 
           3570      3.02184e+7 
           3590      2.99294e+7 
           3610      3.00439e+7 
           3630      3.02569e+7 
           3640      2.98293e+7 
           3650      3.13741e+7 
           3670      3.10638e+7 
           3690      2.99782e+7 
           3710      2.98858e+7 
           3730      2.89894e+7 
           3750      3.41916e+7 
           3770      3.63426e+7 
           3790      4.38623e+7 
           3810      5.08384e+7 
           3830      4.03647e+7 
           3850      5.63143e+7 
           3870      6.34435e+7 
           3890      3.75183e+7 
           3910      6.32388e+7 
           3930       5.5045e+7 
           3950      6.26285e+7 
           3970      3.46375e+7 
           3990      6.26806e+7 
           4010      7.23466e+7 
           4030      7.28783e+7 
           4050      7.17698e+7 
           4070      6.75911e+7 
           4090       5.2854e+7 
           4110      4.08151e+7 
           4130      6.44112e+7 
           4150      6.97373e+7 
           4170      7.01077e+7 
           4190      6.94465e+7 
           4210      6.94811e+7 
           4230      6.72297e+7 
           4250      6.77623e+7 
           4270      6.45462e+7 
           4290      6.48997e+7 
           4310      5.84702e+7 
           4330      4.50615e+7 
           4350      3.85499e+7 
           4370       5.9239e+7 
           4390      6.19767e+7 
           4410      6.15882e+7 
           4430      6.05938e+7 
           4450      6.19223e+7 
           4470      6.16994e+7 
           4490      6.07716e+7 
           4510      6.25064e+7 
           4530      5.99969e+7 
           4550       5.9163e+7 
           4570      6.07712e+7 
           4590      5.85047e+7 
           4610      5.93649e+7 
           4630      5.76739e+7 
           4650      5.79507e+7 
           4670      5.78147e+7 
           4690       5.5288e+7 
           4710       5.2965e+7 
           4730      5.56871e+7 
           4750      5.53945e+7 
           4770      5.43812e+7 
           4790      5.35684e+7 
           4810      5.19303e+7 
           4830       4.8743e+7 
           4850      3.72589e+7 
           4870      2.99755e+7 
           4890      4.53422e+7 
           4910      4.87162e+7 
           4930      4.85836e+7 
           4950      4.96048e+7 
           4970      4.98897e+7 
           4990      4.80744e+7 
           5010      4.65101e+7 
           5030      4.76494e+7 
           5050      4.66848e+7 
           5070      4.74515e+7 
           5090      4.67202e+7 
           5110       4.6651e+7 
           5130      4.56867e+7 
           5150      4.46124e+7 
           5170      4.36505e+7 
           5190      4.31931e+7 
           5210      4.34034e+7 
           5230      4.29454e+7 
           5250      4.35482e+7 
           5270      4.07278e+7 
           5290      4.24627e+7 
           5310      4.19002e+7 
           5330      4.01608e+7 
           5350      4.13142e+7 
           5370      4.08098e+7 
           5390      4.04037e+7 
           5410      3.93847e+7 
           5430      3.96803e+7 
           5450      3.97194e+7 
           5470      3.91978e+7 
           5490       3.8909e+7 
           5510      3.86804e+7 
           5530      3.81794e+7 
           5550      3.81151e+7 
           5570      3.74751e+7 
           5590      3.70278e+7 
           5610      3.69462e+7 
           5630      3.68756e+7 
           5650      3.64497e+7 
           5670      3.58427e+7 
           5690      3.57808e+7 
           5710      3.54278e+7 
           5730       3.5602e+7 
           5750      3.49434e+7 
           5770       3.4774e+7 
           5790      3.43802e+7 
           5810      3.41696e+7 
           5830      3.39555e+7 
           5850      3.35245e+7 
           5870      3.32527e+7 
           5890      3.24626e+7 
           5910      3.26725e+7 
           5930      3.23946e+7 
           5950      3.20974e+7 
           5970      3.18637e+7 
           5990      3.14602e+7 
           6010      3.09904e+7 
           6030      3.08598e+7 
           6050      3.06859e+7 
           6070      3.05587e+7 
           6090      3.01856e+7 
           6110      2.98208e+7 
           6130      2.92616e+7 
           6150      2.87339e+7 
           6170      2.86331e+7 
           6190      2.89311e+7 
           6210      2.87001e+7 
           6230      2.82725e+7 
           6250      2.75498e+7 
           6270      2.80039e+7 
           6290      2.77795e+7 
           6310      2.72791e+7 
           6330      2.71399e+7 
           6350      2.66721e+7 
           6370      2.65226e+7 
           6390      2.64684e+7 
           6410      2.60019e+7 
           6430       2.5926e+7 
           6450      2.53698e+7 
           6470      2.53355e+7 
           6490      2.48076e+7 
           6510      2.44785e+7 
           6530      2.34055e+7 
           6550       1.9926e+7 
           6570       1.5969e+7 
           6590      2.18596e+7 
           6610       2.3308e+7 
           6630      2.36107e+7 
           6650      2.35932e+7 
           6670      2.34206e+7 
           6690      2.33734e+7 
           6710      2.31874e+7 
           6730      2.30124e+7 
           6750      2.26976e+7 
           6770      2.27223e+7 
           6790      2.25209e+7 
           6810      2.23368e+7 
           6830      2.21149e+7 
           6850      2.19233e+7 
           6870       2.1815e+7 
           6890      2.16481e+7 
           6910      2.14638e+7 
           6930      2.12742e+7 
           6950      2.11192e+7 
           6970       2.0933e+7 
           6990      2.08041e+7 
           7010       2.0428e+7 
           7030      2.03889e+7 
           7050      2.02757e+7 
           7070      2.01332e+7 
           7090      1.99786e+7 
           7110       1.9408e+7 
           7130      1.95261e+7 
           7150      1.94081e+7 
           7170      1.92458e+7 
           7190      1.90587e+7 
           7210      1.89792e+7 
           7230      1.88246e+7 
           7250      1.86241e+7 
           7270      1.85945e+7 
           7290      1.83225e+7 
           7310      1.82583e+7 
           7330      1.81161e+7 
           7350       1.8042e+7 
           7370      1.79088e+7 
           7390      1.76741e+7 
           7410      1.74491e+7 
           7430      1.72857e+7 
           7450       1.7227e+7 
           7470       1.7016e+7 
           7490      1.69541e+7 
           7510      1.69014e+7 
           7530      1.67991e+7 
           7550       1.6736e+7 
           7570       1.6576e+7 
           7590      1.64698e+7 
           7610      1.63339e+7 
           7630      1.62244e+7 
           7650      1.60702e+7 
           7670      1.58482e+7 
           7690      1.57786e+7 
           7710      1.56803e+7 
           7730      1.56201e+7 
           7750      1.54568e+7 
           7770      1.50416e+7 
           7790      1.53059e+7 
           7810      1.51653e+7 
           7830      1.49779e+7 
           7850      1.48234e+7 
           7870       1.4736e+7 
           7890      1.45985e+7 
           7910      1.44874e+7 
           7930      1.43431e+7 
           7950      1.42311e+7 
           7970       1.4311e+7 
           7990      1.40559e+7 
           8010      1.40604e+7 
           8030      1.39256e+7 
           8050      1.38565e+7 
           8070      1.37566e+7 
           8090      1.36438e+7 
           8110      1.35961e+7 
           8130      1.35196e+7 
           8150      1.34176e+7 
           8170      1.33232e+7 
           8190      1.30066e+7 
           8210      1.29545e+7 
           8230      1.28615e+7 
           8250      1.28109e+7 
           8270      1.28911e+7 
           8290       1.2784e+7 
           8310      1.26609e+7 
           8330      1.24639e+7 
           8350      1.25102e+7 
           8370      1.24645e+7 
           8390      1.23291e+7 
           8410      1.22828e+7 
           8430      1.21525e+7 
           8450      1.18834e+7 
           8470      1.19088e+7 
           8490      1.18757e+7 
           8510      1.13872e+7 
           8530      1.17377e+7 
           8550      1.05651e+7 
           8570      1.17376e+7 
           8590      1.11684e+7 
           8610      1.09758e+7 
           8630      1.16074e+7 
           8650      1.12058e+7 
           8670      9.55043e+6 
           8690      1.10875e+7 
           8710      1.15287e+7 
           8730      1.10859e+7 
           8750      9.18715e+6 
           8770      1.06397e+7 
           8790      1.13739e+7 
           8810      1.14049e+7 
           8830      1.10015e+7 
           8850      9.92298e+6 
           8870      8.61369e+6 
           8890      1.05584e+7 
           8910      1.10511e+7 
           8930      1.11179e+7 
           8950      1.11863e+7 
           8970      1.09061e+7 
           8990      1.03183e+7 
           9010      8.31699e+6 
           9030      9.06146e+6 
           9050      1.03338e+7 
           9070      1.04307e+7 
           9090      1.03538e+7 
           9110      1.06261e+7 
           9130      1.06745e+7 
           9150      1.06225e+7 
           9170      1.04087e+7 
           9190      1.00383e+7 
           9210      9.20104e+6 
           9230       7.2867e+6 
           9250      8.82796e+6 
           9270      9.52204e+6 
           9290      1.00084e+7 
           9310      1.00915e+7 
           9330      1.00638e+7 
           9350      1.00497e+7 
