# Kurucz ODFNEW /NOVER (2003)
# teff = 23000 K (value for the effective temperature for the model. Temperatures are given in K)
# logg = 4 log(cm/s2) (value for Log(G) for the model.)
# meta = 0.5  (value for the Metallicity for the model.)
# lh = 1.25  (l/Hp where l is the  mixing length of the convective element and Hp is the pressure scale height)
# vtur = 2 km/s (Microturbulence velocity)
# alpha = 0.4  (Alpha)
#
# column 1: WAVELENGTH (ANGSTROM), Wavelength in Angstrom
# column 2: FLUX (ERG/CM2/S/A), Flux in erg/cm2/s/A
          147.2     1.69569e-16 
            151     8.04051e-16 
          155.2     4.12217e-15 
          158.8     1.56638e-14 
            162     4.89573e-14 
            166     1.91742e-13 
          170.3     7.71174e-13 
          173.4      2.0433e-12 
          176.8     5.68681e-12 
          180.2      1.5255e-11 
          181.7     2.32759e-11 
          186.1     7.78321e-11 
            191     2.81383e-10 
          193.9     5.84485e-10 
          198.4      1.74398e-9 
          201.8      3.86209e-9 
            205      7.97734e-9 
          210.5      2.64568e-8 
          216.2      8.62064e-8 
          219.8      1.76418e-7 
            223      3.27366e-7 
          226.8      6.67619e-7 
            230      9.21242e-6 
            234      2.20378e-5 
            240      5.85108e-5 
          246.5        0.000159 
          252.4     0.000381562 
          256.8     0.000692662 
            260      0.00114033 
            264      0.00192224 
          268.5      0.00344188 
          273.5      0.00636543 
          278.5       0.0116615 
            284       0.0237021 
            290       0.0457316 
            296       0.0864772 
            301        0.143792 
            308        0.306291 
            318        0.796011 
            328         1.84821 
            338         4.35512 
            348         9.44126 
            357          50.969 
            366         107.457 
            375         176.868 
            385         317.421 
            395         614.453 
            405            1005 
            414         1590.61 
            422          2317.7 
            430         3421.53 
            441         5478.32 
            451         8064.08 
            460           11183 
            470         16453.1 
            480         23316.7 
            490         33221.5 
            500         45869.1 
            506          208673 
            512      3.25347e+6 
            520      3.73985e+6 
            530      4.68048e+6 
            540      4.95795e+6 
            550      7.89724e+6 
            560      9.49308e+6 
            570      1.18956e+7 
            580      1.15012e+7 
            590      1.63224e+7 
            600      1.86868e+7 
            610      2.27566e+7 
            620      2.43963e+7 
            630      2.55643e+7 
            640      2.21163e+7 
            650      1.40696e+7 
            658      2.50246e+7 
            665       3.3891e+7 
            675      3.76047e+7 
            685      3.91956e+7 
            695      5.42657e+7 
            705       5.5597e+7 
            716      6.38614e+7 
            726      6.55708e+7 
            735      7.09839e+7 
            745      8.25917e+7 
            755      8.92347e+7 
            765      9.75772e+7 
            775      1.05544e+8 
            785      1.13876e+8 
            795      1.17682e+8 
            805      1.23467e+8 
            815      1.29094e+8 
            825       1.4224e+8 
            835      1.17251e+8 
            845      1.47568e+8 
            855      1.51769e+8 
            865      1.63853e+8 
            875      1.74985e+8 
            885      1.93294e+8 
            895      2.04208e+8 
            905      1.96077e+8 
            915       3.0083e+8 
            925      2.19154e+9 
            935      5.22373e+9 
            945     1.03853e+10 
            955     1.43409e+10 
            965     1.53706e+10 
            975      2.07033e+9 
            985     1.07871e+10 
            995     1.22385e+10 
           1005     1.66219e+10 
           1015     1.73499e+10 
           1025       8.8174e+9 
           1035      1.2337e+10 
           1045     2.29758e+10 
           1055     2.07867e+10 
           1065     1.39253e+10 
           1075     1.82258e+10 
           1085     1.62801e+10 
           1095     1.93259e+10 
           1105     1.54379e+10 
           1115     1.26889e+10 
           1125      9.78328e+9 
           1135     1.68858e+10 
           1145     1.44953e+10 
           1155     1.55676e+10 
           1165     1.56526e+10 
           1175      8.03462e+9 
           1185     1.49959e+10 
           1195     1.12558e+10 
           1205      3.93354e+9 
           1215      6.08085e+9 
           1225     1.18382e+10 
           1235     1.56988e+10 
           1245     1.52763e+10 
           1255     1.49137e+10 
           1265     1.50416e+10 
           1275     1.55436e+10 
           1285     1.57486e+10 
           1295      7.01039e+9 
           1305      7.57562e+9 
           1315     1.50278e+10 
           1325     1.38046e+10 
           1335     1.31266e+10 
           1345     1.38359e+10 
           1355     1.36622e+10 
           1365     1.14101e+10 
           1375     1.10574e+10 
           1385     1.02361e+10 
           1395      5.95732e+9 
           1405      7.12723e+9 
           1415      8.89693e+9 
           1425       9.4248e+9 
           1435      9.90659e+9 
           1442     1.04078e+10 
           1447     1.02239e+10 
           1455      9.78382e+9 
           1465      8.69055e+9 
           1475      9.13016e+9 
           1485      8.95534e+9 
           1495      8.76261e+9 
           1505       7.5197e+9 
           1512      6.68249e+9 
           1517      7.04155e+9 
           1525       7.4412e+9 
           1535      6.06387e+9 
           1545      5.83475e+9 
           1555      5.77661e+9 
           1565      6.29614e+9 
           1575        6.806e+9 
           1585      6.95627e+9 
           1595      6.84193e+9 
           1605      7.18718e+9 
           1615      7.12142e+9 
           1625      6.81105e+9 
           1635      7.49027e+9 
           1645      7.51391e+9 
           1655      7.24128e+9 
           1665      7.63671e+9 
           1672       7.2038e+9 
           1677      7.93316e+9 
           1685      7.82829e+9 
           1695      7.23569e+9 
           1705       7.0155e+9 
           1715       6.4946e+9 
           1725      6.40825e+9 
           1735      6.87461e+9 
           1745      6.64152e+9 
           1755      6.71539e+9 
           1765      6.57022e+9 
           1775      6.04836e+9 
           1785       6.2344e+9 
           1795      6.68894e+9 
           1805      6.82109e+9 
           1815       5.7465e+9 
           1825      6.16725e+9 
           1835      5.84747e+9 
           1845      5.24673e+9 
           1855      5.23859e+9 
           1865      5.32424e+9 
           1875      5.84529e+9 
           1885      5.05165e+9 
           1895       4.6849e+9 
           1905      5.28155e+9 
           1915      4.73415e+9 
           1925      4.50169e+9 
           1935       4.9156e+9 
           1945      4.95611e+9 
           1955      4.41378e+9 
           1967      5.01587e+9 
           1976      5.23224e+9 
           1984      4.80088e+9 
           1995       4.7088e+9 
           2005      5.03774e+9 
           2015       4.8459e+9 
           2025       5.0746e+9 
           2035      4.55235e+9 
           2045      4.75449e+9 
           2055       4.5251e+9 
           2065      4.48111e+9 
           2074       4.7491e+9 
           2078      4.18687e+9 
           2085      4.57364e+9 
           2095      4.26837e+9 
           2105      4.44412e+9 
           2115      4.51118e+9 
           2125      4.52705e+9 
           2135      4.42177e+9 
           2145      4.18797e+9 
           2155      4.42955e+9 
           2165      4.43421e+9 
           2175      4.38254e+9 
           2185      4.15464e+9 
           2195       4.2695e+9 
           2205      4.27216e+9 
           2215      4.15735e+9 
           2225      4.01025e+9 
           2235      4.00876e+9 
           2245      4.06627e+9 
           2255      3.86011e+9 
           2265      3.99947e+9 
           2275      3.93243e+9 
           2285       3.9473e+9 
           2295      3.49762e+9 
           2305      3.77486e+9 
           2315      3.62099e+9 
           2325      3.57939e+9 
           2335      3.39961e+9 
           2345      3.45803e+9 
           2355      3.45406e+9 
           2365      3.40983e+9 
           2375      3.36668e+9 
           2385        3.334e+9 
           2395       3.3405e+9 
           2405      3.22218e+9 
           2415      3.23928e+9 
           2425       3.2469e+9 
           2435      3.11112e+9 
           2445       3.1616e+9 
           2455      3.17634e+9 
           2465      3.09767e+9 
           2475       3.0345e+9 
           2485       2.9723e+9 
           2495      2.43744e+9 
           2505      2.86271e+9 
           2513      2.75074e+9 
           2518      2.89758e+9 
           2525      2.82694e+9 
           2535      2.80327e+9 
           2545      2.62494e+9 
           2555      2.75263e+9 
           2565      2.70023e+9 
           2575      2.76651e+9 
           2585      2.72649e+9 
           2595      2.70759e+9 
           2605      2.68156e+9 
           2615      2.64115e+9 
           2625      2.62659e+9 
           2635      2.61125e+9 
           2645      2.59628e+9 
           2655      2.59594e+9 
           2665       2.4362e+9 
           2675      2.49383e+9 
           2685      2.47848e+9 
           2695      2.37412e+9 
           2705      2.30593e+9 
           2715      2.32302e+9 
           2725      2.33106e+9 
           2735      2.32729e+9 
           2745      2.23717e+9 
           2755      2.23744e+9 
           2765       2.2272e+9 
           2775       2.2689e+9 
           2785      2.22388e+9 
           2795      2.10972e+9 
           2805      2.15963e+9 
           2815      2.17455e+9 
           2825      2.15182e+9 
           2835      2.03439e+9 
           2845      2.06372e+9 
           2855      2.03182e+9 
           2865      2.05617e+9 
           2875      2.02817e+9 
           2885      2.00458e+9 
           2895      1.96595e+9 
           2910      1.92656e+9 
           2930       1.9136e+9 
           2950      1.85427e+9 
           2970      1.83216e+9 
           2990      1.78877e+9 
           3010       1.7109e+9 
           3030      1.72121e+9 
           3050      1.69608e+9 
           3070      1.67901e+9 
           3090      1.59674e+9 
           3110      1.60178e+9 
           3130      1.55969e+9 
           3150      1.54063e+9 
           3170       1.4931e+9 
           3190      1.46544e+9 
           3210       1.4495e+9 
           3230      1.41362e+9 
           3250      1.39778e+9 
           3270      1.36593e+9 
           3290      1.33915e+9 
           3310      1.31593e+9 
           3330      1.28573e+9 
           3350      1.26549e+9 
           3370      1.23768e+9 
           3390      1.22357e+9 
           3410      1.20175e+9 
           3430      1.17551e+9 
           3450      1.14938e+9 
           3470      1.12863e+9 
           3490      1.10503e+9 
           3510      1.08804e+9 
           3530      1.07678e+9 
           3550      1.05652e+9 
           3570      1.04179e+9 
           3590      1.00612e+9 
           3610      9.91075e+8 
           3630      9.79641e+8 
           3640      9.80521e+8 
           3650      9.64014e+8 
           3670      9.54907e+8 
           3690      9.34761e+8 
           3710      8.95834e+8 
           3730      8.61748e+8 
           3750      9.10285e+8 
           3770      9.03091e+8 
           3790      9.48321e+8 
           3810      9.85729e+8 
           3830      8.59634e+8 
           3850      9.87388e+8 
           3870       9.7663e+8 
           3890      8.13877e+8 
           3910      9.88218e+8 
           3930       9.4511e+8 
           3950      9.38606e+8 
           3970      7.56332e+8 
           3990      9.06322e+8 
           4010      9.07355e+8 
           4030       8.5286e+8 
           4050      8.71789e+8 
           4070      8.19372e+8 
           4090      7.72642e+8 
           4110      6.91232e+8 
           4130      7.87918e+8 
           4150      7.84039e+8 
           4170      7.86307e+8 
           4190      7.80449e+8 
           4210      7.76793e+8 
           4230      7.56348e+8 
           4250      7.29911e+8 
           4270      7.05155e+8 
           4290      6.98043e+8 
           4310      6.73449e+8 
           4330      6.23358e+8 
           4350       5.7358e+8 
           4370      6.40603e+8 
           4390      6.44553e+8 
           4410       6.3903e+8 
           4430      6.34924e+8 
           4450      6.26452e+8 
           4470      5.98856e+8 
           4490      6.06352e+8 
           4510       6.0732e+8 
           4530      5.95361e+8 
           4550      5.89265e+8 
           4570      5.78833e+8 
           4590      5.68775e+8 
           4610      5.51903e+8 
           4630      5.44685e+8 
           4650      5.27064e+8 
           4670      5.29607e+8 
           4690      5.27583e+8 
           4710      5.00475e+8 
           4730      5.06961e+8 
           4750      4.99328e+8 
           4770      5.03511e+8 
           4790      4.92567e+8 
           4810      4.78416e+8 
           4830      4.70409e+8 
           4850      4.41841e+8 
           4870      3.94109e+8 
           4890      4.52965e+8 
           4910      4.48157e+8 
           4930      4.32051e+8 
           4950      4.33902e+8 
           4970      4.33726e+8 
           4990       4.2546e+8 
           5010      4.01883e+8 
           5030      4.10769e+8 
           5050      3.98555e+8 
           5070      4.01998e+8 
           5090      3.94017e+8 
           5110      3.86308e+8 
           5130      3.75743e+8 
           5150      3.73583e+8 
           5170      3.72813e+8 
           5190      3.68001e+8 
           5210      3.58547e+8 
           5230      3.58068e+8 
           5250       3.5376e+8 
           5270      3.46739e+8 
           5290      3.44567e+8 
           5310      3.38983e+8 
           5330      3.33778e+8 
           5350      3.28168e+8 
           5370      3.26303e+8 
           5390      3.21526e+8 
           5410      3.17351e+8 
           5430      3.11823e+8 
           5450      3.07573e+8 
           5470      3.02898e+8 
           5490      3.00433e+8 
           5510      2.97536e+8 
           5530       2.9216e+8 
           5550      2.89924e+8 
           5570      2.85575e+8 
           5590      2.82848e+8 
           5610      2.78153e+8 
           5630      2.75836e+8 
           5650      2.67785e+8 
           5670      2.63392e+8 
           5690       2.6067e+8 
           5710      2.59656e+8 
           5730       2.5756e+8 
           5750      2.53071e+8 
           5770      2.51931e+8 
           5790      2.48451e+8 
           5810      2.45137e+8 
           5830      2.41341e+8 
           5850      2.38912e+8 
           5870      2.29054e+8 
           5890       2.2977e+8 
           5910      2.28617e+8 
           5930      2.25845e+8 
           5950      2.21925e+8 
           5970      2.22385e+8 
           5990      2.17669e+8 
           6010      2.16807e+8 
           6030       2.1335e+8 
           6050      2.11088e+8 
           6070      2.09106e+8 
           6090      2.06384e+8 
           6110      2.04117e+8 
           6130      2.02065e+8 
           6150      1.96888e+8 
           6170       1.9596e+8 
           6190      1.94686e+8 
           6210      1.92623e+8 
           6230      1.90573e+8 
           6250      1.86964e+8 
           6270      1.85342e+8 
           6290      1.83565e+8 
           6310      1.80899e+8 
           6330      1.79588e+8 
           6350       1.7589e+8 
           6370       1.7488e+8 
           6390       1.7303e+8 
           6410      1.71173e+8 
           6430      1.69809e+8 
           6450      1.67499e+8 
           6470      1.64638e+8 
           6490      1.63142e+8 
           6510      1.61439e+8 
           6530      1.58667e+8 
           6550       1.5258e+8 
           6570      1.33813e+8 
           6590      1.51739e+8 
           6610      1.52469e+8 
           6630      1.51311e+8 
           6650      1.49431e+8 
           6670      1.46504e+8 
           6690      1.45107e+8 
           6710      1.44946e+8 
           6730      1.42772e+8 
           6750      1.42018e+8 
           6770      1.40498e+8 
           6790      1.36804e+8 
           6810      1.36927e+8 
           6830      1.35246e+8 
           6850      1.34401e+8 
           6870      1.32918e+8 
           6890      1.31266e+8 
           6910      1.29608e+8 
           6930      1.28563e+8 
           6950      1.27481e+8 
           6970      1.26161e+8 
           6990      1.24692e+8 
           7010      1.23284e+8 
           7030      1.22012e+8 
           7050      1.20737e+8 
           7070      1.17236e+8 
           7090      1.17969e+8 
           7110      1.15041e+8 
           7130      1.14034e+8 
           7150      1.14126e+8 
           7170       1.1341e+8 
           7190      1.12437e+8 
           7210      1.11285e+8 
           7230      1.07766e+8 
           7250      1.08541e+8 
           7270      1.07873e+8 
           7290      1.05857e+8 
           7310      1.05653e+8 
           7330      1.04537e+8 
           7350      1.03606e+8 
           7370      1.02594e+8 
           7390      1.01556e+8 
           7410      1.00549e+8 
           7430      9.92307e+7 
           7450      9.84136e+7 
           7470      9.64898e+7 
           7490      9.63109e+7 
           7510      9.54914e+7 
           7530      9.43868e+7 
           7550      9.37288e+7 
           7570      9.28595e+7 
           7590      9.18149e+7 
           7610      9.08125e+7 
           7630      9.01041e+7 
           7650      8.92409e+7 
           7670      8.84175e+7 
           7690      8.75377e+7 
           7710      8.66849e+7 
           7730      8.57388e+7 
           7750      8.50711e+7 
           7770      8.31049e+7 
           7790      8.34547e+7 
           7810      8.26078e+7 
           7830      8.18853e+7 
           7850      8.07533e+7 
           7870      7.99906e+7 
           7890       7.8811e+7 
           7910      7.86237e+7 
           7930      7.79041e+7 
           7950      7.66781e+7 
           7970      7.63531e+7 
           7990      7.51215e+7 
           8010      7.50052e+7 
           8030       7.4299e+7 
           8050      7.35989e+7 
           8070      7.30205e+7 
           8090      7.22513e+7 
           8110      7.11221e+7 
           8130      7.10006e+7 
           8150      7.03633e+7 
           8170      6.98499e+7 
           8190      6.86498e+7 
           8210      6.79972e+7 
           8230      6.70331e+7 
           8250      6.72177e+7 
           8270      6.56646e+7 
           8290      6.59018e+7 
           8310      6.53558e+7 
           8330      6.48958e+7 
           8350      6.39261e+7 
           8370      6.34327e+7 
           8390      6.31307e+7 
           8410      6.24952e+7 
           8430       6.1918e+7 
           8450      6.04487e+7 
           8470      6.07465e+7 
           8490      6.00791e+7 
           8510      5.93444e+7 
           8530      5.92322e+7 
           8550      5.75949e+7 
           8570      5.89267e+7 
