# Kurucz ODFNEW /NOVER (2003)
# teff = 7250 K (value for the effective temperature for the model. Temperatures are given in K)
# logg = 1 log(cm/s2) (value for Log(G) for the model.)
# meta = -0.5  (value for the Metallicity for the model.)
# lh = 1.25  (l/Hp where l is the  mixing length of the convective element and Hp is the pressure scale height)
# vtur = 2 km/s (Microturbulence velocity)
# alpha = 0  (Alpha)
#
# column 1: WAVELENGTH (ANGSTROM), Wavelength in Angstrom
# column 2: FLUX (ERG/CM2/S/A), Flux in erg/cm2/s/A
            375     2.42604e-26 
            385     2.02469e-25 
            395     1.50832e-24 
            405     1.01244e-23 
            414     5.17301e-23 
            422     2.07216e-22 
            430     7.85997e-22 
            441     4.52216e-21 
            451     2.05052e-20 
            460      7.5321e-20 
            470     3.00548e-19 
            480     1.12752e-18 
            490     3.99543e-18 
            500     1.34018e-17 
            506      3.5927e-17 
            512     8.01361e-17 
            520     1.93757e-16 
            530      5.6492e-16 
            540     1.55278e-15 
            550     4.15785e-15 
            560     1.06527e-14 
            570     2.63316e-14 
            580     6.22152e-14 
            590     1.45562e-13 
            600     3.26687e-13 
            610     7.12556e-13 
            620     1.51152e-12 
            630     3.12404e-12 
            640     6.30084e-12 
            650     1.24147e-11 
            658     2.10107e-11 
            665     3.29028e-11 
            675     6.13888e-11 
            685      1.1225e-10 
            695     2.01372e-10 
            705     3.54146e-10 
            716      6.4752e-10 
            726      1.10001e-9 
            735      1.74827e-9 
            745      2.88311e-9 
            755      4.68525e-9 
            765      7.50723e-9 
            775      1.18659e-8 
            785       1.8516e-8 
            795      2.84002e-8 
            805      4.33553e-8 
            815      6.52984e-8 
            825      9.71568e-8 
            835       1.4303e-7 
            845      2.08397e-7 
            855        3.006e-7 
            865      4.29473e-7 
            875      6.07196e-7 
            885      8.52713e-7 
            895      1.18603e-6 
            905      1.63235e-6 
            915      0.00255486 
            925      0.00817016 
            935       0.0108155 
            945       0.0149557 
            955       0.0215077 
            965       0.0288009 
            975        0.036772 
            985       0.0492003 
            995       0.0620256 
           1005       0.0858773 
           1015        0.110365 
           1025        0.137726 
           1035        0.179874 
           1045        0.231949 
           1055        0.294282 
           1065        0.361642 
           1075         0.45985 
           1085        0.576635 
           1095        0.699841 
           1105         2.20415 
           1115         7.40444 
           1125         10.7629 
           1135          14.703 
           1145         17.9758 
           1155         18.9158 
           1165         23.7081 
           1175         24.5874 
           1185         30.5601 
           1195         9.80798 
           1205         7.10195 
           1215         2.02877 
           1225         8.64485 
           1235         23.1843 
           1245         52.6076 
           1255         113.268 
           1265         139.246 
           1275         249.264 
           1285         407.958 
           1295         571.263 
           1305         504.673 
           1315         894.883 
           1325         1184.25 
           1335         1373.16 
           1345         1900.47 
           1355         2087.99 
           1365         2411.14 
           1375         2784.68 
           1385         3277.83 
           1395         3948.45 
           1405         4574.51 
           1415         4813.01 
           1425         5681.11 
           1435         5868.03 
           1442         6966.37 
           1447         7682.09 
           1455         8811.48 
           1465          9080.4 
           1475         10304.2 
           1485         11776.2 
           1495         13756.6 
           1505         15407.5 
           1512         15686.8 
           1517         17242.9 
           1525         18442.6 
           1535         51162.2 
           1545          153668 
           1555          133896 
           1565          106860 
           1575          202517 
           1585          244732 
           1595          351611 
           1605          291933 
           1615          286639 
           1625          266444 
           1635          335632 
           1645          507786 
           1655          235498 
           1665          434658 
           1672          118929 
           1677          693023 
           1685      1.19526e+6 
           1695      1.34457e+6 
           1705      1.17555e+6 
           1715      1.66448e+6 
           1725      1.86667e+6 
           1735      2.31665e+6 
           1745      2.02875e+6 
           1755      2.67512e+6 
           1765      2.07555e+6 
           1775      2.69075e+6 
           1785      2.33411e+6 
           1795      3.45648e+6 
           1805      2.76509e+6 
           1815      3.27483e+6 
           1825      2.69667e+6 
           1835      2.57998e+6 
           1845      2.40379e+6 
           1855      2.77887e+6 
           1865      3.12704e+6 
           1875      3.00708e+6 
           1885      3.19325e+6 
           1895      3.53479e+6 
           1905      3.17316e+6 
           1915      3.44028e+6 
           1925      3.43615e+6 
           1935      2.50071e+6 
           1945      3.91017e+6 
           1955      4.03459e+6 
           1967      4.42571e+6 
           1976      4.34998e+6 
           1984      4.22233e+6 
           1995      4.12914e+6 
           2005       3.9144e+6 
           2015      3.62828e+6 
           2025      3.41292e+6 
           2035      4.07803e+6 
           2045      4.54487e+6 
           2055      4.01813e+6 
           2065      3.79722e+6 
           2074      4.95641e+6 
           2078      5.26259e+6 
           2085      5.01725e+6 
           2095      4.74304e+6 
           2105      4.40255e+6 
           2115      4.51808e+6 
           2125      4.64485e+6 
           2135      3.52396e+6 
           2145      4.38923e+6 
           2155      4.55334e+6 
           2165      4.05445e+6 
           2175      4.12261e+6 
           2185      4.34465e+6 
           2195      4.91959e+6 
           2205      4.66485e+6 
           2215       3.9015e+6 
           2225      3.78934e+6 
           2235      4.91838e+6 
           2245       4.3669e+6 
           2255      3.74431e+6 
           2265      3.75325e+6 
           2275      4.45273e+6 
           2285      4.69748e+6 
           2295      4.26395e+6 
           2305      4.55377e+6 
           2315      4.29534e+6 
           2325      4.06486e+6 
           2335      2.81886e+6 
           2345      2.17178e+6 
           2355      3.70906e+6 
           2365      2.17832e+6 
           2375      3.06366e+6 
           2385      1.67098e+6 
           2395      2.29117e+6 
           2405      2.18162e+6 
           2415      2.83557e+6 
           2425      4.44622e+6 
           2435      4.34515e+6 
           2445       4.7028e+6 
           2455      4.66612e+6 
           2465      4.53249e+6 
           2475      4.23966e+6 
           2485      4.39247e+6 
           2495      4.23975e+6 
           2505      5.44325e+6 
           2513       4.2254e+6 
           2518      4.60567e+6 
           2525      3.83795e+6 
           2535      3.70479e+6 
           2545      3.81934e+6 
           2555      4.44652e+6 
           2565      3.95051e+6 
           2575      4.55141e+6 
           2585      4.14563e+6 
           2595      3.73416e+6 
           2605      3.25637e+6 
           2615      3.03726e+6 
           2625      3.97482e+6 
           2635      4.84241e+6 
           2645      6.88353e+6 
           2655        6.975e+6 
           2665      5.76799e+6 
           2675      6.30302e+6 
           2685      6.22533e+6 
           2695      5.86592e+6 
           2705      6.19076e+6 
           2715      5.37862e+6 
           2725      5.47822e+6 
           2735      5.93532e+6 
           2745      3.58899e+6 
           2755      4.31967e+6 
           2765      4.94834e+6 
           2775      5.95527e+6 
           2785      4.89792e+6 
           2795      1.83725e+6 
           2805      2.39702e+6 
           2815      5.85949e+6 
           2825      7.02701e+6 
           2835      6.71879e+6 
           2845      6.49011e+6 
           2855      5.91506e+6 
           2865      6.95287e+6 
           2875      6.72273e+6 
           2885      6.95412e+6 
           2895      6.56454e+6 
           2910      7.88284e+6 
           2930      7.52019e+6 
           2950      7.46056e+6 
           2970       7.9592e+6 
           2990       8.1135e+6 
           3010      8.43973e+6 
           3030      8.39762e+6 
           3050      8.41622e+6 
           3070      8.47001e+6 
           3090      8.85747e+6 
           3110      8.54137e+6 
           3130      8.50793e+6 
           3150      8.98342e+6 
           3170      8.98251e+6 
           3190      8.38933e+6 
           3210      8.87375e+6 
           3230      8.50312e+6 
           3250       8.9848e+6 
           3270      9.18667e+6 
           3290      9.36629e+6 
           3310      9.62377e+6 
           3330      9.40014e+6 
           3350       9.2879e+6 
           3370      9.21647e+6 
           3390      9.39521e+6 
           3410      9.69451e+6 
           3430      9.90936e+6 
           3450      9.85368e+6 
           3470      9.70162e+6 
           3490      9.63405e+6 
           3510      1.00221e+7 
           3530      1.01422e+7 
           3550      1.04393e+7 
           3570      9.99575e+6 
           3590      1.00422e+7 
           3610      1.01429e+7 
           3630       1.0333e+7 
           3640      1.01416e+7 
           3650      1.05863e+7 
           3670      1.05429e+7 
           3690      1.16543e+7 
           3710      1.55185e+7 
           3730      2.21509e+7 
           3750      3.32593e+7 
           3770      3.47098e+7 
           3790      4.19215e+7 
           3810      4.67301e+7 
           3830      3.72289e+7 
           3850      4.83413e+7 
           3870      5.09746e+7 
           3890      3.53374e+7 
           3910      4.84831e+7 
           3930      3.43949e+7 
           3950      4.70305e+7 
           3970      2.89248e+7 
           3990      4.85628e+7 
           4010      4.95087e+7 
           4030      4.85963e+7 
           4050      4.82347e+7 
           4070      4.71182e+7 
           4090      4.46924e+7 
           4110      3.54291e+7 
           4130       4.6044e+7 
           4150      4.67409e+7 
           4170      4.52537e+7 
           4190      4.50373e+7 
           4210      4.46423e+7 
           4230      4.38443e+7 
           4250      4.37767e+7 
           4270      4.27002e+7 
           4290      4.27554e+7 
           4310      4.03254e+7 
           4330      3.70643e+7 
           4350      3.21731e+7 
           4370      4.14332e+7 
           4390      4.04212e+7 
           4410      3.93696e+7 
           4430      3.96561e+7 
           4450        3.966e+7 
           4470      3.92776e+7 
           4490      3.90163e+7 
           4510      3.94842e+7 
           4530      3.79889e+7 
           4550      3.71225e+7 
           4570      3.82558e+7 
           4590      3.68484e+7 
           4610      3.78819e+7 
           4630      3.66573e+7 
           4650      3.69664e+7 
           4670      3.66401e+7 
           4690      3.58282e+7 
           4710      3.46449e+7 
           4730      3.55952e+7 
           4750      3.56184e+7 
           4770       3.4908e+7 
           4790      3.45892e+7 
           4810      3.41817e+7 
           4830      3.35843e+7 
           4850      2.97091e+7 
           4870      2.41412e+7 
           4890      3.22468e+7 
           4910      3.23738e+7 
           4930      3.15769e+7 
           4950       3.1908e+7 
           4970      3.19903e+7 
           4990      3.09159e+7 
           5010      2.98801e+7 
           5030      3.04678e+7 
           5050      3.00837e+7 
           5070      3.02161e+7 
           5090      2.98178e+7 
           5110      2.95877e+7 
           5130      2.88779e+7 
           5150       2.8441e+7 
           5170       2.7783e+7 
           5190      2.75063e+7 
           5210      2.75024e+7 
           5230      2.71657e+7 
           5250      2.75031e+7 
           5270       2.6211e+7 
           5290      2.69568e+7 
           5310      2.63921e+7 
           5330      2.58589e+7 
           5350       2.6399e+7 
           5370      2.60029e+7 
           5390      2.56819e+7 
           5410      2.52607e+7 
           5430      2.50788e+7 
           5450      2.52096e+7 
           5470      2.49437e+7 
           5490      2.48211e+7 
           5510      2.45246e+7 
           5530      2.42514e+7 
           5550      2.43032e+7 
           5570      2.39529e+7 
           5590      2.37095e+7 
           5610      2.35754e+7 
           5630        2.347e+7 
           5650      2.30953e+7 
           5670      2.28424e+7 
           5690      2.28346e+7 
           5710      2.26367e+7 
           5730      2.25536e+7 
           5750      2.23012e+7 
           5770      2.21333e+7 
           5790      2.19009e+7 
           5810      2.17336e+7 
           5830      2.15537e+7 
           5850      2.13472e+7 
           5870      2.11899e+7 
           5890      2.07238e+7 
           5910      2.08178e+7 
           5930      2.06347e+7 
           5950      2.04494e+7 
           5970      2.03084e+7 
           5990      2.00544e+7 
           6010      1.98763e+7 
           6030       1.9754e+7 
           6050      1.95968e+7 
           6070       1.9472e+7 
           6090      1.92651e+7 
           6110      1.90615e+7 
           6130       1.8812e+7 
           6150      1.84697e+7 
           6170      1.84946e+7 
           6190      1.84864e+7 
           6210      1.83568e+7 
           6230      1.81168e+7 
           6250      1.76481e+7 
           6270      1.79132e+7 
           6290      1.77633e+7 
           6310      1.74824e+7 
           6330      1.74276e+7 
           6350      1.72087e+7 
           6370       1.7072e+7 
           6390      1.70087e+7 
           6410      1.67725e+7 
           6430      1.66993e+7 
           6450      1.64275e+7 
           6470      1.64773e+7 
           6490      1.61389e+7 
           6510      1.61047e+7 
           6530      1.59559e+7 
           6550      1.46977e+7 
           6570      1.16645e+7 
           6590      1.53717e+7 
           6610      1.54935e+7 
           6630      1.54739e+7 
           6650      1.53742e+7 
           6670      1.52364e+7 
           6690      1.51454e+7 
           6710      1.50235e+7 
           6730      1.49085e+7 
           6750      1.47674e+7 
           6770         1.47e+7 
           6790      1.45686e+7 
           6810      1.44718e+7 
           6830      1.43241e+7 
           6850      1.42302e+7 
           6870      1.41419e+7 
           6890      1.40376e+7 
           6910      1.39281e+7 
           6930      1.38172e+7 
           6950       1.3716e+7 
           6970      1.36071e+7 
           6990      1.35132e+7 
           7010      1.33496e+7 
           7030      1.32905e+7 
           7050      1.32061e+7 
           7070      1.31119e+7 
           7090      1.30178e+7 
           7110      1.27486e+7 
           7130      1.27758e+7 
           7150      1.26985e+7 
           7170      1.26117e+7 
           7190      1.24906e+7 
           7210      1.24047e+7 
           7230      1.22973e+7 
           7250      1.22352e+7 
           7270      1.21666e+7 
           7290      1.20382e+7 
           7310      1.19252e+7 
           7330      1.18659e+7 
           7350      1.17993e+7 
           7370      1.17416e+7 
           7390      1.16277e+7 
           7410      1.15088e+7 
           7430      1.14183e+7 
           7450      1.13516e+7 
           7470       1.1222e+7 
           7490      1.11729e+7 
           7510      1.11095e+7 
           7530      1.10599e+7 
           7550      1.10093e+7 
           7570      1.09104e+7 
           7590      1.08478e+7 
           7610      1.07726e+7 
           7630      1.06981e+7 
           7650      1.05991e+7 
           7670      1.05099e+7 
           7690      1.04592e+7 
           7710      1.03448e+7 
           7730      1.03216e+7 
           7750      1.02439e+7 
           7770      9.98469e+6 
           7790      1.01179e+7 
           7810      1.00433e+7 
           7830      9.94962e+6 
           7850      9.85741e+6 
           7870        9.794e+6 
           7890      9.71052e+6 
           7910      9.66749e+6 
           7930      9.59842e+6 
           7950      9.51979e+6 
           7970      9.50706e+6 
           7990      9.38281e+6 
           8010      9.36361e+6 
           8030      9.29366e+6 
           8050      9.24056e+6 
           8070      9.17399e+6 
           8090      9.11027e+6 
           8110      9.06195e+6 
           8130      9.00545e+6 
           8150      8.94429e+6 
           8170      8.88362e+6 
           8190      8.73582e+6 
           8210      8.72685e+6 
           8230      8.66669e+6 
           8250      8.60147e+6 
           8270       8.6183e+6 
           8290      8.54552e+6 
           8310       8.4548e+6 
           8330      8.29154e+6 
           8350      8.35399e+6 
           8370      8.14258e+6 
           8390      8.16428e+6 
           8410      8.13029e+6 
           8430      8.32872e+6 
           8450       8.1796e+6 
           8470      7.92886e+6 
           8490      8.59557e+6 
           8510      7.70676e+6 
           8530      8.73415e+6 
           8550        7.221e+6 
           8570      8.94519e+6 
           8590      8.42417e+6 
           8610      8.16758e+6 
           8630      9.15458e+6 
           8650      8.96779e+6 
           8670      7.13426e+6 
           8690      8.93731e+6 
           8710       9.1595e+6 
           8730      8.98115e+6 
           8750      7.35277e+6 
           8770      8.71818e+6 
           8790      8.94526e+6 
           8810      8.85325e+6 
           8830      8.70254e+6 
           8850      8.30683e+6 
           8870      7.13458e+6 
           8890      8.55257e+6 
           8910      8.54934e+6 
           8930      8.49786e+6 
           8950      8.51401e+6 
           8970       8.4316e+6 
           8990      8.29391e+6 
           9010      6.99951e+6 
           9030      7.68558e+6 
           9050      8.18568e+6 
           9070       7.9898e+6 
           9090      7.87124e+6 
           9110      7.99605e+6 
           9130      8.00851e+6 
           9150      7.98164e+6 
           9170      7.90967e+6 
           9190       7.8115e+6 
           9210      7.57553e+6 
           9230      6.22186e+6 
           9250      7.34856e+6 
           9270      7.46463e+6 
           9290      7.60713e+6 
           9310      7.56926e+6 
           9330      7.51218e+6 
           9350      7.47103e+6 
           9370      7.42887e+6 
           9390      7.34727e+6 
           9410      7.14674e+6 
           9430       7.2355e+6 
           9450      7.21208e+6 
           9470      7.18165e+6 
