# Kurucz ODFNEW /NOVER (2003)
# teff = 19000 K (value for the effective temperature for the model. Temperatures are given in K)
# logg = 4.5 log(cm/s2) (value for Log(G) for the model.)
# meta = 0.5  (value for the Metallicity for the model.)
# lh = 1.25  (l/Hp where l is the  mixing length of the convective element and Hp is the pressure scale height)
# vtur = 2 km/s (Microturbulence velocity)
# alpha = 0.4  (Alpha)
#
# column 1: WAVELENGTH (ANGSTROM), Wavelength in Angstrom
# column 2: FLUX (ERG/CM2/S/A), Flux in erg/cm2/s/A
          147.2     6.43129e-21 
            151     4.13426e-20 
          155.2     2.90801e-19 
          158.8     1.42456e-18 
            162     5.51945e-18 
            166     2.79184e-17 
          170.3     1.45706e-16 
          173.4     4.60043e-16 
          176.8     1.54063e-15 
          180.2     4.93128e-15 
          181.7     8.11383e-15 
          186.1     3.35316e-14 
            191      1.5108e-13 
          193.9     3.53982e-13 
          198.4     1.26439e-12 
          201.8     3.19482e-12 
            205     7.44665e-12 
          210.5     2.98967e-11 
          216.2     1.17317e-10 
          219.8     2.68386e-10 
            223     5.46568e-10 
          226.8      1.24126e-9 
            230      3.83352e-9 
            234      9.76499e-9 
            240      3.17623e-8 
          246.5      1.05544e-7 
          252.4      2.98263e-7 
          256.8      6.18283e-7 
            260      1.06331e-6 
            264      2.01143e-6 
          268.5      4.02104e-6 
          273.5      8.42378e-6 
          278.5      1.73215e-5 
            284      3.76328e-5 
            290      8.32075e-5 
            296     0.000177804 
            301     0.000327643 
            308     0.000750846 
            318      0.00230566 
            328      0.00642006 
            338       0.0173499 
            348       0.0435324 
            357        0.106499 
            366        0.226494 
            375        0.450013 
            385        0.940877 
            395         1.88677 
            405         3.64729 
            414          6.4573 
            422         10.3586 
            430         16.4614 
            441         30.2769 
            451         51.3453 
            460         80.3114 
            470         130.058 
            480         205.435 
            490         319.239 
            500          486.84 
            506         4183.32 
            512         33829.5 
            520         43078.7 
            530         61219.5 
            540         72650.9 
            550          111575 
            560          140649 
            570          188713 
            580          227885 
            590          326989 
            600          410530 
            610          528515 
            620          616311 
            630          731314 
            640          789881 
            650          729865 
            658      1.09008e+6 
            665      1.23653e+6 
            675      1.41448e+6 
            685      1.60278e+6 
            695      1.98728e+6 
            705      2.20273e+6 
            716      2.57884e+6 
            726      2.88153e+6 
            735      3.18022e+6 
            745      3.70529e+6 
            755      4.19691e+6 
            765      4.73518e+6 
            775      5.35001e+6 
            785      5.97351e+6 
            795       6.4715e+6 
            805      7.09654e+6 
            815      7.75664e+6 
            825      8.67675e+6 
            835       8.7333e+6 
            845      9.96662e+6 
            855      1.08799e+7 
            865      1.19374e+7 
            875      1.30444e+7 
            885      1.45848e+7 
            895      1.57944e+7 
            905      1.60112e+7 
            915      2.83511e+7 
            925      1.31059e+8 
            935      3.12807e+8 
            945      8.28486e+8 
            955        1.569e+9 
            965      2.24947e+9 
            975      4.84393e+8 
            985      2.63102e+9 
            995      2.50317e+9 
           1005      3.33091e+9 
           1015      3.27698e+9 
           1025      8.45918e+8 
           1035       2.0286e+9 
           1045      4.99604e+9 
           1055      4.94679e+9 
           1065      3.60114e+9 
           1075      4.87267e+9 
           1085      4.34964e+9 
           1095      5.27693e+9 
           1105      4.17726e+9 
           1115      3.72116e+9 
           1125      3.81604e+9 
           1135      5.51953e+9 
           1145      4.51808e+9 
           1155      5.17301e+9 
           1165      5.55396e+9 
           1175      4.00926e+9 
           1185      5.64762e+9 
           1195      2.52557e+9 
           1205       1.1784e+9 
           1215      9.11082e+8 
           1225      2.53609e+9 
           1235      5.70346e+9 
           1245      6.24534e+9 
           1255      6.04886e+9 
           1265      5.24475e+9 
           1275       5.7074e+9 
           1285      6.49251e+9 
           1295      3.03288e+9 
           1305      2.26654e+9 
           1315      5.86937e+9 
           1325      5.70215e+9 
           1335       4.9979e+9 
           1345      5.88577e+9 
           1355      5.74012e+9 
           1365      4.72887e+9 
           1375      4.93173e+9 
           1385      4.99668e+9 
           1395      3.96645e+9 
           1405      4.26783e+9 
           1415      4.37235e+9 
           1425      4.73475e+9 
           1435      4.73705e+9 
           1442      5.17165e+9 
           1447      5.13759e+9 
           1455      4.99067e+9 
           1465      4.58926e+9 
           1475      4.55305e+9 
           1485      4.47758e+9 
           1495      4.56773e+9 
           1505      4.02639e+9 
           1512      3.63885e+9 
           1517       3.9374e+9 
           1525      4.01996e+9 
           1535      3.46891e+9 
           1545      3.61259e+9 
           1555      3.43493e+9 
           1565      3.51592e+9 
           1575      3.78852e+9 
           1585      3.86638e+9 
           1595      3.90971e+9 
           1605      3.89434e+9 
           1615      3.94347e+9 
           1625      3.71233e+9 
           1635      3.99049e+9 
           1645      3.99084e+9 
           1655      3.67263e+9 
           1665      4.03035e+9 
           1672      3.85828e+9 
           1677       3.9777e+9 
           1685      4.10177e+9 
           1695      3.82391e+9 
           1705      3.60851e+9 
           1715      3.32537e+9 
           1725      3.30262e+9 
           1735      3.52497e+9 
           1745      3.39895e+9 
           1755      3.53193e+9 
           1765      3.27423e+9 
           1775      3.21257e+9 
           1785      3.28427e+9 
           1795      3.53774e+9 
           1805      3.54918e+9 
           1815      3.09071e+9 
           1825      3.26958e+9 
           1835      3.05615e+9 
           1845      2.78959e+9 
           1855      2.67541e+9 
           1865       2.7473e+9 
           1875      3.09828e+9 
           1885      2.74127e+9 
           1895      2.56019e+9 
           1905      2.81959e+9 
           1915      2.59411e+9 
           1925      2.52219e+9 
           1935       2.6786e+9 
           1945      2.67642e+9 
           1955      2.46114e+9 
           1967        2.757e+9 
           1976      2.87445e+9 
           1984      2.63186e+9 
           1995       2.5661e+9 
           2005      2.68948e+9 
           2015      2.47895e+9 
           2025      2.74805e+9 
           2035      2.48168e+9 
           2045      2.56034e+9 
           2055      2.41452e+9 
           2065      2.46814e+9 
           2074       2.5798e+9 
           2078      2.35813e+9 
           2085      2.50533e+9 
           2095      2.32834e+9 
           2105      2.39614e+9 
           2115      2.40899e+9 
           2125      2.43518e+9 
           2135       2.3106e+9 
           2145      2.27682e+9 
           2155      2.38051e+9 
           2165      2.33236e+9 
           2175      2.30101e+9 
           2185       2.2018e+9 
           2195       2.2595e+9 
           2205      2.21294e+9 
           2215      2.14648e+9 
           2225      2.04154e+9 
           2235      2.12173e+9 
           2245      2.08845e+9 
           2255      1.97395e+9 
           2265      2.05143e+9 
           2275      2.06597e+9 
           2285       2.0765e+9 
           2295      1.95659e+9 
           2305      1.93717e+9 
           2315      1.85243e+9 
           2325      1.81882e+9 
           2335      1.71781e+9 
           2345      1.71894e+9 
           2355      1.72822e+9 
           2365      1.66251e+9 
           2375      1.68414e+9 
           2385      1.62481e+9 
           2395      1.70552e+9 
           2405      1.61217e+9 
           2415      1.64005e+9 
           2425       1.6591e+9 
           2435      1.57847e+9 
           2445      1.63326e+9 
           2455      1.60686e+9 
           2465      1.59273e+9 
           2475      1.54336e+9 
           2485      1.59307e+9 
           2495      1.50479e+9 
           2505      1.56845e+9 
           2513      1.46828e+9 
           2518      1.53875e+9 
           2525      1.46541e+9 
           2535      1.46571e+9 
           2545      1.38587e+9 
           2555      1.44822e+9 
           2565       1.4318e+9 
           2575      1.48092e+9 
           2585      1.47315e+9 
           2595      1.47049e+9 
           2605      1.43224e+9 
           2615       1.4207e+9 
           2625      1.41471e+9 
           2635      1.41626e+9 
           2645      1.43131e+9 
           2655       1.4229e+9 
           2665      1.34487e+9 
           2675      1.38196e+9 
           2685      1.36505e+9 
           2695      1.32698e+9 
           2705      1.32455e+9 
           2715       1.3007e+9 
           2725       1.2828e+9 
           2735      1.30965e+9 
           2745      1.22923e+9 
           2755      1.22707e+9 
           2765      1.23186e+9 
           2775      1.25612e+9 
           2785      1.24449e+9 
           2795       1.1448e+9 
           2805      1.19545e+9 
           2815      1.21816e+9 
           2825      1.19822e+9 
           2835      1.13428e+9 
           2845      1.13219e+9 
           2855      1.13767e+9 
           2865      1.15825e+9 
           2875      1.13562e+9 
           2885      1.12871e+9 
           2895      1.11913e+9 
           2910      1.11234e+9 
           2930      1.08614e+9 
           2950        1.059e+9 
           2970      1.04897e+9 
           2990      1.02546e+9 
           3010      1.01142e+9 
           3030      1.00414e+9 
           3050      9.80651e+8 
           3070      9.63039e+8 
           3090      9.40512e+8 
           3110      9.23819e+8 
           3130      9.10743e+8 
           3150      8.95038e+8 
           3170      8.73771e+8 
           3190      8.44967e+8 
           3210        8.416e+8 
           3230      8.27997e+8 
           3250       8.1666e+8 
           3270       8.0353e+8 
           3290      7.89405e+8 
           3310      7.78106e+8 
           3330      7.61789e+8 
           3350      7.45872e+8 
           3370      7.34193e+8 
           3390        7.229e+8 
           3410      7.12047e+8 
           3430      6.96883e+8 
           3450      6.82876e+8 
           3470      6.71648e+8 
           3490       6.6057e+8 
           3510      6.50831e+8 
           3530      6.41573e+8 
           3550      6.31584e+8 
           3570      6.24084e+8 
           3590      6.06627e+8 
           3610      5.98131e+8 
           3630      5.89958e+8 
           3640      5.89621e+8 
           3650      5.82916e+8 
           3670      5.76244e+8 
           3690      5.65726e+8 
           3710      5.44453e+8 
           3730      5.18836e+8 
           3750      5.46777e+8 
           3770      5.48041e+8 
           3790      5.97428e+8 
           3810      6.34799e+8 
           3830      5.37374e+8 
           3850      6.58149e+8 
           3870      6.80718e+8 
           3890      5.01506e+8 
           3910      6.84308e+8 
           3930      6.64848e+8 
           3950      6.58833e+8 
           3970       4.6773e+8 
           3990      6.25433e+8 
           4010      6.40155e+8 
           4030      5.91878e+8 
           4050      6.26975e+8 
           4070      5.96016e+8 
           4090      5.34958e+8 
           4110      4.53603e+8 
           4130      5.59587e+8 
           4150      5.62978e+8 
           4170       5.6279e+8 
           4190      5.58203e+8 
           4210      5.54442e+8 
           4230      5.43232e+8 
           4250      5.29309e+8 
           4270      5.09382e+8 
           4290      5.10887e+8 
           4310      4.95651e+8 
           4330      4.27628e+8 
           4350      3.83807e+8 
           4370      4.67556e+8 
           4390      4.55916e+8 
           4410      4.65098e+8 
           4430      4.56051e+8 
           4450      4.55481e+8 
           4470      4.23057e+8 
           4490      4.33872e+8 
           4510       4.3783e+8 
           4530      4.27051e+8 
           4550      4.22323e+8 
           4570      4.17119e+8 
           4590      4.09969e+8 
           4610      4.02112e+8 
           4630      3.93585e+8 
           4650      3.87035e+8 
           4670      3.84211e+8 
           4690      3.81489e+8 
           4710      3.62344e+8 
           4730      3.65298e+8 
           4750       3.5984e+8 
           4770        3.612e+8 
           4790      3.53166e+8 
           4810      3.43331e+8 
           4830      3.35068e+8 
           4850      2.97588e+8 
           4870      2.59536e+8 
           4890      3.21082e+8 
           4910      3.20316e+8 
           4930      3.07197e+8 
           4950      3.14037e+8 
           4970      3.11942e+8 
           4990      3.06269e+8 
           5010      2.90636e+8 
           5030       2.9497e+8 
           5050      2.84277e+8 
           5070       2.8922e+8 
           5090      2.84204e+8 
           5110      2.78694e+8 
           5130      2.73161e+8 
           5150      2.69325e+8 
           5170      2.68936e+8 
           5190      2.64784e+8 
           5210      2.56412e+8 
           5230      2.58394e+8 
           5250      2.55294e+8 
           5270      2.50349e+8 
           5290      2.49429e+8 
           5310      2.45362e+8 
           5330      2.40793e+8 
           5350      2.37021e+8 
           5370      2.36174e+8 
           5390      2.33089e+8 
           5410       2.2891e+8 
           5430      2.25259e+8 
           5450      2.22797e+8 
           5470       2.1869e+8 
           5490      2.18225e+8 
           5510      2.15167e+8 
           5530      2.12172e+8 
           5550        2.099e+8 
           5570      2.06828e+8 
           5590      2.04869e+8 
           5610      2.01831e+8 
           5630      2.00316e+8 
           5650      1.93779e+8 
           5670      1.91734e+8 
           5690      1.90994e+8 
           5710      1.89739e+8 
           5730       1.8782e+8 
           5750      1.85171e+8 
           5770      1.83369e+8 
           5790      1.81026e+8 
           5810      1.78376e+8 
           5830      1.76179e+8 
           5850      1.74227e+8 
           5870      1.65848e+8 
           5890       1.6796e+8 
           5910      1.67418e+8 
           5930      1.65926e+8 
           5950      1.62408e+8 
           5970       1.6204e+8 
           5990      1.59469e+8 
           6010      1.58566e+8 
           6030      1.56438e+8 
           6050      1.54706e+8 
           6070      1.52829e+8 
           6090      1.50699e+8 
           6110      1.49392e+8 
           6130      1.47757e+8 
           6150      1.43849e+8 
           6170      1.43848e+8 
           6190      1.42625e+8 
           6210      1.40878e+8 
           6230      1.39237e+8 
           6250       1.3664e+8 
           6270      1.35751e+8 
           6290      1.34232e+8 
           6310      1.32379e+8 
           6330      1.31375e+8 
           6350      1.28147e+8 
           6370      1.27622e+8 
           6390       1.2664e+8 
           6410      1.25246e+8 
           6430      1.24413e+8 
           6450      1.22538e+8 
           6470      1.21143e+8 
           6490      1.19798e+8 
           6510      1.17979e+8 
           6530      1.15826e+8 
           6550      1.07533e+8 
           6570      9.28363e+7 
           6590      1.10152e+8 
           6610      1.11694e+8 
           6630       1.1103e+8 
           6650      1.09954e+8 
           6670      1.07399e+8 
           6690      1.06455e+8 
           6710      1.06465e+8 
           6730      1.05301e+8 
           6750      1.04389e+8 
           6770      1.03362e+8 
           6790      1.01348e+8 
           6810      1.00941e+8 
           6830      9.96156e+7 
           6850      9.89785e+7 
           6870      9.79561e+7 
           6890      9.68962e+7 
           6910      9.58785e+7 
           6930      9.45493e+7 
           6950      9.39591e+7 
           6970      9.30174e+7 
           6990      9.19539e+7 
           7010      9.08703e+7 
           7030      9.00033e+7 
           7050      8.89325e+7 
           7070      8.66513e+7 
           7090      8.73772e+7 
           7110      8.60741e+7 
           7130      8.52436e+7 
           7150      8.45168e+7 
           7170      8.38041e+7 
           7190      8.30689e+7 
           7210      8.22681e+7 
           7230       8.0192e+7 
           7250      8.03164e+7 
           7270      7.98181e+7 
           7290      7.84237e+7 
           7310      7.81926e+7 
           7330      7.74509e+7 
           7350      7.67511e+7 
           7370      7.59952e+7 
           7390      7.52395e+7 
           7410      7.45046e+7 
           7430      7.34216e+7 
           7450      7.29057e+7 
           7470      7.19218e+7 
           7490      7.13904e+7 
           7510      7.08437e+7 
           7530      7.01423e+7 
           7550      6.95399e+7 
           7570      6.89231e+7 
           7590      6.81222e+7 
           7610      6.76085e+7 
           7630      6.69633e+7 
           7650      6.63239e+7 
           7670      6.57031e+7 
           7690      6.50624e+7 
           7710      6.44718e+7 
           7730      6.37982e+7 
           7750       6.3256e+7 
           7770      6.17078e+7 
           7790      6.20792e+7 
           7810      6.14886e+7 
           7830      6.09451e+7 
           7850      5.99019e+7 
           7870      5.95145e+7 
           7890      5.86637e+7 
           7910      5.86282e+7 
           7930      5.81872e+7 
           7950      5.71187e+7 
           7970        5.704e+7 
           7990      5.59062e+7 
           8010      5.60684e+7 
           8030      5.55148e+7 
           8050      5.49172e+7 
           8070      5.45436e+7 
           8090      5.39617e+7 
           8110      5.34541e+7 
           8130      5.29874e+7 
           8150       5.2574e+7 
           8170      5.21656e+7 
           8190      5.15444e+7 
           8210      5.08783e+7 
           8230      5.01335e+7 
           8250       5.0281e+7 
           8270      4.96178e+7 
           8290       4.9383e+7 
           8310       4.8911e+7 
           8330      4.85766e+7 
           8350      4.79643e+7 
           8370      4.75767e+7 
           8390      4.73603e+7 
           8410      4.69345e+7 
           8430      4.64438e+7 
           8450      4.53864e+7 
           8470       4.5626e+7 
           8490      4.50611e+7 
           8510      4.45775e+7 
           8530      4.44298e+7 
           8550      4.32941e+7 
           8570      4.40945e+7 
