# Kurucz ODFNEW /NOVER (2003)
# teff = 20000 K (value for the effective temperature for the model. Temperatures are given in K)
# logg = 4 log(cm/s2) (value for Log(G) for the model.)
# meta = -0.5  (value for the Metallicity for the model.)
# lh = 1.25  (l/Hp where l is the  mixing length of the convective element and Hp is the pressure scale height)
# vtur = 2 km/s (Microturbulence velocity)
# alpha = 0.4  (Alpha)
#
# column 1: WAVELENGTH (ANGSTROM), Wavelength in Angstrom
# column 2: FLUX (ERG/CM2/S/A), Flux in erg/cm2/s/A
          147.2     7.16188e-20 
            151     4.28362e-19 
          155.2     2.79759e-18 
          158.8     1.29293e-17 
            162     4.77371e-17 
            166     2.28258e-16 
          170.3      1.1319e-15 
          173.4     3.42755e-15 
          176.8     1.10579e-14 
          180.2     3.41912e-14 
          181.7     5.55254e-14 
          186.1     2.20882e-13 
            191     9.56968e-13 
          193.9     2.20193e-12 
          198.4     7.66541e-12 
          201.8     1.90043e-11 
            205     4.35303e-11 
          210.5     1.70824e-10 
          216.2     6.56639e-10 
          219.8      1.48479e-9 
            223      3.00018e-9 
          226.8      6.74877e-9 
            230      5.10294e-8 
            234      1.30606e-7 
            240      4.01151e-7 
          246.5      1.26215e-6 
          252.4      3.41338e-6 
          256.8      6.80837e-6 
            260      1.14362e-5 
            264      2.09959e-5 
          268.5      4.06117e-5 
          273.5      8.22736e-5 
          278.5     0.000163117 
            284     0.000337467 
            290     0.000718384 
            296      0.00147973 
            301      0.00264714 
            308      0.00571623 
            318       0.0166783 
            328       0.0444229 
            338        0.113289 
            348        0.271143 
            357        0.581194 
            366         1.18442 
            375         2.29402 
            385         4.63894 
            395          8.9937 
            405         16.8823 
            414         29.0357 
            422          45.713 
            430         70.7799 
            441          126.52 
            451         208.923 
            460         320.202 
            470         505.421 
            480         780.029 
            490         1183.18 
            500         1762.04 
            506         17596.4 
            512         68304.3 
            520         87804.1 
            530          126825 
            540          145950 
            550          219549 
            560          273429 
            570          354362 
            580          368733 
            590          513125 
            600          655446 
            610          820452 
            620          969618 
            630      1.16455e+6 
            640      1.31837e+6 
            650      1.46786e+6 
            658      1.83856e+6 
            665      2.02376e+6 
            675      2.28861e+6 
            685      2.62661e+6 
            695      3.15594e+6 
            705      3.55707e+6 
            716      4.14115e+6 
            726      4.62481e+6 
            735      5.16344e+6 
            745      5.93726e+6 
            755      6.69293e+6 
            765      7.48534e+6 
            775      8.40863e+6 
            785      9.37445e+6 
            795      1.02422e+7 
            805      1.12945e+7 
            815       1.2311e+7 
            825      1.36716e+7 
            835      1.43797e+7 
            845      1.59619e+7 
            855      1.73506e+7 
            865      1.89748e+7 
            875      2.07185e+7 
            885      2.26997e+7 
            895      2.44824e+7 
            905       2.5529e+7 
            915      4.16226e+7 
            925      2.06174e+8 
            935      7.28659e+8 
            945       2.8356e+9 
            955      5.25713e+9 
            965      7.20184e+9 
            975      1.32518e+9 
            985      8.89186e+9 
            995      8.46098e+9 
           1005      9.62203e+9 
           1015      8.50747e+9 
           1025      1.75971e+9 
           1035      5.87413e+9 
           1045     1.10929e+10 
           1055     1.05309e+10 
           1065       8.6966e+9 
           1075      1.0205e+10 
           1085      9.21483e+9 
           1095     1.02887e+10 
           1105      8.83429e+9 
           1115      8.33382e+9 
           1125      7.86574e+9 
           1135      9.60229e+9 
           1145      8.40254e+9 
           1155      8.95605e+9 
           1165      9.19822e+9 
           1175       7.0703e+9 
           1185      9.08003e+9 
           1195      6.57999e+9 
           1205      3.50622e+9 
           1215      1.41002e+9 
           1225      5.22557e+9 
           1235      7.96671e+9 
           1245      8.37104e+9 
           1255      8.10709e+9 
           1265      7.58509e+9 
           1275      8.04755e+9 
           1285       8.0574e+9 
           1295        5.324e+9 
           1305      5.06863e+9 
           1315      7.62947e+9 
           1325      7.25702e+9 
           1335      6.68536e+9 
           1345      7.12402e+9 
           1355       7.0289e+9 
           1365      6.45134e+9 
           1375      6.42201e+9 
           1385      6.47867e+9 
           1395       5.4838e+9 
           1405      5.78809e+9 
           1415      5.93028e+9 
           1425      5.96478e+9 
           1435      5.99317e+9 
           1442      6.16449e+9 
           1447      6.05251e+9 
           1455      5.91122e+9 
           1465      5.62174e+9 
           1475      5.54213e+9 
           1485      5.38608e+9 
           1495      5.35911e+9 
           1505      4.99656e+9 
           1512      4.63846e+9 
           1517       4.8083e+9 
           1525      4.87041e+9 
           1535      4.43062e+9 
           1545      4.53807e+9 
           1555      4.29776e+9 
           1565      4.38267e+9 
           1575      4.56685e+9 
           1585       4.5121e+9 
           1595       4.5521e+9 
           1605      4.44963e+9 
           1615      4.40395e+9 
           1625      4.28214e+9 
           1635      4.39593e+9 
           1645      4.34627e+9 
           1655      4.15155e+9 
           1665      4.33652e+9 
           1672      4.17577e+9 
           1677      4.27696e+9 
           1685      4.26524e+9 
           1695      4.08747e+9 
           1705      3.90839e+9 
           1715      3.73025e+9 
           1725       3.6913e+9 
           1735      3.78741e+9 
           1745      3.68449e+9 
           1755      3.74035e+9 
           1765      3.52298e+9 
           1775      3.51592e+9 
           1785      3.49567e+9 
           1795      3.59141e+9 
           1805      3.56375e+9 
           1815       3.3128e+9 
           1825      3.40339e+9 
           1835      3.28327e+9 
           1845      3.05587e+9 
           1855      2.99257e+9 
           1865      3.02339e+9 
           1875      3.15936e+9 
           1885      2.89903e+9 
           1895      2.73109e+9 
           1905      2.90824e+9 
           1915      2.76875e+9 
           1925      2.68526e+9 
           1935      2.77026e+9 
           1945      2.79224e+9 
           1955      2.60565e+9 
           1967      2.76119e+9 
           1976      2.84705e+9 
           1984      2.66699e+9 
           1995      2.59989e+9 
           2005      2.65087e+9 
           2015      2.59808e+9 
           2025      2.68925e+9 
           2035      2.51643e+9 
           2045      2.52584e+9 
           2055      2.43236e+9 
           2065      2.47432e+9 
           2074      2.53067e+9 
           2078      2.39792e+9 
           2085      2.45282e+9 
           2095      2.33933e+9 
           2105       2.3799e+9 
           2115      2.36579e+9 
           2125      2.39814e+9 
           2135      2.33721e+9 
           2145      2.25676e+9 
           2155      2.31082e+9 
           2165      2.27449e+9 
           2175      2.24391e+9 
           2185      2.20069e+9 
           2195      2.21259e+9 
           2205      2.17087e+9 
           2215      2.13327e+9 
           2225      2.07464e+9 
           2235      2.08779e+9 
           2245      2.07477e+9 
           2255      2.01462e+9 
           2265      2.03271e+9 
           2275      2.01007e+9 
           2285      2.00781e+9 
           2295      1.93492e+9 
           2305       1.9359e+9 
           2315      1.89306e+9 
           2325      1.87451e+9 
           2335      1.80736e+9 
           2345      1.78129e+9 
           2355      1.79689e+9 
           2365      1.75162e+9 
           2375      1.74806e+9 
           2385      1.71157e+9 
           2395      1.72588e+9 
           2405       1.6844e+9 
           2415      1.66944e+9 
           2425      1.67851e+9 
           2435      1.62892e+9 
           2445      1.63188e+9 
           2455      1.62755e+9 
           2465      1.59211e+9 
           2475      1.57435e+9 
           2485      1.57428e+9 
           2495      1.51647e+9 
           2505      1.54311e+9 
           2513      1.48791e+9 
           2518      1.51587e+9 
           2525      1.48213e+9 
           2535      1.46049e+9 
           2545      1.42758e+9 
           2555      1.45486e+9 
           2565      1.42888e+9 
           2575      1.43956e+9 
           2585      1.43036e+9 
           2595      1.41707e+9 
           2605      1.40382e+9 
           2615      1.39073e+9 
           2625      1.37568e+9 
           2635        1.362e+9 
           2645      1.37207e+9 
           2655      1.35802e+9 
           2665      1.32419e+9 
           2675      1.32652e+9 
           2685      1.31838e+9 
           2695      1.28942e+9 
           2705      1.28614e+9 
           2715      1.26825e+9 
           2725      1.24622e+9 
           2735      1.25077e+9 
           2745      1.20718e+9 
           2755       1.2025e+9 
           2765      1.19702e+9 
           2775      1.20509e+9 
           2785      1.18834e+9 
           2795      1.14065e+9 
           2805      1.15877e+9 
           2815      1.16025e+9 
           2825      1.13869e+9 
           2835      1.10906e+9 
           2845      1.11375e+9 
           2855      1.10837e+9 
           2865      1.10583e+9 
           2875      1.09127e+9 
           2885      1.08295e+9 
           2895      1.07292e+9 
           2910      1.05735e+9 
           2930      1.03239e+9 
           2950      1.00926e+9 
           2970      9.98829e+8 
           2990      9.76452e+8 
           3010       9.6094e+8 
           3030       9.4686e+8 
           3050      9.28692e+8 
           3070      9.11835e+8 
           3090      8.91862e+8 
           3110      8.77507e+8 
           3130      8.63483e+8 
           3150      8.47542e+8 
           3170      8.31595e+8 
           3190      8.09316e+8 
           3210      8.01932e+8 
           3230      7.88204e+8 
           3250      7.75002e+8 
           3270      7.62344e+8 
           3290      7.48301e+8 
           3310      7.36775e+8 
           3330      7.23807e+8 
           3350       7.1002e+8 
           3370      6.99097e+8 
           3390      6.87528e+8 
           3410       6.7615e+8 
           3430      6.62364e+8 
           3450      6.49326e+8 
           3470      6.40017e+8 
           3490      6.29393e+8 
           3510      6.21018e+8 
           3530      6.11884e+8 
           3550       6.0205e+8 
           3570      5.94761e+8 
           3590      5.81605e+8 
           3610      5.73039e+8 
           3630      5.63597e+8 
           3640      5.62325e+8 
           3650      5.54412e+8 
           3670      5.47967e+8 
           3690      5.35126e+8 
           3710      5.19053e+8 
           3730      5.02752e+8 
           3750        5.475e+8 
           3770      5.55251e+8 
           3790      5.94779e+8 
           3810      6.26182e+8 
           3830      5.39275e+8 
           3850      6.48033e+8 
           3870      6.57954e+8 
           3890      5.09273e+8 
           3910      6.52693e+8 
           3930      6.37261e+8 
           3950      6.31911e+8 
           3970      4.74781e+8 
           3990      6.05059e+8 
           4010      6.06254e+8 
           4030      5.68867e+8 
           4050      5.93419e+8 
           4070       5.7623e+8 
           4090       5.2586e+8 
           4110      4.52933e+8 
           4130      5.39598e+8 
           4150      5.38282e+8 
           4170      5.35362e+8 
           4190      5.29899e+8 
           4210      5.22963e+8 
           4230      5.13861e+8 
           4250      5.04489e+8 
           4270      4.91199e+8 
           4290      4.87244e+8 
           4310      4.76263e+8 
           4330      4.24393e+8 
           4350      3.83986e+8 
           4370      4.52563e+8 
           4390      4.37834e+8 
           4410      4.43926e+8 
           4430      4.35876e+8 
           4450      4.32062e+8 
           4470      4.05673e+8 
           4490       4.1554e+8 
           4510      4.13363e+8 
           4530      4.05976e+8 
           4550      3.99958e+8 
           4570      3.94192e+8 
           4590      3.88512e+8 
           4610      3.82471e+8 
           4630      3.76503e+8 
           4650      3.69595e+8 
           4670      3.65797e+8 
           4690      3.61416e+8 
           4710      3.49013e+8 
           4730      3.48728e+8 
           4750      3.43394e+8 
           4770      3.41182e+8 
           4790      3.35843e+8 
           4810      3.28904e+8 
           4830      3.22472e+8 
           4850       2.9408e+8 
           4870      2.60076e+8 
           4890      3.08447e+8 
           4910      3.06658e+8 
           4930       2.9534e+8 
           4950      2.99523e+8 
           4970      2.95928e+8 
           4990      2.91533e+8 
           5010      2.81886e+8 
           5030      2.83028e+8 
           5050       2.7537e+8 
           5070      2.75957e+8 
           5090      2.72047e+8 
           5110      2.68018e+8 
           5130      2.64157e+8 
           5150      2.60603e+8 
           5170      2.57745e+8 
           5190      2.54238e+8 
           5210      2.49029e+8 
           5230      2.47623e+8 
           5250      2.44387e+8 
           5270      2.41003e+8 
           5290      2.38121e+8 
           5310      2.34914e+8 
           5330      2.31536e+8 
           5350      2.28058e+8 
           5370      2.25918e+8 
           5390      2.23013e+8 
           5410       2.1999e+8 
           5430       2.1652e+8 
           5450      2.14058e+8 
           5470      2.11262e+8 
           5490      2.09075e+8 
           5510      2.06295e+8 
           5530      2.03635e+8 
           5550      2.01228e+8 
           5570      1.98596e+8 
           5590      1.96249e+8 
           5610      1.93475e+8 
           5630      1.91509e+8 
           5650      1.87842e+8 
           5670      1.85817e+8 
           5690      1.84001e+8 
           5710      1.82113e+8 
           5730      1.79949e+8 
           5750      1.77651e+8 
           5770      1.75664e+8 
           5790      1.73519e+8 
           5810      1.71356e+8 
           5830      1.69273e+8 
           5850      1.67292e+8 
           5870      1.60316e+8 
           5890      1.62639e+8 
           5910      1.61313e+8 
           5930      1.59445e+8 
           5950      1.57194e+8 
           5970      1.55751e+8 
           5990      1.53684e+8 
           6010      1.52162e+8 
           6030      1.50346e+8 
           6050      1.48623e+8 
           6070      1.46889e+8 
           6090      1.45123e+8 
           6110      1.43539e+8 
           6130      1.41892e+8 
           6150      1.39895e+8 
           6170      1.38613e+8 
           6190       1.3709e+8 
           6210      1.35514e+8 
           6230      1.33976e+8 
           6250       1.3229e+8 
           6270       1.3094e+8 
           6290      1.29452e+8 
           6310      1.27875e+8 
           6330      1.26608e+8 
           6350      1.24597e+8 
           6370      1.23426e+8 
           6390      1.22378e+8 
           6410      1.20973e+8 
           6430      1.19794e+8 
           6450      1.18418e+8 
           6470      1.17075e+8 
           6490      1.15845e+8 
           6510      1.14361e+8 
           6530      1.12619e+8 
           6550      1.06743e+8 
           6570      9.39447e+7 
           6590      1.07828e+8 
           6610      1.08193e+8 
           6630      1.07379e+8 
           6650      1.06317e+8 
           6670      1.04156e+8 
           6690      1.03105e+8 
           6710      1.02959e+8 
           6730      1.01874e+8 
           6750      1.00833e+8 
           6770      9.97863e+7 
           6790      9.85538e+7 
           6810      9.76752e+7 
           6830      9.66275e+7 
           6850      9.56787e+7 
           6870      9.46834e+7 
           6890       9.3706e+7 
           6910      9.27383e+7 
           6930      9.17253e+7 
           6950      9.08471e+7 
           6970       8.9931e+7 
           6990      8.89931e+7 
           7010      8.80797e+7 
           7030      8.71828e+7 
           7050      8.62796e+7 
           7070      8.41265e+7 
           7090      8.45968e+7 
           7110      8.37266e+7 
           7130      8.28944e+7 
           7150      8.20408e+7 
           7170      8.12393e+7 
           7190      8.04527e+7 
           7210      7.96592e+7 
           7230      7.82966e+7 
           7250      7.80515e+7 
           7270      7.73233e+7 
           7290      7.59993e+7 
           7310      7.58026e+7 
           7330       7.5074e+7 
           7350      7.43452e+7 
           7370      7.36232e+7 
           7390      7.29148e+7 
           7410      7.22061e+7 
           7430       7.1463e+7 
           7450      7.08152e+7 
           7470      7.00921e+7 
           7490      6.94497e+7 
           7510      6.87864e+7 
           7530      6.81491e+7 
           7550      6.75109e+7 
           7570       6.6872e+7 
           7590      6.62257e+7 
           7610      6.56114e+7 
           7630      6.50026e+7 
           7650      6.43863e+7 
           7670      6.37871e+7 
           7690      6.31907e+7 
           7710      6.26016e+7 
           7730      6.20126e+7 
           7750      6.14415e+7 
           7770      6.04872e+7 
           7790      6.03142e+7 
           7810      5.97278e+7 
           7830      5.92111e+7 
           7850      5.86059e+7 
           7870      5.80882e+7 
           7890      5.74576e+7 
           7910      5.71193e+7 
           7930      5.66045e+7 
           7950      5.59719e+7 
           7970      5.55087e+7 
           7990      5.48741e+7 
           8010      5.45053e+7 
           8030       5.4011e+7 
           8050      5.35319e+7 
           8070       5.3087e+7 
           8090      5.25226e+7 
           8110      5.20955e+7 
           8130      5.16765e+7 
           8150      5.11696e+7 
           8170      5.07913e+7 
           8190      5.02796e+7 
           8210      4.96878e+7 
           8230      4.93142e+7 
           8250      4.90068e+7 
           8270      4.83652e+7 
           8290      4.81244e+7 
           8310      4.77119e+7 
           8330      4.73072e+7 
           8350      4.66978e+7 
           8370      4.63937e+7 
           8390      4.60769e+7 
           8410       4.5654e+7 
           8430      4.51922e+7 
           8450      4.44256e+7 
           8470      4.42696e+7 
           8490      4.39735e+7 
           8510      4.32968e+7 
           8530      4.33611e+7 
           8550      4.18908e+7 
           8570       4.3224e+7 
