# Kurucz ODFNEW /NOVER (2003)
# teff = 32000 K (value for the effective temperature for the model. Temperatures are given in K)
# logg = 5 log(cm/s2) (value for Log(G) for the model.)
# meta = 0  (value for the Metallicity for the model.)
# lh = 1.25  (l/Hp where l is the  mixing length of the convective element and Hp is the pressure scale height)
# vtur = 2 km/s (Microturbulence velocity)
# alpha = 0  (Alpha)
#
# column 1: WAVELENGTH (ANGSTROM), Wavelength in Angstrom
# column 2: FLUX (ERG/CM2/S/A), Flux in erg/cm2/s/A
          147.2      7.69199e-7 
            151      2.15586e-6 
          155.2      6.36984e-6 
          158.8      1.54457e-5 
            162      3.29071e-5 
            166      8.14433e-5 
          170.3     0.000205614 
          173.4     0.000391069 
          176.8     0.000770748 
          180.2      0.00148176 
          181.7      0.00196302 
          186.1      0.00436467 
            191       0.0101938 
          193.9       0.0165082 
          198.4       0.0339436 
          201.8       0.0573042 
            205       0.0923424 
          210.5        0.203098 
          216.2        0.440325 
          219.8        0.704605 
            223         1.05605 
          226.8         1.70032 
            230         373.959 
            234         839.997 
            240         1423.66 
          246.5         2526.77 
          252.4         4203.61 
          256.8         5733.81 
            260         8959.03 
            264         12837.6 
          268.5         18754.9 
          273.5         26594.4 
          278.5         35844.1 
            284         67549.4 
            290         98554.4 
            296          136466 
            301          183032 
            308          328169 
            318          653923 
            328          996345 
            338      1.67887e+6 
            348      2.59935e+6 
            357      5.73035e+6 
            366      1.01244e+7 
            375       1.2799e+7 
            385       1.8435e+7 
            395      2.96361e+7 
            405      3.73319e+7 
            414      4.90331e+7 
            422      5.67112e+7 
            430      6.89278e+7 
            441      8.73865e+7 
            451       1.0373e+8 
            460      1.17653e+8 
            470      1.43485e+8 
            480      1.71131e+8 
            490       1.9985e+8 
            500      2.37219e+8 
            506      5.55774e+8 
            512       3.6481e+9 
            520      3.47095e+9 
            530      3.35945e+9 
            540      3.07934e+9 
            550       3.8333e+9 
            560      4.42032e+9 
            570      4.61862e+9 
            580      4.24101e+9 
            590      4.66264e+9 
            600      4.27598e+9 
            610      4.84554e+9 
            620      5.40691e+9 
            630      5.34246e+9 
            640       5.1551e+9 
            650      5.41697e+9 
            658      5.11916e+9 
            665      5.52727e+9 
            675      5.67329e+9 
            685      5.00433e+9 
            695      6.25947e+9 
            705      5.66544e+9 
            716      6.62386e+9 
            726      6.50547e+9 
            735      6.53179e+9 
            745      6.75177e+9 
            755      6.76233e+9 
            765      6.93752e+9 
            775      7.09459e+9 
            785      7.36494e+9 
            795      7.34534e+9 
            805      7.23374e+9 
            815      7.21669e+9 
            825      7.55147e+9 
            835      6.58767e+9 
            845      7.35916e+9 
            855      7.33025e+9 
            865      7.55649e+9 
            875      7.68294e+9 
            885      7.88788e+9 
            895      7.99149e+9 
            905      7.81632e+9 
            915      7.97579e+9 
            925     2.35907e+10 
            935     4.28697e+10 
            945     7.36648e+10 
            955     8.63769e+10 
            965     1.07906e+11 
            975     3.53921e+10 
            985     9.51002e+10 
            995     8.47924e+10 
           1005     9.11476e+10 
           1015     9.20482e+10 
           1025     5.31231e+10 
           1035      8.4203e+10 
           1045     1.03509e+11 
           1055     9.76631e+10 
           1065     8.18045e+10 
           1075     8.72529e+10 
           1085     7.84868e+10 
           1095     8.55054e+10 
           1105     8.07468e+10 
           1115     7.93352e+10 
           1125     6.45869e+10 
           1135     7.57685e+10 
           1145     7.02726e+10 
           1155      6.8982e+10 
           1165     6.67092e+10 
           1175     4.41938e+10 
           1185     6.09887e+10 
           1195     5.86981e+10 
           1205     5.30733e+10 
           1215     3.37474e+10 
           1225     5.24942e+10 
           1235     5.75212e+10 
           1245     5.54294e+10 
           1255     5.50303e+10 
           1265     5.59435e+10 
           1275     5.67078e+10 
           1285     5.62781e+10 
           1295     4.99019e+10 
           1305      5.0819e+10 
           1315     5.40969e+10 
           1325     5.12942e+10 
           1335     4.97782e+10 
           1345     4.91116e+10 
           1355     4.85556e+10 
           1365     4.60088e+10 
           1375     4.48339e+10 
           1385     4.32717e+10 
           1395     3.40814e+10 
           1405     3.53156e+10 
           1415     3.98927e+10 
           1425     3.64814e+10 
           1435     3.82762e+10 
           1442     3.84798e+10 
           1447     3.79715e+10 
           1455     3.64001e+10 
           1465     3.49325e+10 
           1475     3.48812e+10 
           1485     3.46094e+10 
           1495     3.35479e+10 
           1505     3.16366e+10 
           1512     3.00986e+10 
           1517     3.04112e+10 
           1525     2.99423e+10 
           1535     2.58569e+10 
           1545     2.36704e+10 
           1555     2.32112e+10 
           1565     2.51612e+10 
           1575     2.62611e+10 
           1585     2.62847e+10 
           1595     2.60746e+10 
           1605     2.50444e+10 
           1615     2.38642e+10 
           1625     2.42377e+10 
           1635     2.45495e+10 
           1645     2.42046e+10 
           1655     2.44191e+10 
           1665     2.40995e+10 
           1672     2.26759e+10 
           1677     2.53901e+10 
           1685     2.42208e+10 
           1695     2.32526e+10 
           1705     2.27059e+10 
           1715      2.1813e+10 
           1725     2.09076e+10 
           1735     2.15596e+10 
           1745     2.12501e+10 
           1755     2.09817e+10 
           1765     2.05826e+10 
           1775     1.97702e+10 
           1785     1.99525e+10 
           1795     1.97238e+10 
           1805     1.96781e+10 
           1815     1.86957e+10 
           1825     1.86452e+10 
           1835     1.83776e+10 
           1845     1.70069e+10 
           1855      1.7227e+10 
           1865     1.73319e+10 
           1875     1.71786e+10 
           1885      1.5926e+10 
           1895     1.52107e+10 
           1905     1.58456e+10 
           1915     1.52357e+10 
           1925     1.43255e+10 
           1935     1.51387e+10 
           1945     1.54007e+10 
           1955     1.39661e+10 
           1967     1.46258e+10 
           1976     1.51306e+10 
           1984     1.42279e+10 
           1995     1.39228e+10 
           2005     1.41038e+10 
           2015     1.40616e+10 
           2025     1.41243e+10 
           2035      1.3309e+10 
           2045     1.32224e+10 
           2055     1.16649e+10 
           2065     1.14214e+10 
           2074      1.1728e+10 
           2078     1.12502e+10 
           2085     1.14807e+10 
           2095     1.14297e+10 
           2105     1.21282e+10 
           2115     1.22067e+10 
           2125     1.21137e+10 
           2135     1.19063e+10 
           2145      1.1572e+10 
           2155     1.16442e+10 
           2165     1.13415e+10 
           2175     1.13195e+10 
           2185     1.10481e+10 
           2195     1.11024e+10 
           2205     1.09415e+10 
           2215      1.0651e+10 
           2225     1.05692e+10 
           2235       1.037e+10 
           2245     1.02793e+10 
           2255      9.97198e+9 
           2265      9.99721e+9 
           2275      9.86439e+9 
           2285      9.66712e+9 
           2295      8.87924e+9 
           2305      9.26255e+9 
           2315      9.19465e+9 
           2325      9.10458e+9 
           2335      8.94039e+9 
           2345      8.89376e+9 
           2355      8.74435e+9 
           2365      8.62408e+9 
           2375      8.44074e+9 
           2385      8.21116e+9 
           2395      8.17491e+9 
           2405      8.11163e+9 
           2415      7.99163e+9 
           2425       7.9156e+9 
           2435      7.74334e+9 
           2445      7.67446e+9 
           2455      7.58519e+9 
           2465      7.48967e+9 
           2475      7.37084e+9 
           2485      7.22745e+9 
           2495      6.10693e+9 
           2505      6.95701e+9 
           2513      6.63837e+9 
           2518      6.78435e+9 
           2525      6.87737e+9 
           2535      6.80798e+9 
           2545      6.62778e+9 
           2555      6.57081e+9 
           2565      6.49963e+9 
           2575      6.42539e+9 
           2585       6.3566e+9 
           2595      6.26966e+9 
           2605      6.21218e+9 
           2615      6.11187e+9 
           2625      6.05227e+9 
           2635       5.9755e+9 
           2645      5.87763e+9 
           2655      5.81312e+9 
           2665      5.66137e+9 
           2675      5.58859e+9 
           2685      5.58414e+9 
           2695      5.41673e+9 
           2705      5.35513e+9 
           2715       5.3086e+9 
           2725      5.25195e+9 
           2735      5.16174e+9 
           2745       5.1377e+9 
           2755      5.08757e+9 
           2765      4.98825e+9 
           2775      4.99493e+9 
           2785      4.91347e+9 
           2795      4.74937e+9 
           2805      4.75923e+9 
           2815      4.75191e+9 
           2825      4.65918e+9 
           2835      4.54448e+9 
           2845      4.57715e+9 
           2855      4.50156e+9 
           2865      4.45027e+9 
           2875      4.39858e+9 
           2885      4.34483e+9 
           2895      4.29041e+9 
           2910      4.19345e+9 
           2930      4.12485e+9 
           2950      3.98993e+9 
           2970      3.92549e+9 
           2990      3.81879e+9 
           3010      3.70401e+9 
           3030      3.63631e+9 
           3050      3.57145e+9 
           3070       3.5084e+9 
           3090      3.38098e+9 
           3110      3.34788e+9 
           3130      3.25889e+9 
           3150       3.1941e+9 
           3170      3.11666e+9 
           3190      3.03979e+9 
           3210      2.98481e+9 
           3230      2.91937e+9 
           3250      2.86917e+9 
           3270      2.79743e+9 
           3290      2.74139e+9 
           3310      2.68577e+9 
           3330      2.62126e+9 
           3350       2.5668e+9 
           3370       2.5137e+9 
           3390      2.47295e+9 
           3410      2.42125e+9 
           3430      2.36917e+9 
           3450       2.3113e+9 
           3470      2.26803e+9 
           3490      2.22154e+9 
           3510      2.18009e+9 
           3530      2.14234e+9 
           3550      2.09853e+9 
           3570      2.06646e+9 
           3590       2.0064e+9 
           3610      1.97631e+9 
           3630      1.93355e+9 
           3640        1.928e+9 
           3650      1.87786e+9 
           3670      1.85155e+9 
           3690      1.81803e+9 
           3710      1.75327e+9 
           3730      1.71204e+9 
           3750      1.68108e+9 
           3770       1.6226e+9 
           3790      1.65766e+9 
           3810      1.70168e+9 
           3830      1.51463e+9 
           3850      1.71891e+9 
           3870      1.71133e+9 
           3890      1.41454e+9 
           3910      1.70131e+9 
           3930      1.67189e+9 
           3950      1.62443e+9 
           3970      1.30746e+9 
           3990       1.5699e+9 
           4010      1.56874e+9 
           4030      1.48125e+9 
           4050      1.52552e+9 
           4070      1.45719e+9 
           4090      1.33926e+9 
           4110      1.20266e+9 
           4130      1.38644e+9 
           4150      1.37773e+9 
           4170        1.372e+9 
           4190      1.34833e+9 
           4210      1.33066e+9 
           4230      1.30729e+9 
           4250      1.27061e+9 
           4270      1.23892e+9 
           4290      1.22047e+9 
           4310      1.18279e+9 
           4330       1.0757e+9 
           4350      9.92806e+8 
           4370      1.12384e+9 
           4390      1.10201e+9 
           4410      1.10366e+9 
           4430      1.09526e+9 
           4450      1.07491e+9 
           4470      1.01577e+9 
           4490      1.04021e+9 
           4510      1.02711e+9 
           4530      1.01268e+9 
           4550      9.93445e+8 
           4570       9.7988e+8 
           4590      9.61614e+8 
           4610      9.41482e+8 
           4630      9.23191e+8 
           4650      8.87895e+8 
           4670      8.96993e+8 
           4690      8.82029e+8 
           4710      8.56213e+8 
           4730      8.61347e+8 
           4750      8.46579e+8 
           4770      8.40008e+8 
           4790      8.25849e+8 
           4810      8.08476e+8 
           4830      7.88731e+8 
           4850      7.27417e+8 
           4870      6.56361e+8 
           4890      7.52132e+8 
           4910      7.47018e+8 
           4930      7.20183e+8 
           4950       7.2523e+8 
           4970      7.19649e+8 
           4990      7.08309e+8 
           5010      6.82688e+8 
           5030      6.85608e+8 
           5050      6.72522e+8 
           5070      6.67607e+8 
           5090      6.56773e+8 
           5110      6.46664e+8 
           5130      6.35405e+8 
           5150      6.26545e+8 
           5170       6.1862e+8 
           5190      6.10617e+8 
           5210       6.0194e+8 
           5230      5.93296e+8 
           5250       5.8437e+8 
           5270      5.75588e+8 
           5290       5.6835e+8 
           5310      5.60202e+8 
           5330      5.52478e+8 
           5350       5.4442e+8 
           5370      5.37106e+8 
           5390      5.29289e+8 
           5410      5.20711e+8 
           5430      5.15119e+8 
           5450      5.07794e+8 
           5470      5.00763e+8 
           5490      4.93896e+8 
           5510      4.87525e+8 
           5530      4.80433e+8 
           5550      4.74433e+8 
           5570      4.67923e+8 
           5590      4.61519e+8 
           5610      4.55552e+8 
           5630      4.49529e+8 
           5650      4.43035e+8 
           5670      4.36002e+8 
           5690      4.27752e+8 
           5710      4.23617e+8 
           5730      4.18542e+8 
           5750      4.12104e+8 
           5770      4.08086e+8 
           5790      4.02563e+8 
           5810       3.9733e+8 
           5830      3.91494e+8 
           5850      3.87061e+8 
           5870       3.7075e+8 
           5890      3.74947e+8 
           5910      3.72015e+8 
           5930      3.67239e+8 
           5950      3.62773e+8 
           5970      3.59596e+8 
           5990      3.54217e+8 
           6010      3.50455e+8 
           6030        3.457e+8 
           6050      3.41678e+8 
           6070      3.37703e+8 
           6090      3.33579e+8 
           6110       3.2938e+8 
           6130       3.2546e+8 
           6150      3.20637e+8 
           6170      3.17008e+8 
           6190      3.13498e+8 
           6210      3.09821e+8 
           6230      3.06127e+8 
           6250      3.02078e+8 
           6270      2.98611e+8 
           6290      2.95163e+8 
           6310      2.91459e+8 
           6330      2.88144e+8 
           6350      2.84473e+8 
           6370      2.81352e+8 
           6390      2.77933e+8 
           6410      2.74661e+8 
           6430      2.71497e+8 
           6450       2.6825e+8 
           6470      2.64434e+8 
           6490      2.61545e+8 
           6510      2.58296e+8 
           6530      2.54022e+8 
           6550      2.41936e+8 
           6570      2.15705e+8 
           6590      2.42937e+8 
           6610      2.43315e+8 
           6630      2.41395e+8 
           6650       2.3865e+8 
           6670      2.33343e+8 
           6690       2.3083e+8 
           6710      2.30669e+8 
           6730      2.27712e+8 
           6750      2.25604e+8 
           6770      2.23163e+8 
           6790      2.19701e+8 
           6810      2.18039e+8 
           6830      2.15593e+8 
           6850       2.1334e+8 
           6870       2.1095e+8 
           6890      2.08378e+8 
           6910      2.05904e+8 
           6930      2.04121e+8 
           6950      2.01895e+8 
           6970      1.99699e+8 
           6990      1.97509e+8 
           7010      1.95341e+8 
           7030      1.93118e+8 
           7050      1.91107e+8 
           7070      1.86228e+8 
           7090      1.87068e+8 
           7110      1.84839e+8 
           7130      1.82952e+8 
           7150      1.81148e+8 
           7170      1.79201e+8 
           7190      1.77331e+8 
           7210      1.75465e+8 
           7230      1.72023e+8 
           7250      1.71541e+8 
           7270      1.69979e+8 
           7290      1.66914e+8 
           7310      1.66417e+8 
           7330      1.64676e+8 
           7350      1.62993e+8 
           7370      1.61326e+8 
           7390      1.59661e+8 
           7410      1.58018e+8 
           7430       1.5639e+8 
           7450      1.54791e+8 
           7470      1.52796e+8 
           7490      1.51524e+8 
           7510       1.5007e+8 
           7530       1.4851e+8 
           7550      1.47096e+8 
           7570      1.45604e+8 
           7590      1.44085e+8 
           7610      1.42516e+8 
           7630      1.41239e+8 
           7650      1.39832e+8 
           7670      1.38457e+8 
           7690      1.37043e+8 
           7710      1.35687e+8 
           7730      1.34279e+8 
           7750      1.33054e+8 
           7770      1.31677e+8 
           7790      1.30462e+8 
           7810      1.29134e+8 
           7830      1.27922e+8 
           7850      1.26745e+8 
           7870      1.25354e+8 
           7890      1.24053e+8 
           7910      1.23029e+8 
           7930      1.21822e+8 
           7950      1.20698e+8 
           7970      1.19494e+8 
           7990      1.18383e+8 
           8010      1.17229e+8 
           8030      1.16108e+8 
           8050       1.1502e+8 
           8070      1.13919e+8 
           8090      1.12711e+8 
           8110        1.112e+8 
           8130      1.10699e+8 
           8150      1.09595e+8 
           8170      1.08658e+8 
           8190      1.07224e+8 
           8210      1.06104e+8 
           8230      1.05038e+8 
           8250      1.04386e+8 
           8270      1.02774e+8 
           8290      1.02427e+8 
           8310       1.0158e+8 
           8330      1.00582e+8 
           8350      9.93121e+7 
           8370      9.86283e+7 
           8390      9.79125e+7 
           8410       9.6968e+7 
           8430      9.61055e+7 
           8450      9.47225e+7 
           8470       9.4386e+7 
           8490      9.33721e+7 
           8510      9.25124e+7 
           8530      9.16338e+7 
           8550      9.07985e+7 
           8570      9.02777e+7 
           8590      8.82598e+7 
