# Kurucz ODFNEW /NOVER (2003)
# teff = 8250 K (value for the effective temperature for the model. Temperatures are given in K)
# logg = 4.5 log(cm/s2) (value for Log(G) for the model.)
# meta = 0.5  (value for the Metallicity for the model.)
# lh = 1.25  (l/Hp where l is the  mixing length of the convective element and Hp is the pressure scale height)
# vtur = 2 km/s (Microturbulence velocity)
# alpha = 0.4  (Alpha)
#
# column 1: WAVELENGTH (ANGSTROM), Wavelength in Angstrom
# column 2: FLUX (ERG/CM2/S/A), Flux in erg/cm2/s/A
            328     2.90349e-23 
            338     3.72232e-22 
            348     3.59017e-21 
            357     1.76126e-21 
            366     9.99561e-21 
            375     5.18782e-20 
            385     2.93886e-19 
            395     1.51527e-18 
            405      7.1694e-18 
            414     2.71278e-17 
            422     8.41022e-17 
            430     2.49224e-16 
            441     1.03648e-15 
            451     3.54743e-15 
            460     1.02214e-14 
            470     3.14805e-14 
            480     9.21581e-14 
            490     2.57403e-13 
            500     6.87049e-13 
            506     1.59808e-12 
            512     3.13692e-12 
            520     6.41262e-12 
            530     1.52717e-11 
            540      3.4456e-11 
            550     7.65539e-11 
            560     1.63702e-10 
            570     3.39671e-10 
            580     6.76747e-10 
            590       1.3461e-9 
            600      2.57788e-9 
            610      4.84058e-9 
            620      8.85236e-9 
            630       1.5857e-8 
            640      2.78013e-8 
            650      4.79351e-8 
            658      7.30611e-8 
            665      1.03897e-7 
            675       1.7152e-7 
            685      2.78903e-7 
            695      4.45118e-7 
            705      6.89168e-7 
            716      1.12977e-6 
            726       1.7237e-6 
            735      2.49138e-6 
            745      3.69497e-6 
            755      5.43075e-6 
            765       7.9057e-6 
            775      1.13654e-5 
            785      1.62509e-5 
            795      2.25027e-5 
            805      3.13813e-5 
            815      4.39354e-5 
            825      6.02656e-5 
            835      8.17947e-5 
            845     0.000110145 
            855     0.000147115 
            865     0.000194884 
            875     0.000253113 
            885     0.000334144 
            895      0.00043315 
            905     0.000552198 
            915         0.16766 
            925        0.472703 
            935         0.61666 
            945        0.815366 
            955         1.08889 
            965         1.40291 
            975         1.75662 
            985         2.21885 
            995         2.73712 
           1005         3.56373 
           1015         4.44956 
           1025         5.33024 
           1035         6.75825 
           1045          8.3127 
           1055         10.1881 
           1065          12.307 
           1075         15.0884 
           1085         18.3384 
           1095         21.8646 
           1105         59.8435 
           1115         183.831 
           1125         261.949 
           1135         361.661 
           1145         451.722 
           1155         494.455 
           1165          669.34 
           1175         797.759 
           1185         837.337 
           1195         483.962 
           1205         748.231 
           1215         220.152 
           1225         894.008 
           1235          1529.3 
           1245         2974.17 
           1255         5691.27 
           1265          4645.6 
           1275         6996.83 
           1285         8914.33 
           1295         10276.5 
           1305         7889.08 
           1315         11928.3 
           1325         13674.2 
           1335         14970.5 
           1345         17354.1 
           1355         17866.7 
           1365         19362.9 
           1375         20906.6 
           1385           22554 
           1395         25346.6 
           1405         27893.7 
           1415         29122.7 
           1425         31917.5 
           1435         32429.2 
           1442         36874.6 
           1447         38626.4 
           1455         42247.7 
           1465         43412.4 
           1475         46732.2 
           1485         50896.8 
           1495         56486.9 
           1505         61515.2 
           1512         62695.3 
           1517         67342.8 
           1525         76751.2 
           1535          127814 
           1545          213820 
           1555          232532 
           1565          225740 
           1575          318575 
           1585          378555 
           1595          454544 
           1605          469971 
           1615          464111 
           1625          426131 
           1635          515764 
           1645          710670 
           1655          471382 
           1665          742078 
           1672          485900 
           1677      1.06233e+6 
           1685      1.85391e+6 
           1695       1.3426e+6 
           1705      2.81022e+6 
           1715      7.50609e+6 
           1725      8.49407e+6 
           1735      1.32872e+7 
           1745      1.25204e+7 
           1755      1.79948e+7 
           1765      8.93093e+6 
           1775      1.59116e+7 
           1785      1.64314e+7 
           1795        2.318e+7 
           1805       1.5897e+7 
           1815      1.60448e+7 
           1825      1.45562e+7 
           1835      1.36283e+7 
           1845      1.07695e+7 
           1855      1.54785e+7 
           1865      2.02205e+7 
           1875      1.83466e+7 
           1885      1.93537e+7 
           1895      2.07153e+7 
           1905      1.80204e+7 
           1915      2.11467e+7 
           1925      1.92023e+7 
           1935      1.14702e+7 
           1945      2.20788e+7 
           1955      2.28727e+7 
           1967      2.61144e+7 
           1976      2.41779e+7 
           1984      2.20147e+7 
           1995      2.28384e+7 
           2005      2.06881e+7 
           2015      1.94608e+7 
           2025      1.83568e+7 
           2035      2.34649e+7 
           2045      2.55692e+7 
           2055       2.3014e+7 
           2065      2.31971e+7 
           2074      2.77607e+7 
           2078      3.14866e+7 
           2085       2.9486e+7 
           2095      2.67383e+7 
           2105      2.40371e+7 
           2115       2.5045e+7 
           2125      2.55381e+7 
           2135       2.0167e+7 
           2145      2.57388e+7 
           2155      2.59369e+7 
           2165      2.29362e+7 
           2175      2.29305e+7 
           2185      2.56904e+7 
           2195      2.75117e+7 
           2205      2.52459e+7 
           2215      2.08912e+7 
           2225      2.10478e+7 
           2235      2.61745e+7 
           2245      2.36098e+7 
           2255      2.02499e+7 
           2265      2.03285e+7 
           2275      2.27095e+7 
           2285      2.47356e+7 
           2295      2.11717e+7 
           2305      2.28653e+7 
           2315      2.16334e+7 
           2325      2.07599e+7 
           2335      1.65659e+7 
           2345      1.27439e+7 
           2355       1.9892e+7 
           2365      1.34143e+7 
           2375      1.65996e+7 
           2385      1.11478e+7 
           2395      1.38528e+7 
           2405      1.35417e+7 
           2415      1.43484e+7 
           2425      1.94258e+7 
           2435      1.82105e+7 
           2445      2.05984e+7 
           2455      2.06635e+7 
           2465      2.03256e+7 
           2475      1.82355e+7 
           2485      1.83886e+7 
           2495      1.72774e+7 
           2505      2.27874e+7 
           2513      1.60125e+7 
           2518      1.53019e+7 
           2525      1.33795e+7 
           2535      1.16538e+7 
           2545       1.0772e+7 
           2555      1.42964e+7 
           2565      1.48196e+7 
           2575      1.95512e+7 
           2585      2.01562e+7 
           2595      1.94154e+7 
           2605      1.74696e+7 
           2615      1.62234e+7 
           2625      2.14629e+7 
           2635      2.30062e+7 
           2645       2.9218e+7 
           2655      3.14626e+7 
           2665      2.35605e+7 
           2675      2.73048e+7 
           2685      2.69775e+7 
           2695      2.41307e+7 
           2705      2.66011e+7 
           2715      2.32394e+7 
           2725      2.36592e+7 
           2735      2.60892e+7 
           2745       1.7228e+7 
           2755      1.89838e+7 
           2765      2.06665e+7 
           2775      2.32898e+7 
           2785      1.60086e+7 
           2795       6.0454e+6 
           2805      8.01098e+6 
           2815      2.17935e+7 
           2825      2.84333e+7 
           2835      2.76935e+7 
           2845       2.5993e+7 
           2855      2.12222e+7 
           2865      2.85073e+7 
           2875       2.7926e+7 
           2885      2.75988e+7 
           2895      2.64303e+7 
           2910      3.21506e+7 
           2930      2.93681e+7 
           2950      2.96617e+7 
           2970      3.20115e+7 
           2990      3.17389e+7 
           3010      3.28046e+7 
           3030      3.25104e+7 
           3050      3.22195e+7 
           3070      3.25342e+7 
           3090      3.34464e+7 
           3110      3.21179e+7 
           3130      3.20317e+7 
           3150      3.29157e+7 
           3170      3.24027e+7 
           3190      2.96709e+7 
           3210      3.13811e+7 
           3230      2.90203e+7 
           3250      3.12258e+7 
           3270      3.24791e+7 
           3290      3.24373e+7 
           3310      3.32823e+7 
           3330       3.2282e+7 
           3350       3.1553e+7 
           3370      3.09304e+7 
           3390      3.15441e+7 
           3410      3.17658e+7 
           3430      3.19078e+7 
           3450      3.17937e+7 
           3470      3.13188e+7 
           3490      3.12794e+7 
           3510      3.20768e+7 
           3530      3.16236e+7 
           3550      3.31157e+7 
           3570      3.07889e+7 
           3590      3.05023e+7 
           3610      3.07666e+7 
           3630      3.08259e+7 
           3640       3.0199e+7 
           3650      3.23582e+7 
           3670      3.19813e+7 
           3690      3.08774e+7 
           3710      3.06658e+7 
           3730      2.92791e+7 
           3750      3.39934e+7 
           3770      3.64486e+7 
           3790      4.41219e+7 
           3810      5.11005e+7 
           3830      3.98459e+7 
           3850      5.59712e+7 
           3870      6.33605e+7 
           3890      3.77972e+7 
           3910      6.19525e+7 
           3930      4.37614e+7 
           3950       5.8461e+7 
           3970      3.21612e+7 
           3990      6.25291e+7 
           4010      7.38366e+7 
           4030      7.41935e+7 
           4050      7.30124e+7 
           4070      6.91376e+7 
           4090       5.4239e+7 
           4110      4.19793e+7 
           4130      6.56901e+7 
           4150      7.22966e+7 
           4170      7.20207e+7 
           4190      7.19292e+7 
           4210      7.20849e+7 
           4230      6.91289e+7 
           4250      7.03047e+7 
           4270      6.59161e+7 
           4290      6.63817e+7 
           4310      5.91253e+7 
           4330      4.61706e+7 
           4350      3.93702e+7 
           4370      6.09829e+7 
           4390      6.32688e+7 
           4410      6.31534e+7 
           4430      6.10295e+7 
           4450      6.31475e+7 
           4470      6.37357e+7 
           4490       6.1919e+7 
           4510      6.52217e+7 
           4530      6.14582e+7 
           4550      6.11302e+7 
           4570      6.34175e+7 
           4590      6.03984e+7 
           4610      6.18857e+7 
           4630       5.9709e+7 
           4650      6.01791e+7 
           4670      6.03195e+7 
           4690      5.70058e+7 
           4710      5.38787e+7 
           4730      5.77919e+7 
           4750      5.74866e+7 
           4770      5.63449e+7 
           4790      5.55306e+7 
           4810      5.33795e+7 
           4830      5.06695e+7 
           4850      3.83272e+7 
           4870      3.06093e+7 
           4890      4.69334e+7 
           4910      5.03913e+7 
           4930      5.02871e+7 
           4950      5.17128e+7 
           4970      5.21164e+7 
           4990      4.95057e+7 
           5010       4.7088e+7 
           5030      4.87468e+7 
           5050       4.7837e+7 
           5070      4.92264e+7 
           5090      4.84811e+7 
           5110      4.85828e+7 
           5130      4.72714e+7 
           5150      4.59149e+7 
           5170        4.485e+7 
           5190       4.4084e+7 
           5210      4.47899e+7 
           5230      4.44576e+7 
           5250      4.48891e+7 
           5270      4.03263e+7 
           5290      4.38278e+7 
           5310      4.32604e+7 
           5330      3.99606e+7 
           5350      4.24238e+7 
           5370      4.23931e+7 
           5390      4.17511e+7 
           5410      4.00155e+7 
           5430      4.08737e+7 
           5450      4.13784e+7 
           5470      4.06974e+7 
           5490      3.98164e+7 
           5510      3.97401e+7 
           5530       3.9532e+7 
           5550      3.95228e+7 
           5570      3.88036e+7 
           5590      3.81659e+7 
           5610      3.82989e+7 
           5630       3.8385e+7 
           5650      3.77361e+7 
           5670      3.67075e+7 
           5690      3.69153e+7 
           5710      3.65081e+7 
           5730      3.72531e+7 
           5750      3.60498e+7 
           5770      3.61466e+7 
           5790       3.5631e+7 
           5810      3.55434e+7 
           5830      3.53975e+7 
           5850      3.48653e+7 
           5870       3.4592e+7 
           5890      3.36756e+7 
           5910      3.40218e+7 
           5930      3.36995e+7 
           5950       3.3302e+7 
           5970      3.31575e+7 
           5990      3.26267e+7 
           6010      3.20011e+7 
           6030      3.18161e+7 
           6050      3.16946e+7 
           6070      3.18552e+7 
           6090      3.13101e+7 
           6110      3.08279e+7 
           6130      3.00807e+7 
           6150      2.91294e+7 
           6170      2.91387e+7 
           6190      3.00755e+7 
           6210      2.97434e+7 
           6230       2.9247e+7 
           6250      2.81738e+7 
           6270      2.91472e+7 
           6290      2.89421e+7 
           6310      2.81875e+7 
           6330      2.80068e+7 
           6350      2.71617e+7 
           6370      2.72272e+7 
           6390      2.74713e+7 
           6410      2.67711e+7 
           6430      2.69019e+7 
           6450      2.58814e+7 
           6470       2.6159e+7 
           6490      2.55964e+7 
           6510      2.53212e+7 
           6530      2.41158e+7 
           6550      2.04695e+7 
           6570      1.63635e+7 
           6590      2.25718e+7 
           6610      2.41668e+7 
           6630      2.44883e+7 
           6650      2.44903e+7 
           6670      2.42598e+7 
           6690      2.42429e+7 
           6710      2.40392e+7 
           6730      2.37959e+7 
           6750      2.31896e+7 
           6770      2.35418e+7 
           6790      2.32955e+7 
           6810      2.30996e+7 
           6830      2.28958e+7 
           6850      2.26604e+7 
           6870      2.26252e+7 
           6890      2.24194e+7 
           6910      2.22244e+7 
           6930      2.20045e+7 
           6950      2.18788e+7 
           6970      2.16402e+7 
           6990      2.15651e+7 
           7010      2.07208e+7 
           7030      2.11001e+7 
           7050      2.09806e+7 
           7070      2.08191e+7 
           7090      2.06891e+7 
           7110      1.99766e+7 
           7130      2.01597e+7 
           7150      1.99719e+7 
           7170      1.97302e+7 
           7190      1.95499e+7 
           7210      1.95771e+7 
           7230      1.93493e+7 
           7250       1.9009e+7 
           7270      1.92039e+7 
           7290      1.87918e+7 
           7310      1.88794e+7 
           7330      1.87156e+7 
           7350      1.86668e+7 
           7370      1.85247e+7 
           7390      1.82066e+7 
           7410      1.79232e+7 
           7430       1.7659e+7 
           7450      1.76301e+7 
           7470      1.75116e+7 
           7490      1.74887e+7 
           7510      1.74758e+7 
           7530      1.73731e+7 
           7550      1.73129e+7 
           7570      1.70717e+7 
           7590      1.70302e+7 
           7610       1.6838e+7 
           7630       1.6801e+7 
           7650      1.65588e+7 
           7670      1.62542e+7 
           7690      1.61181e+7 
           7710       1.6219e+7 
           7730       1.6105e+7 
           7750      1.59053e+7 
           7770      1.53418e+7 
           7790      1.58535e+7 
           7810      1.56056e+7 
           7830        1.544e+7 
           7850      1.52251e+7 
           7870      1.51618e+7 
           7890      1.49416e+7 
           7910      1.48559e+7 
           7930      1.45204e+7 
           7950       1.4485e+7 
           7970      1.47635e+7 
           7990      1.43675e+7 
           8010      1.45096e+7 
           8030      1.42995e+7 
           8050      1.42361e+7 
           8070      1.41546e+7 
           8090      1.40571e+7 
           8110      1.39959e+7 
           8130      1.39716e+7 
           8150      1.38588e+7 
           8170      1.37566e+7 
           8190      1.33374e+7 
           8210      1.31367e+7 
           8230      1.30968e+7 
           8250      1.31004e+7 
           8270      1.33213e+7 
           8290      1.31842e+7 
           8310      1.29588e+7 
           8330      1.28331e+7 
           8350      1.28387e+7 
           8370      1.28791e+7 
           8390       1.2723e+7 
           8410      1.26812e+7 
           8430      1.24907e+7 
           8450      1.21072e+7 
           8470      1.22806e+7 
           8490      1.21047e+7 
           8510      1.15214e+7 
           8530      1.19122e+7 
           8550      1.02028e+7 
           8570      1.20393e+7 
           8590      1.14737e+7 
           8610      1.12904e+7 
           8630      1.18734e+7 
           8650      1.14113e+7 
           8670      9.40058e+6 
           8690      1.11618e+7 
           8710      1.17909e+7 
           8730      1.12664e+7 
           8750      9.41645e+6 
           8770      1.09106e+7 
           8790      1.16665e+7 
           8810      1.17024e+7 
           8830      1.12243e+7 
           8850      1.01115e+7 
           8870      8.78751e+6 
           8890      1.07377e+7 
           8910      1.12922e+7 
           8930      1.13116e+7 
           8950      1.15193e+7 
           8970      1.11599e+7 
           8990      1.05514e+7 
           9010      8.47617e+6 
           9030      9.21854e+6 
           9050        1.059e+7 
           9070      1.06798e+7 
           9090      1.05827e+7 
           9110      1.08681e+7 
           9130      1.09728e+7 
           9150       1.0956e+7 
           9170      1.07142e+7 
           9190      1.03046e+7 
           9210      9.35782e+6 
           9230      7.38133e+6 
           9250      8.91118e+6 
           9270      9.60972e+6 
           9290      1.03096e+7 
           9310      1.04053e+7 
           9330      1.03239e+7 
           9350      1.03664e+7 
