# Kurucz ODFNEW /NOVER (2003)
# teff = 23000 K (value for the effective temperature for the model. Temperatures are given in K)
# logg = 4 log(cm/s2) (value for Log(G) for the model.)
# meta = -1.5  (value for the Metallicity for the model.)
# lh = 1.25  (l/Hp where l is the  mixing length of the convective element and Hp is the pressure scale height)
# vtur = 2 km/s (Microturbulence velocity)
# alpha = 0.4  (Alpha)
#
# column 1: WAVELENGTH (ANGSTROM), Wavelength in Angstrom
# column 2: FLUX (ERG/CM2/S/A), Flux in erg/cm2/s/A
          147.2     1.63322e-16 
            151     8.64705e-16 
          155.2     4.99631e-15 
          158.8     2.09837e-14 
            162      7.1506e-14 
            166     3.10888e-13 
          170.3     1.40237e-12 
          173.4     3.97271e-12 
          176.8     1.19526e-11 
          180.2      3.4537e-11 
          181.7     5.44756e-11 
          186.1     1.98997e-10 
            191     7.85823e-10 
          193.9      1.71415e-9 
          198.4      5.49562e-9 
          201.8      1.28033e-8 
            205      2.76543e-8 
          210.5      9.82586e-8 
          216.2      3.41126e-7 
          219.8      7.23335e-7 
            223      1.38165e-6 
          226.8      2.90745e-6 
            230      3.37262e-5 
            234       8.0195e-5 
            240     0.000211793 
          246.5     0.000573623 
          252.4      0.00136929 
          256.8      0.00245257 
            260      0.00389742 
            264      0.00658585 
          268.5       0.0116454 
          273.5       0.0214236 
          278.5       0.0386326 
            284       0.0721268 
            290        0.138167 
            296        0.257135 
            301        0.423005 
            308        0.806324 
            318          2.0492 
            328         4.74939 
            338         10.5496 
            348         22.2229 
            357          42.116 
            366         77.1818 
            375         135.639 
            385         247.199 
            395         434.256 
            405         741.447 
            414         1174.88 
            422         1727.65 
            430         2501.41 
            441          4092.9 
            451         6257.12 
            460          8979.9 
            470         13206.8 
            480         19053.9 
            490         27072.4 
            500         37868.8 
            506          284538 
            512          887659 
            520      1.09947e+6 
            530      1.50303e+6 
            540      1.64826e+6 
            550      2.31879e+6 
            560      2.75351e+6 
            570      3.36227e+6 
            580      3.40871e+6 
            590      4.48201e+6 
            600      5.46111e+6 
            610      6.47041e+6 
            620      7.39817e+6 
            630      8.59283e+6 
            640      9.52953e+6 
            650      1.08364e+7 
            658      1.23792e+7 
            665      1.34318e+7 
            675      1.47426e+7 
            685      1.64341e+7 
            695      1.90562e+7 
            705      2.09343e+7 
            716      2.36455e+7 
            726      2.58884e+7 
            735      2.84229e+7 
            745      3.15929e+7 
            755      3.46741e+7 
            765      3.77891e+7 
            775      4.14642e+7 
            785      4.51684e+7 
            795      4.85825e+7 
            805      5.26029e+7 
            815      5.64409e+7 
            825      6.11346e+7 
            835      6.40233e+7 
            845      6.96556e+7 
            855      7.42096e+7 
            865      7.96986e+7 
            875      8.52879e+7 
            885      9.11924e+7 
            895       9.6752e+7 
            905      1.00803e+8 
            915      1.59543e+8 
            925        1.121e+9 
            935      3.71582e+9 
            945     1.13362e+10 
            955     1.60531e+10 
            965     2.09461e+10 
            975      6.88882e+9 
            985     2.32404e+10 
            995     2.21291e+10 
           1005     2.30691e+10 
           1015     2.10754e+10 
           1025      6.75953e+9 
           1035      1.7941e+10 
           1045     2.36561e+10 
           1055     2.28547e+10 
           1065     2.04111e+10 
           1075     2.17332e+10 
           1085     2.00809e+10 
           1095     2.14706e+10 
           1105     1.99119e+10 
           1115     1.97091e+10 
           1125     1.82357e+10 
           1135     1.95119e+10 
           1145     1.80048e+10 
           1155     1.86037e+10 
           1165      1.8488e+10 
           1175     1.54517e+10 
           1185     1.76721e+10 
           1195     1.60833e+10 
           1205     1.23898e+10 
           1215      4.81762e+9 
           1225     1.33987e+10 
           1235     1.56447e+10 
           1245     1.56355e+10 
           1255     1.52065e+10 
           1265     1.49764e+10 
           1275     1.50852e+10 
           1285     1.47272e+10 
           1295     1.26772e+10 
           1305     1.27686e+10 
           1315     1.38892e+10 
           1325     1.33555e+10 
           1335      1.2815e+10 
           1345     1.28365e+10 
           1355     1.28687e+10 
           1365     1.22911e+10 
           1375     1.21217e+10 
           1385     1.20176e+10 
           1395      1.0859e+10 
           1405     1.10092e+10 
           1415       1.125e+10 
           1425     1.10216e+10 
           1435     1.09474e+10 
           1442     1.09573e+10 
           1447     1.08085e+10 
           1455     1.06084e+10 
           1465     1.03293e+10 
           1475     1.01669e+10 
           1485      9.94037e+9 
           1495       9.7598e+9 
           1505      9.33929e+9 
           1512      9.10257e+9 
           1517      9.15644e+9 
           1525      9.04053e+9 
           1535      8.53588e+9 
           1545      8.56494e+9 
           1555       8.2406e+9 
           1565      8.36219e+9 
           1575      8.36706e+9 
           1585      8.21532e+9 
           1595      8.14062e+9 
           1605      7.87176e+9 
           1615      7.73326e+9 
           1625      7.68574e+9 
           1635      7.66939e+9 
           1645      7.47048e+9 
           1655      7.39588e+9 
           1665      7.34046e+9 
           1672      7.16283e+9 
           1677       7.2749e+9 
           1685       7.1549e+9 
           1695      6.97042e+9 
           1705      6.79494e+9 
           1715       6.5945e+9 
           1725      6.51206e+9 
           1735      6.47451e+9 
           1745      6.35845e+9 
           1755      6.33243e+9 
           1765      6.07815e+9 
           1775      6.01846e+9 
           1785      5.96541e+9 
           1795      5.95525e+9 
           1805      5.89395e+9 
           1815       5.6955e+9 
           1825      5.67375e+9 
           1835      5.56967e+9 
           1845      5.27683e+9 
           1855      5.18188e+9 
           1865       5.1947e+9 
           1875      5.22516e+9 
           1885      4.92665e+9 
           1895      4.71491e+9 
           1905      4.87274e+9 
           1915       4.6946e+9 
           1925      4.58302e+9 
           1935      4.64645e+9 
           1945      4.65944e+9 
           1955      4.40451e+9 
           1967      4.50303e+9 
           1976      4.56206e+9 
           1984       4.3723e+9 
           1995       4.2485e+9 
           2005      4.28682e+9 
           2015      4.27731e+9 
           2025      4.27716e+9 
           2035      4.11905e+9 
           2045      4.07238e+9 
           2055      3.94524e+9 
           2065      3.94644e+9 
           2074      4.00089e+9 
           2078      3.87444e+9 
           2085      3.88071e+9 
           2095      3.76444e+9 
           2105      3.79116e+9 
           2115      3.75776e+9 
           2125      3.75443e+9 
           2135      3.68884e+9 
           2145       3.6004e+9 
           2155      3.59627e+9 
           2165      3.55493e+9 
           2175      3.49986e+9 
           2185      3.45913e+9 
           2195      3.42636e+9 
           2205      3.37885e+9 
           2215      3.33697e+9 
           2225      3.28223e+9 
           2235      3.23905e+9 
           2245      3.21205e+9 
           2255      3.16014e+9 
           2265      3.13244e+9 
           2275      3.09187e+9 
           2285      3.05909e+9 
           2295       2.9787e+9 
           2305      2.97886e+9 
           2315       2.9321e+9 
           2325      2.89891e+9 
           2335      2.84581e+9 
           2345      2.81419e+9 
           2355      2.79584e+9 
           2365      2.75628e+9 
           2375      2.72184e+9 
           2385      2.68449e+9 
           2395      2.65476e+9 
           2405      2.62329e+9 
           2415      2.58533e+9 
           2425       2.5695e+9 
           2435      2.53071e+9 
           2445      2.50406e+9 
           2455      2.47933e+9 
           2465      2.44729e+9 
           2475      2.41882e+9 
           2485      2.38957e+9 
           2495      2.31036e+9 
           2505      2.33115e+9 
           2513      2.28227e+9 
           2518      2.29146e+9 
           2525      2.27516e+9 
           2535      2.24816e+9 
           2545      2.20337e+9 
           2555      2.19758e+9 
           2565      2.16817e+9 
           2575      2.15369e+9 
           2585      2.12922e+9 
           2595      2.10479e+9 
           2605      2.09443e+9 
           2615      2.07277e+9 
           2625      2.05083e+9 
           2635      2.02292e+9 
           2645      2.00464e+9 
           2655      1.97973e+9 
           2665       1.9509e+9 
           2675      1.93055e+9 
           2685      1.92278e+9 
           2695      1.88333e+9 
           2705      1.87885e+9 
           2715      1.85839e+9 
           2725       1.8221e+9 
           2735      1.81852e+9 
           2745      1.78855e+9 
           2755      1.77246e+9 
           2765      1.74315e+9 
           2775      1.74226e+9 
           2785      1.72224e+9 
           2795      1.67073e+9 
           2805      1.67349e+9 
           2815      1.66885e+9 
           2825      1.63331e+9 
           2835      1.61262e+9 
           2845      1.61559e+9 
           2855      1.59847e+9 
           2865       1.5827e+9 
           2875      1.56592e+9 
           2885      1.54997e+9 
           2895       1.5337e+9 
           2910      1.50912e+9 
           2930      1.47679e+9 
           2950      1.43748e+9 
           2970      1.41925e+9 
           2990      1.38942e+9 
           3010      1.36166e+9 
           3030      1.33586e+9 
           3050      1.30953e+9 
           3070      1.28381e+9 
           3090      1.25545e+9 
           3110      1.23382e+9 
           3130      1.21103e+9 
           3150      1.18784e+9 
           3170      1.16439e+9 
           3190      1.13247e+9 
           3210      1.12045e+9 
           3230      1.09886e+9 
           3250      1.07828e+9 
           3270      1.05949e+9 
           3290      1.03815e+9 
           3310      1.02073e+9 
           3330      1.00191e+9 
           3350      9.81662e+8 
           3370      9.65633e+8 
           3390      9.48241e+8 
           3410      9.31221e+8 
           3430       9.0989e+8 
           3450      8.90256e+8 
           3470      8.77207e+8 
           3490      8.61676e+8 
           3510      8.49805e+8 
           3530      8.36757e+8 
           3550      8.22602e+8 
           3570      8.12642e+8 
           3590      7.93499e+8 
           3610      7.81523e+8 
           3630      7.66788e+8 
           3640       7.6548e+8 
           3650      7.51706e+8 
           3670        7.425e+8 
           3690      7.25564e+8 
           3710      7.01778e+8 
           3730      6.76997e+8 
           3750      7.23213e+8 
           3770      7.28177e+8 
           3790      7.70318e+8 
           3810      8.05255e+8 
           3830      6.99557e+8 
           3850      8.29936e+8 
           3870      8.35868e+8 
           3890      6.62882e+8 
           3910      8.23339e+8 
           3930      8.09053e+8 
           3950      7.96824e+8 
           3970      6.16309e+8 
           3990      7.64718e+8 
           4010      7.60366e+8 
           4030      7.15746e+8 
           4050      7.43146e+8 
           4070      7.25353e+8 
           4090       6.6774e+8 
           4110      5.80658e+8 
           4130      6.80577e+8 
           4150      6.75936e+8 
           4170      6.70638e+8 
           4190      6.61633e+8 
           4210      6.51451e+8 
           4230      6.40568e+8 
           4250      6.29485e+8 
           4270      6.16329e+8 
           4290      6.08303e+8 
           4310      5.95025e+8 
           4330       5.3766e+8 
           4350      4.88728e+8 
           4370      5.65659e+8 
           4390      5.45524e+8 
           4410      5.52423e+8 
           4430      5.42128e+8 
           4450       5.3622e+8 
           4470      5.04093e+8 
           4490      5.18243e+8 
           4510      5.11972e+8 
           4530      5.03936e+8 
           4550      4.95822e+8 
           4570      4.88028e+8 
           4590       4.8087e+8 
           4610      4.73675e+8 
           4630      4.66551e+8 
           4650      4.57982e+8 
           4670      4.52392e+8 
           4690      4.46058e+8 
           4710      4.32853e+8 
           4730      4.32265e+8 
           4750      4.25477e+8 
           4770      4.20393e+8 
           4790      4.14148e+8 
           4810      4.07259e+8 
           4830      3.99032e+8 
           4850      3.67496e+8 
           4870      3.27156e+8 
           4890      3.80856e+8 
           4910      3.78025e+8 
           4930      3.64331e+8 
           4950      3.68511e+8 
           4970      3.63538e+8 
           4990      3.58345e+8 
           5010      3.48376e+8 
           5030      3.48306e+8 
           5050      3.40633e+8 
           5070      3.38713e+8 
           5090      3.33977e+8 
           5110      3.29334e+8 
           5130      3.24695e+8 
           5150      3.20232e+8 
           5170       3.1597e+8 
           5190      3.11665e+8 
           5210      3.07153e+8 
           5230       3.0328e+8 
           5250      2.99183e+8 
           5270      2.95153e+8 
           5290      2.91202e+8 
           5310      2.87316e+8 
           5330      2.83453e+8 
           5350      2.79614e+8 
           5370      2.76032e+8 
           5390       2.7238e+8 
           5410      2.68799e+8 
           5430      2.65187e+8 
           5450      2.61761e+8 
           5470      2.58364e+8 
           5490       2.5506e+8 
           5510       2.5176e+8 
           5530      2.48513e+8 
           5550      2.45331e+8 
           5570      2.42176e+8 
           5590      2.39108e+8 
           5610       2.3603e+8 
           5630      2.33084e+8 
           5650      2.29962e+8 
           5670      2.27065e+8 
           5690      2.24226e+8 
           5710      2.21549e+8 
           5730        2.188e+8 
           5750      2.16016e+8 
           5770      2.13424e+8 
           5790      2.10783e+8 
           5810      2.08185e+8 
           5830      2.05617e+8 
           5850      2.03113e+8 
           5870       1.9445e+8 
           5890      1.97812e+8 
           5910      1.95785e+8 
           5930      1.93417e+8 
           5950      1.91044e+8 
           5970      1.88804e+8 
           5990      1.86516e+8 
           6010      1.84317e+8 
           6030      1.82123e+8 
           6050      1.79963e+8 
           6070      1.77839e+8 
           6090      1.75738e+8 
           6110      1.73681e+8 
           6130      1.71648e+8 
           6150      1.69587e+8 
           6170      1.67668e+8 
           6190      1.65721e+8 
           6210      1.63805e+8 
           6230      1.61911e+8 
           6250      1.60027e+8 
           6270      1.58213e+8 
           6290      1.56399e+8 
           6310      1.54595e+8 
           6330      1.52858e+8 
           6350      1.50991e+8 
           6370      1.49348e+8 
           6390      1.47722e+8 
           6410       1.4605e+8 
           6430      1.44432e+8 
           6450      1.42814e+8 
           6470      1.41194e+8 
           6490      1.39627e+8 
           6510      1.38006e+8 
           6530      1.35899e+8 
           6550      1.29714e+8 
           6570      1.14935e+8 
           6590      1.30495e+8 
           6610      1.30387e+8 
           6630      1.29251e+8 
           6650      1.27929e+8 
           6670      1.25249e+8 
           6690      1.23929e+8 
           6710      1.23836e+8 
           6730      1.22494e+8 
           6750       1.2119e+8 
           6770      1.19892e+8 
           6790      1.18565e+8 
           6810       1.1735e+8 
           6830      1.16098e+8 
           6850      1.14875e+8 
           6870      1.13665e+8 
           6890      1.12466e+8 
           6910      1.11288e+8 
           6930      1.10113e+8 
           6950      1.08973e+8 
           6970      1.07844e+8 
           6990      1.06712e+8 
           7010      1.05613e+8 
           7030      1.04525e+8 
           7050      1.03448e+8 
           7070      1.00693e+8 
           7090      1.01339e+8 
           7110      1.00301e+8 
           7130      9.92791e+7 
           7150      9.82676e+7 
           7170      9.72512e+7 
           7190      9.62882e+7 
           7210        9.532e+7 
           7230      9.40798e+7 
           7250      9.34038e+7 
           7270      9.24772e+7 
           7290      9.07866e+7 
           7310      9.06289e+7 
           7330      8.97424e+7 
           7350      8.88502e+7 
           7370      8.79733e+7 
           7390      8.71045e+7 
           7410      8.62508e+7 
           7430      8.53981e+7 
           7450      8.45804e+7 
           7470      8.37433e+7 
           7490      8.29408e+7 
           7510      8.20988e+7 
           7530      8.13377e+7 
           7550      8.05505e+7 
           7570       7.9777e+7 
           7590       7.9004e+7 
           7610      7.82445e+7 
           7630      7.74983e+7 
           7650      7.67589e+7 
           7670      7.60261e+7 
           7690      7.53063e+7 
           7710      7.45929e+7 
           7730      7.38858e+7 
           7750      7.31851e+7 
           7770      7.24282e+7 
           7790      7.18208e+7 
           7810      7.10891e+7 
           7830      7.04806e+7 
           7850      6.98896e+7 
           7870      6.92429e+7 
           7890      6.85352e+7 
           7910      6.79783e+7 
           7930      6.73423e+7 
           7950      6.65688e+7 
           7970      6.59149e+7 
           7990      6.53197e+7 
           8010      6.47121e+7 
           8030      6.41214e+7 
           8050      6.35532e+7 
           8070      6.30303e+7 
           8090      6.23276e+7 
           8110       6.1866e+7 
           8130      6.13682e+7 
           8150      6.07214e+7 
           8170      6.02946e+7 
           8190      5.96635e+7 
           8210      5.89484e+7 
           8230      5.86066e+7 
           8250      5.81125e+7 
           8270      5.72754e+7 
           8290      5.70323e+7 
           8310      5.65508e+7 
           8330      5.60298e+7 
           8350      5.52376e+7 
           8370      5.49363e+7 
           8390      5.45463e+7 
           8410      5.40528e+7 
           8430       5.3505e+7 
           8450      5.26611e+7 
           8470      5.24637e+7 
           8490      5.20145e+7 
           8510      5.13542e+7 
           8530      5.12073e+7 
           8550      4.98132e+7 
           8570      5.10264e+7 
