# Kurucz ODFNEW /NOVER (2003)
# teff = 22000 K (value for the effective temperature for the model. Temperatures are given in K)
# logg = 4.5 log(cm/s2) (value for Log(G) for the model.)
# meta = -2.5  (value for the Metallicity for the model.)
# lh = 1.25  (l/Hp where l is the  mixing length of the convective element and Hp is the pressure scale height)
# vtur = 2 km/s (Microturbulence velocity)
# alpha = 0.4  (Alpha)
#
# column 1: WAVELENGTH (ANGSTROM), Wavelength in Angstrom
# column 2: FLUX (ERG/CM2/S/A), Flux in erg/cm2/s/A
          147.2     4.10132e-18 
            151     2.45789e-17 
          155.2     1.61174e-16 
          158.8     7.48112e-16 
            162      2.7702e-15 
            166     1.32723e-14 
          170.3     6.59476e-14 
          173.4     1.99519e-13 
          176.8     6.42778e-13 
          180.2     1.98145e-12 
          181.7     3.21251e-12 
          186.1     1.26747e-11 
            191     5.42288e-11 
          193.9     1.23749e-10 
          198.4     4.24224e-10 
          201.8      1.03703e-9 
            205       2.3398e-9 
          210.5      8.92889e-9 
          216.2      3.32293e-8 
          219.8      7.34977e-8 
            223      1.45566e-7 
          226.8      3.19308e-7 
            230      9.15616e-7 
            234       2.0992e-6 
            240      6.21636e-6 
          246.5      1.89077e-5 
          252.4      4.94594e-5 
          256.8      9.74468e-5 
            260     0.000159118 
            264     0.000286196 
          268.5     0.000541587 
          273.5      0.00107219 
          278.5      0.00207093 
            284      0.00415231 
            290      0.00859221 
            296       0.0172241 
            301       0.0300952 
            308       0.0633376 
            318         0.17461 
            328        0.448816 
            338         1.08679 
            348         2.49314 
            357         5.04251 
            366         9.83137 
            375         18.5098 
            385         36.0171 
            395         67.5469 
            405         122.485 
            414         203.755 
            422         313.934 
            430         475.201 
            441         818.096 
            451         1306.73 
            460         1953.62 
            470         2993.88 
            480         4497.53 
            490         6632.85 
            500         9611.12 
            506         61624.9 
            512          189382 
            520          242951 
            530          352857 
            540          392814 
            550          560573 
            560          688048 
            570          847334 
            580          879502 
            590      1.17207e+6 
            600      1.48076e+6 
            610      1.76681e+6 
            620      2.08103e+6 
            630      2.44803e+6 
            640      2.83642e+6 
            650      3.31468e+6 
            658      3.72488e+6 
            665      4.10503e+6 
            675      4.67678e+6 
            685      5.31319e+6 
            695      6.10699e+6 
            705      6.89433e+6 
            716      7.84681e+6 
            726      8.79576e+6 
            735      9.76578e+6 
            745      1.08948e+7 
            755      1.21064e+7 
            765       1.3389e+7 
            775       1.4797e+7 
            785      1.62839e+7 
            795      1.78516e+7 
            805       1.9538e+7 
            815      2.13092e+7 
            825       2.3204e+7 
            835       2.4921e+7 
            845      2.72623e+7 
            855       2.9403e+7 
            865      3.17737e+7 
            875      3.41781e+7 
            885      3.67314e+7 
            895      3.93574e+7 
            905      4.17274e+7 
            915      6.71181e+7 
            925      3.22192e+8 
            935      1.03595e+9 
            945      4.87288e+9 
            955      9.72778e+9 
            965     1.36395e+10 
            975      4.54711e+9 
            985     1.90728e+10 
            995     1.96302e+10 
           1005     1.99598e+10 
           1015     1.58371e+10 
           1025      2.72056e+9 
           1035     1.35612e+10 
           1045     1.90475e+10 
           1055      1.9007e+10 
           1065     1.79316e+10 
           1075     1.82307e+10 
           1085     1.70629e+10 
           1095     1.76927e+10 
           1105     1.68192e+10 
           1115     1.65867e+10 
           1125     1.57779e+10 
           1135     1.59664e+10 
           1145      1.5237e+10 
           1155     1.53053e+10 
           1165     1.50076e+10 
           1175     1.35553e+10 
           1185     1.42045e+10 
           1195      1.2836e+10 
           1205       9.7909e+9 
           1215      1.99789e+9 
           1225      9.02167e+9 
           1235     1.21637e+10 
           1245     1.23565e+10 
           1255     1.21573e+10 
           1265      1.1918e+10 
           1275     1.19082e+10 
           1285     1.16725e+10 
           1295     1.08713e+10 
           1305      1.0756e+10 
           1315     1.09806e+10 
           1325     1.06365e+10 
           1335     1.02653e+10 
           1345     1.02988e+10 
           1355     1.01582e+10 
           1365      9.90398e+9 
           1375      9.74191e+9 
           1385      9.57739e+9 
           1395      9.20439e+9 
           1405      9.09483e+9 
           1415      9.01358e+9 
           1425      8.87602e+9 
           1435      8.71835e+9 
           1442      8.62358e+9 
           1447      8.54034e+9 
           1455      8.41198e+9 
           1465        8.254e+9 
           1475      8.10697e+9 
           1485      7.95373e+9 
           1495      7.81363e+9 
           1505      7.62598e+9 
           1512      7.55257e+9 
           1517       7.4991e+9 
           1525      7.38045e+9 
           1535      7.18436e+9 
           1545      7.10902e+9 
           1555      6.95711e+9 
           1565      6.89079e+9 
           1575      6.78853e+9 
           1585       6.6721e+9 
           1595      6.56708e+9 
           1605      6.41487e+9 
           1615       6.3052e+9 
           1625      6.23853e+9 
           1635      6.14399e+9 
           1645      6.00033e+9 
           1655      5.94028e+9 
           1665      5.85595e+9 
           1672      5.73008e+9 
           1677      5.74673e+9 
           1685      5.67225e+9 
           1695      5.57458e+9 
           1705      5.47879e+9 
           1715      5.38038e+9 
           1725      5.30058e+9 
           1735      5.22651e+9 
           1745      5.14265e+9 
           1755      5.07345e+9 
           1765      4.94236e+9 
           1775      4.90237e+9 
           1785      4.83447e+9 
           1795      4.77245e+9 
           1805      4.70214e+9 
           1815      4.62474e+9 
           1825      4.56119e+9 
           1835      4.49226e+9 
           1845       4.3992e+9 
           1855      4.28566e+9 
           1865      4.23929e+9 
           1875      4.22698e+9 
           1885      4.13157e+9 
           1895      4.03636e+9 
           1905       4.0352e+9 
           1915      3.93636e+9 
           1925      3.88184e+9 
           1935      3.84917e+9 
           1945      3.81607e+9 
           1955       3.7242e+9 
           1967      3.70139e+9 
           1976      3.66765e+9 
           1984       3.6075e+9 
           1995      3.52741e+9 
           2005      3.51678e+9 
           2015      3.47695e+9 
           2025      3.43516e+9 
           2035      3.38101e+9 
           2045      3.33523e+9 
           2055      3.25673e+9 
           2065      3.22836e+9 
           2074      3.21652e+9 
           2078       3.1668e+9 
           2085      3.16221e+9 
           2095      3.10686e+9 
           2105      3.08209e+9 
           2115      3.04644e+9 
           2125      3.01083e+9 
           2135      2.97054e+9 
           2145      2.93014e+9 
           2155      2.89514e+9 
           2165      2.85825e+9 
           2175       2.8212e+9 
           2185      2.78644e+9 
           2195      2.75227e+9 
           2205      2.71713e+9 
           2215      2.68313e+9 
           2225      2.64864e+9 
           2235       2.6164e+9 
           2245      2.58469e+9 
           2255      2.55197e+9 
           2265       2.5217e+9 
           2275      2.49055e+9 
           2285      2.46087e+9 
           2295      2.42237e+9 
           2305      2.40112e+9 
           2315      2.37156e+9 
           2325      2.34354e+9 
           2335      2.31349e+9 
           2345      2.28421e+9 
           2355      2.26043e+9 
           2365      2.23213e+9 
           2375      2.20649e+9 
           2385      2.17843e+9 
           2395       2.1539e+9 
           2405      2.12919e+9 
           2415      2.10378e+9 
           2425      2.08166e+9 
           2435      2.05678e+9 
           2445      2.03318e+9 
           2455      2.01072e+9 
           2465      1.98706e+9 
           2475       1.9647e+9 
           2485      1.94239e+9 
           2495      1.90857e+9 
           2505      1.89853e+9 
           2513      1.87835e+9 
           2518      1.87048e+9 
           2525      1.85563e+9 
           2535       1.8344e+9 
           2545      1.81233e+9 
           2555      1.79511e+9 
           2565      1.77444e+9 
           2575      1.75614e+9 
           2585      1.73678e+9 
           2595       1.7176e+9 
           2605      1.71182e+9 
           2615      1.69379e+9 
           2625      1.67539e+9 
           2635      1.65467e+9 
           2645      1.63728e+9 
           2655      1.61711e+9 
           2665      1.59598e+9 
           2675      1.57728e+9 
           2685      1.57115e+9 
           2695      1.54198e+9 
           2705      1.53786e+9 
           2715      1.52144e+9 
           2725      1.49228e+9 
           2735       1.4896e+9 
           2745      1.47201e+9 
           2755      1.45698e+9 
           2765       1.4301e+9 
           2775      1.42842e+9 
           2785      1.41347e+9 
           2795      1.38457e+9 
           2805      1.37864e+9 
           2815      1.37043e+9 
           2825      1.34068e+9 
           2835       1.3334e+9 
           2845      1.32879e+9 
           2855      1.31534e+9 
           2865      1.30209e+9 
           2875       1.2889e+9 
           2885      1.27599e+9 
           2895      1.26319e+9 
           2910      1.24424e+9 
           2930      1.21933e+9 
           2950       1.1864e+9 
           2970      1.17227e+9 
           2990      1.14935e+9 
           3010      1.12718e+9 
           3030      1.10554e+9 
           3050      1.08441e+9 
           3070      1.06377e+9 
           3090      1.04349e+9 
           3110        1.024e+9 
           3130      1.00599e+9 
           3150      9.87185e+8 
           3170      9.68769e+8 
           3190      9.42592e+8 
           3210      9.33113e+8 
           3230      9.15888e+8 
           3250      8.99086e+8 
           3270      8.83859e+8 
           3290      8.66811e+8 
           3310      8.52516e+8 
           3330      8.37346e+8 
           3350      8.21134e+8 
           3370      8.08066e+8 
           3390      7.93938e+8 
           3410      7.80116e+8 
           3430       7.6384e+8 
           3450      7.48236e+8 
           3470      7.37415e+8 
           3490      7.24781e+8 
           3510      7.13823e+8 
           3530      7.03067e+8 
           3550      6.91311e+8 
           3570      6.83321e+8 
           3590      6.67807e+8 
           3610      6.58578e+8 
           3630      6.45908e+8 
           3640      6.44781e+8 
           3650      6.38934e+8 
           3670      6.31318e+8 
           3690      6.19319e+8 
           3710      5.97962e+8 
           3730      5.71773e+8 
           3750       5.9682e+8 
           3770      5.98483e+8 
           3790      6.43509e+8 
           3810      6.80475e+8 
           3830      5.81316e+8 
           3850      7.12031e+8 
           3870      7.31303e+8 
           3890       5.4592e+8 
           3910      7.22134e+8 
           3930      7.20998e+8 
           3950      7.00942e+8 
           3970      5.09512e+8 
           3990      6.69945e+8 
           4010      6.75414e+8 
           4030      6.28621e+8 
           4050      6.63081e+8 
           4070       6.4771e+8 
           4090      5.74617e+8 
           4110      4.89665e+8 
           4130      6.05019e+8 
           4150      6.03467e+8 
           4170      6.00292e+8 
           4190      5.92837e+8 
           4210      5.83222e+8 
           4230       5.7374e+8 
           4250      5.64411e+8 
           4270      5.54632e+8 
           4290      5.44376e+8 
           4310      5.30675e+8 
           4330      4.61606e+8 
           4350      4.16339e+8 
           4370      5.03459e+8 
           4390      4.84319e+8 
           4410      4.95549e+8 
           4430       4.8594e+8 
           4450      4.80821e+8 
           4470      4.46097e+8 
           4490      4.65285e+8 
           4510      4.59259e+8 
           4530      4.52221e+8 
           4550      4.45306e+8 
           4570      4.38531e+8 
           4590      4.31928e+8 
           4610      4.25441e+8 
           4630      4.19049e+8 
           4650      4.12664e+8 
           4670      4.06615e+8 
           4690      4.00586e+8 
           4710      3.88904e+8 
           4730      3.88804e+8 
           4750      3.83049e+8 
           4770      3.77576e+8 
           4790      3.71753e+8 
           4810       3.6515e+8 
           4830      3.56465e+8 
           4850      3.17704e+8 
           4870       2.7955e+8 
           4890      3.38901e+8 
           4910      3.38693e+8 
           4930      3.25332e+8 
           4950      3.31488e+8 
           4970      3.26889e+8 
           4990      3.22291e+8 
           5010       3.1324e+8 
           5030      3.13344e+8 
           5050       3.0679e+8 
           5070      3.04756e+8 
           5090      3.00548e+8 
           5110      2.96425e+8 
           5130      2.92358e+8 
           5150      2.88373e+8 
           5170      2.84454e+8 
           5190      2.80602e+8 
           5210      2.76786e+8 
           5230      2.73103e+8 
           5250      2.69441e+8 
           5270       2.6584e+8 
           5290      2.62299e+8 
           5310       2.5883e+8 
           5330      2.55406e+8 
           5350      2.52026e+8 
           5370      2.48728e+8 
           5390      2.45472e+8 
           5410      2.42271e+8 
           5430      2.39109e+8 
           5450      2.36026e+8 
           5470      2.32981e+8 
           5490      2.29987e+8 
           5510      2.27042e+8 
           5530      2.24134e+8 
           5550      2.21286e+8 
           5570      2.18473e+8 
           5590      2.15707e+8 
           5610      2.12987e+8 
           5630      2.10312e+8 
           5650      2.07657e+8 
           5670       2.0507e+8 
           5690      2.02525e+8 
           5710      2.00011e+8 
           5730      1.97539e+8 
           5750      1.95107e+8 
           5770      1.92705e+8 
           5790      1.90342e+8 
           5810      1.88018e+8 
           5830      1.85733e+8 
           5850      1.83474e+8 
           5870      1.74901e+8 
           5890      1.78667e+8 
           5910       1.7691e+8 
           5930      1.74797e+8 
           5950      1.72698e+8 
           5970      1.70644e+8 
           5990      1.68614e+8 
           6010      1.66618e+8 
           6030      1.64654e+8 
           6050      1.62713e+8 
           6070      1.60804e+8 
           6090      1.58927e+8 
           6110      1.57071e+8 
           6130      1.55246e+8 
           6150      1.53441e+8 
           6170      1.51666e+8 
           6190      1.49921e+8 
           6210      1.48204e+8 
           6230      1.46507e+8 
           6250      1.44828e+8 
           6270      1.43177e+8 
           6290      1.41554e+8 
           6310      1.39949e+8 
           6330       1.3837e+8 
           6350       1.3679e+8 
           6370      1.35263e+8 
           6390      1.33763e+8 
           6410      1.32269e+8 
           6430      1.30801e+8 
           6450      1.29348e+8 
           6470      1.27911e+8 
           6490      1.26488e+8 
           6510      1.24726e+8 
           6530      1.22594e+8 
           6550      1.14909e+8 
           6570      1.00735e+8 
           6590      1.17439e+8 
           6610      1.17876e+8 
           6630      1.16995e+8 
           6650      1.15969e+8 
           6670       1.1336e+8 
           6690      1.12179e+8 
           6710      1.12272e+8 
           6730      1.11074e+8 
           6750      1.09895e+8 
           6770      1.08729e+8 
           6790      1.07575e+8 
           6810       1.0644e+8 
           6830      1.05317e+8 
           6850      1.04213e+8 
           6870       1.0312e+8 
           6890      1.02047e+8 
           6910      1.00983e+8 
           6930      9.99306e+7 
           6950      9.88961e+7 
           6970      9.78718e+7 
           6990      9.68654e+7 
           7010      9.58688e+7 
           7030      9.48896e+7 
           7050      9.39199e+7 
           7070      9.14071e+7 
           7090      9.20163e+7 
           7110       9.1082e+7 
           7130      9.01568e+7 
           7150      8.92478e+7 
           7170      8.83329e+7 
           7190      8.74632e+7 
           7210      8.65873e+7 
           7230      8.56981e+7 
           7250      8.48676e+7 
           7270      8.40235e+7 
           7290      8.25069e+7 
           7310      8.23592e+7 
           7330      8.15528e+7 
           7350      8.07539e+7 
           7370      7.99625e+7 
           7390      7.91784e+7 
           7410      7.84017e+7 
           7430       7.7639e+7 
           7450      7.68969e+7 
           7470      7.61481e+7 
           7490      7.54129e+7 
           7510      7.46644e+7 
           7530      7.39693e+7 
           7550      7.32607e+7 
           7570      7.25586e+7 
           7590      7.18628e+7 
           7610      7.11798e+7 
           7630       7.0503e+7 
           7650      6.98323e+7 
           7670       6.9174e+7 
           7690      6.85216e+7 
           7710      6.78751e+7 
           7730      6.72406e+7 
           7750      6.66117e+7 
           7770       6.5976e+7 
           7790      6.53707e+7 
           7810      6.47337e+7 
           7830      6.41637e+7 
           7850      6.36294e+7 
           7870      6.30448e+7 
           7890      6.24351e+7 
           7910       6.1891e+7 
           7930      6.13216e+7 
           7950      6.07571e+7 
           7970      6.01442e+7 
           7990      5.96074e+7 
           8010      5.90283e+7 
           8030      5.84834e+7 
           8050      5.79542e+7 
           8070      5.74579e+7 
           8090      5.68357e+7 
           8110      5.64051e+7 
           8130      5.59335e+7 
           8150      5.53735e+7 
           8170      5.49526e+7 
           8190      5.43914e+7 
           8210      5.38618e+7 
           8230       5.3523e+7 
           8250      5.30706e+7 
           8270      5.23758e+7 
           8290      5.21168e+7 
           8310      5.16857e+7 
           8330      5.12108e+7 
           8350      5.05357e+7 
           8370      5.02531e+7 
           8390      4.98891e+7 
           8410      4.94465e+7 
           8430      4.89709e+7 
           8450      4.82466e+7 
           8470      4.80678e+7 
           8490      4.75782e+7 
           8510      4.71052e+7 
           8530      4.67675e+7 
           8550      4.58306e+7 
           8570      4.64269e+7 
