# Kurucz ODFNEW /NOVER (2003)
# teff = 30000 K (value for the effective temperature for the model. Temperatures are given in K)
# logg = 4.5 log(cm/s2) (value for Log(G) for the model.)
# meta = 0  (value for the Metallicity for the model.)
# lh = 1.25  (l/Hp where l is the  mixing length of the convective element and Hp is the pressure scale height)
# vtur = 2 km/s (Microturbulence velocity)
# alpha = 0  (Alpha)
#
# column 1: WAVELENGTH (ANGSTROM), Wavelength in Angstrom
# column 2: FLUX (ERG/CM2/S/A), Flux in erg/cm2/s/A
          147.2      5.38027e-9 
            151      1.69769e-8 
          155.2      5.69089e-8 
          158.8      1.53217e-7 
            162      3.57594e-7 
            166      9.87677e-7 
          170.3      2.79448e-6 
          173.4      5.75439e-6 
          176.8      1.23414e-5 
          180.2       2.5758e-5 
          181.7      3.53293e-5 
          186.1      8.69497e-5 
            191     0.000226331 
          193.9     0.000389974 
          198.4     0.000879897 
          201.8      0.00158969 
            205      0.00272572 
          210.5      0.00663945 
          216.2       0.0159284 
          219.8       0.0270679 
            223       0.0427448 
          226.8       0.0730986 
            230         14.4254 
            234         31.5173 
            240         57.8868 
          246.5         111.824 
          252.4         198.767 
          256.8         282.595 
            260         449.294 
            264         654.368 
          268.5         989.635 
          273.5         1478.01 
          278.5          2119.7 
            284         3973.98 
            290          6087.7 
            296         8971.92 
            301         12263.5 
            308         21595.7 
            318         45036.6 
            328         74555.2 
            338          132629 
            348          218502 
            357          642145 
            366      1.22008e+6 
            375      1.61761e+6 
            385      2.44894e+6 
            395      4.33242e+6 
            405       5.7098e+6 
            414      7.84864e+6 
            422      9.43262e+6 
            430      1.20337e+7 
            441      1.59148e+7 
            451      1.94754e+7 
            460      2.29652e+7 
            470      2.91901e+7 
            480      3.60068e+7 
            490      4.38691e+7 
            500      5.32439e+7 
            506      1.57616e+8 
            512      1.03433e+9 
            520      1.00668e+9 
            530      9.94276e+8 
            540      9.42314e+8 
            550      1.22823e+9 
            560      1.42667e+9 
            570      1.52141e+9 
            580      1.40277e+9 
            590      1.60486e+9 
            600      1.52241e+9 
            610      1.75051e+9 
            620      1.95333e+9 
            630      1.95056e+9 
            640       1.8452e+9 
            650      1.86831e+9 
            658       1.9106e+9 
            665      2.12403e+9 
            675      2.20783e+9 
            685       2.0157e+9 
            695      2.58721e+9 
            705      2.37358e+9 
            716      2.79893e+9 
            726      2.77096e+9 
            735      2.80198e+9 
            745      2.98356e+9 
            755      3.02408e+9 
            765      3.14014e+9 
            775      3.25425e+9 
            785      3.40822e+9 
            795      3.42959e+9 
            805      3.41229e+9 
            815      3.41414e+9 
            825      3.62252e+9 
            835      3.11488e+9 
            845       3.5624e+9 
            855      3.56159e+9 
            865      3.70529e+9 
            875      3.81593e+9 
            885      3.97578e+9 
            895       4.0598e+9 
            905      3.98686e+9 
            915      4.47684e+9 
            925     1.84696e+10 
            935     3.52384e+10 
            945     5.85032e+10 
            955     6.70577e+10 
            965      8.0247e+10 
            975     2.28501e+10 
            985     6.71355e+10 
            995     6.14776e+10 
           1005     6.68734e+10 
           1015     6.85608e+10 
           1025      4.2373e+10 
           1035      6.1502e+10 
           1045     7.76693e+10 
           1055     7.25146e+10 
           1065     6.04574e+10 
           1075     6.53329e+10 
           1085     5.91643e+10 
           1095       6.425e+10 
           1105     6.04729e+10 
           1115      5.9384e+10 
           1125     4.76588e+10 
           1135     5.73388e+10 
           1145     5.31894e+10 
           1155     5.24983e+10 
           1165     5.10485e+10 
           1175     3.21112e+10 
           1185     4.66249e+10 
           1195       4.484e+10 
           1205     3.95352e+10 
           1215     2.73036e+10 
           1225     4.08782e+10 
           1235     4.46426e+10 
           1245     4.28565e+10 
           1255     4.25351e+10 
           1265     4.33743e+10 
           1275     4.42771e+10 
           1285     4.39443e+10 
           1295     3.78139e+10 
           1305     3.89554e+10 
           1315     4.24828e+10 
           1325      4.0183e+10 
           1335     3.89407e+10 
           1345     3.86054e+10 
           1355     3.81403e+10 
           1365     3.60246e+10 
           1375     3.49386e+10 
           1385     3.37662e+10 
           1395     2.54337e+10 
           1405     2.68383e+10 
           1415     3.08104e+10 
           1425      2.8489e+10 
           1435     2.99192e+10 
           1442     3.01766e+10 
           1447     2.97597e+10 
           1455     2.85169e+10 
           1465     2.70581e+10 
           1475     2.73159e+10 
           1485     2.70432e+10 
           1495     2.62477e+10 
           1505      2.4483e+10 
           1512     2.28578e+10 
           1517     2.32737e+10 
           1525      2.3129e+10 
           1535     1.97156e+10 
           1545     1.82634e+10 
           1555     1.78127e+10 
           1565     1.94992e+10 
           1575     2.05737e+10 
           1585     2.05803e+10 
           1595     2.03838e+10 
           1605     1.97971e+10 
           1615     1.89172e+10 
           1625     1.91288e+10 
           1635     1.96438e+10 
           1645     1.94753e+10 
           1655     1.94965e+10 
           1665      1.9335e+10 
           1672     1.81803e+10 
           1677     2.05141e+10 
           1685     1.94944e+10 
           1695     1.86068e+10 
           1705     1.81935e+10 
           1715     1.73608e+10 
           1725     1.67435e+10 
           1735     1.72794e+10 
           1745     1.70226e+10 
           1755     1.68891e+10 
           1765     1.66354e+10 
           1775     1.58147e+10 
           1785     1.60365e+10 
           1795     1.59694e+10 
           1805     1.59825e+10 
           1815     1.49309e+10 
           1825     1.50607e+10 
           1835     1.47862e+10 
           1845     1.35639e+10 
           1855     1.38483e+10 
           1865     1.39786e+10 
           1875     1.39681e+10 
           1885     1.27717e+10 
           1895     1.20655e+10 
           1905     1.27292e+10 
           1915     1.21939e+10 
           1925     1.14555e+10 
           1935     1.21766e+10 
           1945      1.2457e+10 
           1955     1.11766e+10 
           1967     1.18703e+10 
           1976      1.2375e+10 
           1984     1.15337e+10 
           1995     1.13151e+10 
           2005     1.15314e+10 
           2015     1.14933e+10 
           2025     1.16254e+10 
           2035     1.08037e+10 
           2045     1.08082e+10 
           2055      9.72372e+9 
           2065      9.57765e+9 
           2074      9.94487e+9 
           2078      9.39624e+9 
           2085      9.71542e+9 
           2095      9.61088e+9 
           2105     1.00656e+10 
           2115      1.0065e+10 
           2125     1.00547e+10 
           2135      9.86159e+9 
           2145      9.50293e+9 
           2155      9.68264e+9 
           2165      9.47445e+9 
           2175      9.41938e+9 
           2185      9.18817e+9 
           2195      9.24851e+9 
           2205      9.13692e+9 
           2215      8.93559e+9 
           2225      8.80218e+9 
           2235      8.62555e+9 
           2245      8.59671e+9 
           2255      8.35913e+9 
           2265      8.36773e+9 
           2275       8.2572e+9 
           2285      8.12304e+9 
           2295      7.38077e+9 
           2305      7.80825e+9 
           2315      7.69525e+9 
           2325      7.61665e+9 
           2335      7.46933e+9 
           2345      7.46879e+9 
           2355      7.35115e+9 
           2365       7.2588e+9 
           2375      7.09562e+9 
           2385      6.95677e+9 
           2395      6.89223e+9 
           2405      6.82656e+9 
           2415      6.72687e+9 
           2425      6.67342e+9 
           2435      6.51706e+9 
           2445      6.47206e+9 
           2455      6.41319e+9 
           2465      6.32654e+9 
           2475      6.22201e+9 
           2485      6.09285e+9 
           2495      5.03781e+9 
           2505      5.86231e+9 
           2513      5.62943e+9 
           2518      5.76533e+9 
           2525      5.81406e+9 
           2535      5.76002e+9 
           2545      5.58839e+9 
           2555      5.56124e+9 
           2565      5.50015e+9 
           2575      5.44701e+9 
           2585      5.38628e+9 
           2595      5.31923e+9 
           2605      5.27075e+9 
           2615      5.18545e+9 
           2625      5.13804e+9 
           2635      5.07687e+9 
           2645      4.99192e+9 
           2655      4.94113e+9 
           2665      4.79543e+9 
           2675      4.75206e+9 
           2685      4.75117e+9 
           2695      4.59517e+9 
           2705      4.53345e+9 
           2715      4.50728e+9 
           2725      4.47207e+9 
           2735      4.40982e+9 
           2745      4.36885e+9 
           2755      4.33118e+9 
           2765      4.25118e+9 
           2775      4.26105e+9 
           2785      4.18975e+9 
           2795      4.04718e+9 
           2805      4.06142e+9 
           2815      4.05871e+9 
           2825      3.98348e+9 
           2835      3.87622e+9 
           2845      3.90924e+9 
           2855      3.84082e+9 
           2865      3.80593e+9 
           2875      3.76186e+9 
           2885       3.7174e+9 
           2895      3.66902e+9 
           2910      3.58583e+9 
           2930      3.53182e+9 
           2950      3.41885e+9 
           2970      3.36348e+9 
           2990      3.27599e+9 
           3010      3.16981e+9 
           3030      3.12368e+9 
           3050      3.07009e+9 
           3070      3.01742e+9 
           3090      2.90183e+9 
           3110      2.88087e+9 
           3130      2.80395e+9 
           3150      2.75144e+9 
           3170      2.68411e+9 
           3190      2.62186e+9 
           3210      2.57785e+9 
           3230      2.51631e+9 
           3250      2.47545e+9 
           3270      2.41499e+9 
           3290      2.36627e+9 
           3310      2.31981e+9 
           3330      2.26475e+9 
           3350      2.21996e+9 
           3370      2.17378e+9 
           3390      2.13939e+9 
           3410      2.09607e+9 
           3430      2.05066e+9 
           3450      2.00175e+9 
           3470      1.96438e+9 
           3490      1.92415e+9 
           3510      1.88978e+9 
           3530      1.86035e+9 
           3550      1.82226e+9 
           3570      1.79422e+9 
           3590      1.74268e+9 
           3610       1.7155e+9 
           3630      1.68156e+9 
           3640      1.67725e+9 
           3650      1.63584e+9 
           3670      1.61447e+9 
           3690      1.58418e+9 
           3710      1.52508e+9 
           3730      1.47444e+9 
           3750      1.47512e+9 
           3770       1.4404e+9 
           3790      1.49099e+9 
           3810      1.53462e+9 
           3830      1.36336e+9 
           3850      1.54802e+9 
           3870      1.53035e+9 
           3890      1.28277e+9 
           3910      1.52211e+9 
           3930      1.48327e+9 
           3950      1.45252e+9 
           3970      1.18723e+9 
           3990      1.40589e+9 
           4010      1.39701e+9 
           4030      1.32549e+9 
           4050      1.35443e+9 
           4070      1.29392e+9 
           4090      1.20592e+9 
           4110      1.08734e+9 
           4130       1.2336e+9 
           4150      1.22419e+9 
           4170      1.21792e+9 
           4190       1.1984e+9 
           4210      1.18394e+9 
           4230      1.16127e+9 
           4250      1.12909e+9 
           4270      1.10048e+9 
           4290      1.08425e+9 
           4310      1.05218e+9 
           4330      9.71075e+8 
           4350      8.96446e+8 
           4370      1.00108e+9 
           4390      9.85371e+8 
           4410      9.82517e+8 
           4430      9.74952e+8 
           4450      9.57019e+8 
           4470      9.11293e+8 
           4490      9.27075e+8 
           4510      9.15778e+8 
           4530      9.02569e+8 
           4550      8.86681e+8 
           4570      8.73255e+8 
           4590      8.57365e+8 
           4610      8.39004e+8 
           4630      8.24355e+8 
           4650      7.92992e+8 
           4670       8.0012e+8 
           4690      7.89457e+8 
           4710      7.64137e+8 
           4730      7.67994e+8 
           4750      7.54828e+8 
           4770      7.50449e+8 
           4790      7.37857e+8 
           4810      7.23055e+8 
           4830      7.07099e+8 
           4850       6.6116e+8 
           4870      5.96746e+8 
           4890      6.75879e+8 
           4910      6.69322e+8 
           4930      6.46728e+8 
           4950       6.4837e+8 
           4970      6.43879e+8 
           4990      6.33659e+8 
           5010      6.10374e+8 
           5030      6.13734e+8 
           5050      6.01792e+8 
           5070      5.97625e+8 
           5090      5.87863e+8 
           5110      5.78726e+8 
           5130      5.68224e+8 
           5150      5.60652e+8 
           5170      5.54025e+8 
           5190      5.47022e+8 
           5210      5.39125e+8 
           5230      5.31456e+8 
           5250      5.23738e+8 
           5270      5.15701e+8 
           5290      5.09345e+8 
           5310      5.02041e+8 
           5330      4.95297e+8 
           5350      4.88126e+8 
           5370      4.81701e+8 
           5390      4.74606e+8 
           5410      4.67757e+8 
           5430      4.62094e+8 
           5450      4.55538e+8 
           5470      4.49329e+8 
           5490      4.43212e+8 
           5510       4.3768e+8 
           5530      4.31218e+8 
           5550      4.26049e+8 
           5570       4.2019e+8 
           5590      4.14572e+8 
           5610      4.09168e+8 
           5630      4.03889e+8 
           5650      3.97872e+8 
           5670       3.9139e+8 
           5690       3.8421e+8 
           5710      3.81119e+8 
           5730      3.76616e+8 
           5750      3.70696e+8 
           5770      3.67384e+8 
           5790      3.62546e+8 
           5810       3.5799e+8 
           5830       3.5269e+8 
           5850      3.48774e+8 
           5870      3.34867e+8 
           5890      3.37722e+8 
           5910       3.3516e+8 
           5930      3.30771e+8 
           5950      3.26603e+8 
           5970      3.23827e+8 
           5990      3.18781e+8 
           6010      3.15494e+8 
           6030      3.11126e+8 
           6050      3.07569e+8 
           6070      3.04104e+8 
           6090      3.00424e+8 
           6110      2.96684e+8 
           6130      2.93197e+8 
           6150      2.88704e+8 
           6170      2.85519e+8 
           6190      2.82438e+8 
           6210      2.79225e+8 
           6230      2.75931e+8 
           6250      2.72248e+8 
           6270      2.69144e+8 
           6290      2.66083e+8 
           6310      2.62771e+8 
           6330      2.59844e+8 
           6350      2.56482e+8 
           6370      2.53769e+8 
           6390      2.50688e+8 
           6410      2.47769e+8 
           6430      2.44954e+8 
           6450      2.42043e+8 
           6470       2.3856e+8 
           6490      2.36001e+8 
           6510       2.3338e+8 
           6530      2.29744e+8 
           6550      2.20686e+8 
           6570      1.96888e+8 
           6590      2.20071e+8 
           6610      2.19991e+8 
           6630      2.18023e+8 
           6650      2.15487e+8 
           6670      2.11097e+8 
           6690       2.0881e+8 
           6710      2.08412e+8 
           6730      2.05662e+8 
           6750      2.03866e+8 
           6770      2.01652e+8 
           6790      1.98366e+8 
           6810      1.97016e+8 
           6830      1.94814e+8 
           6850      1.92827e+8 
           6870      1.90692e+8 
           6890      1.88364e+8 
           6910      1.86116e+8 
           6930      1.84557e+8 
           6950       1.8256e+8 
           6970      1.80599e+8 
           6990      1.78626e+8 
           7010      1.76681e+8 
           7030      1.74701e+8 
           7050      1.72885e+8 
           7070      1.68487e+8 
           7090      1.69246e+8 
           7110      1.66946e+8 
           7130      1.65248e+8 
           7150      1.63927e+8 
           7170      1.62178e+8 
           7190      1.60505e+8 
           7210      1.58818e+8 
           7230       1.5549e+8 
           7250      1.55243e+8 
           7270      1.53891e+8 
           7290      1.51134e+8 
           7310      1.50682e+8 
           7330       1.4911e+8 
           7350      1.47609e+8 
           7370      1.46109e+8 
           7390      1.44609e+8 
           7410      1.43136e+8 
           7430      1.41664e+8 
           7450      1.40225e+8 
           7470      1.38341e+8 
           7490      1.37301e+8 
           7510      1.35956e+8 
           7530      1.34557e+8 
           7550      1.33303e+8 
           7570      1.31962e+8 
           7590       1.3062e+8 
           7610      1.29167e+8 
           7630      1.28025e+8 
           7650      1.26758e+8 
           7670      1.25521e+8 
           7690      1.24258e+8 
           7710      1.23018e+8 
           7730      1.21764e+8 
           7750       1.2066e+8 
           7770      1.19366e+8 
           7790      1.18319e+8 
           7810      1.17115e+8 
           7830      1.16032e+8 
           7850      1.14977e+8 
           7870      1.13706e+8 
           7890      1.12489e+8 
           7910      1.11589e+8 
           7930      1.10494e+8 
           7950      1.09486e+8 
           7970      1.08391e+8 
           7990      1.07401e+8 
           8010      1.06325e+8 
           8030      1.05276e+8 
           8050      1.04323e+8 
           8070      1.03356e+8 
           8090      1.02241e+8 
           8110      1.00895e+8 
           8130      1.00496e+8 
           8150      9.94705e+7 
           8170      9.86624e+7 
           8190      9.73443e+7 
           8210      9.63284e+7 
           8230      9.53769e+7 
           8250      9.48486e+7 
           8270      9.32612e+7 
           8290      9.30365e+7 
           8310      9.22674e+7 
           8330      9.13905e+7 
           8350      9.01806e+7 
           8370       8.9578e+7 
           8390      8.89427e+7 
           8410      8.80888e+7 
           8430      8.73002e+7 
           8450      8.59588e+7 
           8470      8.57109e+7 
           8490      8.47588e+7 
           8510      8.39447e+7 
           8530      8.32253e+7 
           8550      8.21355e+7 
           8570      8.22502e+7 
           8590      7.98611e+7 
