# Kurucz ODFNEW /NOVER (2003)
# teff = 8750 K (value for the effective temperature for the model. Temperatures are given in K)
# logg = 3.5 log(cm/s2) (value for Log(G) for the model.)
# meta = -2.5  (value for the Metallicity for the model.)
# lh = 1.25  (l/Hp where l is the  mixing length of the convective element and Hp is the pressure scale height)
# vtur = 2 km/s (Microturbulence velocity)
# alpha = 0  (Alpha)
#
# column 1: WAVELENGTH (ANGSTROM), Wavelength in Angstrom
# column 2: FLUX (ERG/CM2/S/A), Flux in erg/cm2/s/A
          268.5     1.15085e-23 
          273.5     9.34946e-23 
          278.5     4.13574e-22 
            284     1.91144e-21 
            290      9.3936e-21 
            296      4.3101e-20 
            301     1.46424e-19 
            308     7.57597e-19 
            318      6.9643e-18 
            328     5.56844e-17 
            338     3.92083e-16 
            348     2.45967e-15 
            357     1.17244e-14 
            366     5.16626e-14 
            375     2.11352e-13 
            385     9.33303e-13 
            395     3.81088e-12 
            405     1.44787e-11 
            414     4.54614e-11 
            422     1.20414e-10 
            430     3.07251e-10 
            441      1.05154e-9 
            451      3.04623e-9 
            460      7.61364e-9 
            470      2.01838e-8 
            480      5.12656e-8 
            490      1.25151e-7 
            500       2.9412e-7 
            506      5.80523e-7 
            512       1.0177e-6 
            520      1.89842e-6 
            530      4.04894e-6 
            540      8.28663e-6 
            550      1.66471e-5 
            560      3.24268e-5 
            570      6.16194e-5 
            580     0.000113612 
            590     0.000207585 
            600     0.000368818 
            610     0.000642242 
            620      0.00109716 
            630      0.00184036 
            640      0.00303425 
            650      0.00492022 
            658      0.00716315 
            665      0.00987091 
            675       0.0154123 
            685       0.0237306 
            695       0.0360472 
            705       0.0540591 
            716       0.0832374 
            726         0.12173 
            735        0.169751 
            745        0.243139 
            755        0.344725 
            765        0.483908 
            775        0.672829 
            785        0.927052 
            795         1.26611 
            805         1.71452 
            815         2.30283 
            825         3.06891 
            835         4.05915 
            845         5.32995 
            855         6.95199 
            865         9.00556 
            875         11.5903 
            885         14.8234 
            895         18.8429 
            905         23.8119 
            915         54.3479 
            925         214.271 
            935         363.282 
            945         677.039 
            955         1088.07 
            965         1440.29 
            975         989.037 
            985         3007.62 
            995         4578.48 
           1005         4560.92 
           1015         3092.42 
           1025         1889.09 
           1035         4311.61 
           1045         8835.34 
           1055         35397.6 
           1065          280342 
           1075          828128 
           1085      1.51857e+6 
           1095      1.66744e+6 
           1105      3.07428e+6 
           1115      5.58507e+6 
           1125       4.8647e+6 
           1135      4.50505e+6 
           1145      2.61884e+6 
           1155      1.00879e+6 
           1165          223880 
           1175           42955 
           1185         63043.8 
           1195         21683.2 
           1205         15797.2 
           1215         8001.22 
           1225         17801.1 
           1235         31722.1 
           1245         34240.5 
           1255           58953 
           1265          157750 
           1275          691154 
           1285      3.06339e+6 
           1295      5.42689e+6 
           1305      8.64961e+6 
           1315      1.17405e+7 
           1325      1.57157e+7 
           1335      1.86669e+7 
           1345      2.24889e+7 
           1355      2.36089e+7 
           1365      2.57876e+7 
           1375      2.48699e+7 
           1385      2.26227e+7 
           1395      2.13239e+7 
           1405      2.93116e+7 
           1415      3.88842e+7 
           1425      4.11919e+7 
           1435      4.04569e+7 
           1442      4.43535e+7 
           1447      4.33332e+7 
           1455      4.55682e+7 
           1465      4.37827e+7 
           1475      4.53123e+7 
           1485      4.54592e+7 
           1495      4.62824e+7 
           1505      4.73094e+7 
           1512      4.74046e+7 
           1517      4.64214e+7 
           1525       4.6723e+7 
           1535      4.58412e+7 
           1545      4.55795e+7 
           1555      4.37768e+7 
           1565      3.92969e+7 
           1575      4.08421e+7 
           1585      4.06432e+7 
           1595       4.1037e+7 
           1605       3.9388e+7 
           1615      4.25734e+7 
           1625      4.34192e+7 
           1635      4.66891e+7 
           1645       4.9502e+7 
           1655      4.61286e+7 
           1665       5.1493e+7 
           1672      4.88959e+7 
           1677      4.99497e+7 
           1685      5.17295e+7 
           1695      5.01729e+7 
           1705      4.99023e+7 
           1715      5.12459e+7 
           1725      5.04863e+7 
           1735      5.16193e+7 
           1745      5.05345e+7 
           1755      5.12788e+7 
           1765      4.94478e+7 
           1775      5.06882e+7 
           1785      4.99681e+7 
           1795      5.07868e+7 
           1805      4.98879e+7 
           1815      4.95147e+7 
           1825       4.8796e+7 
           1835      4.89156e+7 
           1845      4.76708e+7 
           1855      4.83099e+7 
           1865      4.83055e+7 
           1875      4.83007e+7 
           1885      4.81553e+7 
           1895      4.80607e+7 
           1905      4.73644e+7 
           1915      4.73487e+7 
           1925      4.75311e+7 
           1935       4.6549e+7 
           1945        4.742e+7 
           1955      4.71569e+7 
           1967      4.70107e+7 
           1976      4.63307e+7 
           1984      4.61779e+7 
           1995      4.61036e+7 
           2005      4.53328e+7 
           2015      4.45741e+7 
           2025      4.45015e+7 
           2035      4.50532e+7 
           2045      4.48379e+7 
           2055      4.38629e+7 
           2065      4.38534e+7 
           2074      4.45921e+7 
           2078      4.45628e+7 
           2085      4.43559e+7 
           2095      4.40356e+7 
           2105       4.3909e+7 
           2115      4.36489e+7 
           2125      4.33517e+7 
           2135      4.26267e+7 
           2145      4.32676e+7 
           2155      4.28791e+7 
           2165      4.19607e+7 
           2175      4.19739e+7 
           2185      4.20459e+7 
           2195      4.26864e+7 
           2205      4.18127e+7 
           2215      4.06682e+7 
           2225      4.06611e+7 
           2235      4.18652e+7 
           2245      4.11268e+7 
           2255      4.02176e+7 
           2265      3.97568e+7 
           2275      4.07175e+7 
           2285       4.0792e+7 
           2295      4.01483e+7 
           2305      4.02708e+7 
           2315      3.99623e+7 
           2325      3.99775e+7 
           2335      3.94313e+7 
           2345      3.77968e+7 
           2355      3.92317e+7 
           2365      3.78775e+7 
           2375      3.86693e+7 
           2385      3.67581e+7 
           2395      3.82337e+7 
           2405      3.79568e+7 
           2415      3.79647e+7 
           2425      3.87087e+7 
           2435      3.80133e+7 
           2445      3.83005e+7 
           2455      3.83222e+7 
           2465      3.75624e+7 
           2475       3.7337e+7 
           2485       3.7602e+7 
           2495      3.71069e+7 
           2505      3.79892e+7 
           2513      3.72054e+7 
           2518      3.72022e+7 
           2525      3.64396e+7 
           2535      3.61867e+7 
           2545      3.63455e+7 
           2555      3.72931e+7 
           2565      3.69175e+7 
           2575      3.73802e+7 
           2585      3.74946e+7 
           2595      3.71581e+7 
           2605      3.67335e+7 
           2615      3.65032e+7 
           2625      3.65055e+7 
           2635      3.66875e+7 
           2645      3.79027e+7 
           2655      3.77332e+7 
           2665      3.70453e+7 
           2675      3.72527e+7 
           2685      3.74664e+7 
           2695      3.71246e+7 
           2705      3.71137e+7 
           2715      3.65362e+7 
           2725      3.65146e+7 
           2735      3.67658e+7 
           2745      3.53535e+7 
           2755      3.54417e+7 
           2765       3.6026e+7 
           2775      3.66777e+7 
           2785      3.65013e+7 
           2795      3.46795e+7 
           2805      3.57269e+7 
           2815      3.66787e+7 
           2825      3.65356e+7 
           2835      3.61049e+7 
           2845      3.60061e+7 
           2855      3.55477e+7 
           2865      3.57328e+7 
           2875      3.57859e+7 
           2885       3.5846e+7 
           2895      3.60047e+7 
           2910      3.60972e+7 
           2930      3.56008e+7 
           2950      3.54288e+7 
           2970      3.54854e+7 
           2990      3.53131e+7 
           3010      3.54039e+7 
           3030      3.53036e+7 
           3050      3.51601e+7 
           3070      3.49509e+7 
           3090      3.49177e+7 
           3110      3.47739e+7 
           3130      3.45782e+7 
           3150      3.44704e+7 
           3170       3.4396e+7 
           3190       3.4026e+7 
           3210      3.40746e+7 
           3230      3.38319e+7 
           3250      3.38587e+7 
           3270      3.38154e+7 
           3290      3.37136e+7 
           3310      3.36055e+7 
           3330      3.34188e+7 
           3350      3.31861e+7 
           3370      3.30856e+7 
           3390      3.29947e+7 
           3410      3.29587e+7 
           3430      3.28252e+7 
           3450      3.27116e+7 
           3470      3.25734e+7 
           3490      3.24578e+7 
           3510       3.2352e+7 
           3530      3.22343e+7 
           3550      3.21113e+7 
           3570      3.19624e+7 
           3590      3.18411e+7 
           3610      3.17148e+7 
           3630      3.15892e+7 
           3640       3.1524e+7 
           3650      3.16484e+7 
           3670       3.1447e+7 
           3690      3.02936e+7 
           3710      3.30744e+7 
           3730      3.59754e+7 
           3750      4.79374e+7 
           3770      5.14962e+7 
           3790      6.33753e+7 
           3810       7.5444e+7 
           3830      5.97316e+7 
           3850      8.44982e+7 
           3870      9.64632e+7 
           3890      5.08377e+7 
           3910        9.585e+7 
           3930      1.03107e+8 
           3950      9.48095e+7 
           3970      4.89744e+7 
           3990      8.95957e+7 
           4010      1.00946e+8 
           4030      1.01041e+8 
           4050      9.95494e+7 
           4070      9.52234e+7 
           4090      7.13683e+7 
           4110      5.36433e+7 
           4130      8.94199e+7 
           4150      9.31734e+7 
           4170      9.29296e+7 
           4190      9.20252e+7 
           4210      9.09255e+7 
           4230      8.97077e+7 
           4250      8.85129e+7 
           4270      8.71319e+7 
           4290      8.53041e+7 
           4310      8.10159e+7 
           4330      5.87552e+7 
           4350      4.95417e+7 
           4370       7.6954e+7 
           4390      7.98982e+7 
           4410      7.97989e+7 
           4430      7.91318e+7 
           4450      7.83061e+7 
           4470      7.74146e+7 
           4490      7.64462e+7 
           4510       7.5627e+7 
           4530      7.47092e+7 
           4550      7.37664e+7 
           4570      7.29435e+7 
           4590      7.20589e+7 
           4610      7.12365e+7 
           4630      7.03676e+7 
           4650      6.95597e+7 
           4670      6.87406e+7 
           4690      6.79192e+7 
           4710      6.70465e+7 
           4730      6.63072e+7 
           4750      6.54144e+7 
           4770      6.45475e+7 
           4790      6.35695e+7 
           4810      6.22164e+7 
           4830      5.91637e+7 
           4850      4.54894e+7 
           4870      3.66295e+7 
           4890      5.57167e+7 
           4910      5.84985e+7 
           4930       5.8575e+7 
           4950      5.82195e+7 
           4970      5.76878e+7 
           4990      5.71582e+7 
           5010      5.65377e+7 
           5030      5.59446e+7 
           5050      5.53206e+7 
           5070      5.47253e+7 
           5090      5.41274e+7 
           5110      5.35372e+7 
           5130       5.2953e+7 
           5150      5.23792e+7 
           5170      5.17351e+7 
           5190      5.12225e+7 
           5210      5.07051e+7 
           5230        5.015e+7 
           5250      4.96333e+7 
           5270      4.90891e+7 
           5290       4.8584e+7 
           5310      4.80637e+7 
           5330      4.75618e+7 
           5350      4.70686e+7 
           5370      4.65724e+7 
           5390      4.60886e+7 
           5410      4.56082e+7 
           5430      4.51374e+7 
           5450      4.46723e+7 
           5470       4.4214e+7 
           5490      4.37612e+7 
           5510      4.33138e+7 
           5530       4.2868e+7 
           5550      4.24361e+7 
           5570      4.20044e+7 
           5590       4.1579e+7 
           5610       4.1161e+7 
           5630      4.07478e+7 
           5650      4.03395e+7 
           5670      3.99359e+7 
           5690      3.95381e+7 
           5710      3.91449e+7 
           5730      3.87574e+7 
           5750      3.83754e+7 
           5770      3.79967e+7 
           5790      3.76245e+7 
           5810      3.72554e+7 
           5830      3.68916e+7 
           5850       3.6533e+7 
           5870      3.61653e+7 
           5890       3.5817e+7 
           5910      3.54822e+7 
           5930      3.51404e+7 
           5950      3.48035e+7 
           5970      3.44703e+7 
           5990      3.41407e+7 
           6010      3.38159e+7 
           6030      3.34945e+7 
           6050      3.31777e+7 
           6070      3.28654e+7 
           6090      3.25554e+7 
           6110      3.22498e+7 
           6130      3.19484e+7 
           6150      3.16484e+7 
           6170      3.13554e+7 
           6190      3.10647e+7 
           6210       3.0777e+7 
           6230      3.04923e+7 
           6250      3.02097e+7 
           6270      2.99349e+7 
           6290      2.96601e+7 
           6310      2.93891e+7 
           6330      2.91209e+7 
           6350      2.88518e+7 
           6370       2.8592e+7 
           6390      2.83358e+7 
           6410      2.80777e+7 
           6430      2.78222e+7 
           6450      2.75077e+7 
           6470      2.72255e+7 
           6490      2.69041e+7 
           6510      2.64741e+7 
           6530      2.56045e+7 
           6550      2.21669e+7 
           6570      1.78228e+7 
           6590      2.41489e+7 
           6610      2.51575e+7 
           6630      2.52313e+7 
           6650       2.5113e+7 
           6670      2.49389e+7 
           6690      2.47749e+7 
           6710      2.45747e+7 
           6730      2.43615e+7 
           6750      2.41512e+7 
           6770      2.39421e+7 
           6790      2.37359e+7 
           6810      2.35325e+7 
           6830      2.33303e+7 
           6850      2.31309e+7 
           6870      2.29333e+7 
           6890      2.27385e+7 
           6910      2.25455e+7 
           6930      2.23544e+7 
           6950      2.21651e+7 
           6970      2.19783e+7 
           6990      2.17934e+7 
           7010      2.16101e+7 
           7030      2.14294e+7 
           7050      2.12504e+7 
           7070      2.10731e+7 
           7090      2.08981e+7 
           7110      2.07226e+7 
           7130      2.05524e+7 
           7150      2.03831e+7 
           7170      2.02146e+7 
           7190      2.00483e+7 
           7210      1.98836e+7 
           7230      1.97212e+7 
           7250      1.95602e+7 
           7270      1.94007e+7 
           7290      1.92426e+7 
           7310       1.9086e+7 
           7330      1.89315e+7 
           7350      1.87784e+7 
           7370      1.86267e+7 
           7390       1.8477e+7 
           7410       1.8328e+7 
           7430       1.8181e+7 
           7450       1.8036e+7 
           7470      1.78917e+7 
           7490      1.77486e+7 
           7510      1.76081e+7 
           7530      1.74681e+7 
           7550      1.73301e+7 
           7570      1.71933e+7 
           7590      1.70577e+7 
           7610      1.69239e+7 
           7630      1.67907e+7 
           7650      1.66592e+7 
           7670      1.65289e+7 
           7690      1.64003e+7 
           7710      1.62723e+7 
           7730      1.61459e+7 
           7750      1.60207e+7 
           7770      1.58778e+7 
           7790       1.5774e+7 
           7810      1.56526e+7 
           7830      1.55321e+7 
           7850      1.54128e+7 
           7870      1.52938e+7 
           7890       1.5177e+7 
           7910      1.50624e+7 
           7930      1.49476e+7 
           7950      1.48337e+7 
           7970      1.47214e+7 
           7990      1.46089e+7 
           8010      1.44996e+7 
           8030      1.43907e+7 
           8050       1.4282e+7 
           8070      1.41749e+7 
           8090      1.40686e+7 
           8110      1.39632e+7 
           8130      1.38593e+7 
           8150      1.37556e+7 
           8170      1.36534e+7 
           8190      1.35514e+7 
           8210      1.34871e+7 
           8230      1.33949e+7 
           8250      1.33046e+7 
           8270      1.32177e+7 
           8290      1.31294e+7 
           8310       1.3039e+7 
           8330      1.29412e+7 
           8350      1.28441e+7 
           8370      1.27253e+7 
           8390      1.26074e+7 
           8410      1.24745e+7 
           8430      1.23995e+7 
           8450      1.23324e+7 
           8470      1.19261e+7 
           8490      1.23012e+7 
           8510      1.15573e+7 
           8530      1.23072e+7 
           8550      1.09428e+7 
           8570      1.24214e+7 
           8590      1.14165e+7 
           8610      1.10775e+7 
           8630      1.25538e+7 
           8650      1.19933e+7 
           8670       9.8346e+6 
           8690      1.23162e+7 
           8710      1.27404e+7 
           8730      1.21838e+7 
           8750      9.43958e+6 
           8770      1.15331e+7 
           8790      1.26051e+7 
           8810      1.27212e+7 
           8830      1.23848e+7 
           8850       1.0936e+7 
           8870      9.13801e+6 
           8890      1.16867e+7 
           8910      1.22873e+7 
           8930      1.23698e+7 
           8950      1.22911e+7 
           8970      1.20598e+7 
           8990      1.14119e+7 
           9010      8.98989e+6 
           9030      9.88707e+6 
           9050      1.14055e+7 
           9070      1.17097e+7 
           9090       1.1733e+7 
           9110      1.17038e+7 
           9130      1.16295e+7 
           9150      1.15238e+7 
           9170      1.13688e+7 
