# Kurucz ODFNEW /NOVER (2003)
# teff = 19000 K (value for the effective temperature for the model. Temperatures are given in K)
# logg = 5 log(cm/s2) (value for Log(G) for the model.)
# meta = 0.2  (value for the Metallicity for the model.)
# lh = 1.25  (l/Hp where l is the  mixing length of the convective element and Hp is the pressure scale height)
# vtur = 2 km/s (Microturbulence velocity)
# alpha = 0  (Alpha)
#
# column 1: WAVELENGTH (ANGSTROM), Wavelength in Angstrom
# column 2: FLUX (ERG/CM2/S/A), Flux in erg/cm2/s/A
          147.2     1.82037e-20 
            151     1.16151e-19 
          155.2     8.11968e-19 
          158.8      3.9577e-18 
            162     1.52678e-17 
            166     7.67964e-17 
          170.3     4.00305e-16 
          173.4     1.25344e-15 
          176.8      4.1809e-15 
          180.2      1.3328e-14 
          181.7     2.19123e-14 
          186.1     9.00934e-14 
            191      4.0265e-13 
          193.9     9.39008e-13 
          198.4     3.32919e-12 
          201.8     8.37092e-12 
            205     1.94286e-11 
          210.5     7.72856e-11 
          216.2     3.00401e-10 
          219.8     6.83036e-10 
            223      1.38248e-9 
          226.8      3.11801e-9 
            230      7.98182e-9 
            234      1.99132e-8 
            240      6.40917e-8 
          246.5      2.10839e-7 
          252.4      5.89992e-7 
          256.8      1.21714e-6 
            260      2.07201e-6 
            264      3.89643e-6 
          268.5      7.73397e-6 
          273.5      1.61128e-5 
          278.5      3.28074e-5 
            284      6.97166e-5 
            290     0.000152918 
            296     0.000324061 
            301     0.000593155 
            308      0.00132759 
            318      0.00401302 
            328       0.0111477 
            338       0.0294313 
            348       0.0729636 
            357        0.159646 
            366        0.334106 
            375         0.66658 
            385         1.38746 
            395         2.77045 
            405         5.34645 
            414         9.40197 
            422         15.1342 
            430         23.8955 
            441         43.8385 
            451         73.9157 
            460         115.572 
            470         186.267 
            480         293.453 
            490         453.864 
            500         688.119 
            506         6064.64 
            512         26882.6 
            520         34482.4 
            530         48254.6 
            540         58473.2 
            550         85574.2 
            560          107925 
            570          141763 
            580          157646 
            590          219057 
            600          275149 
            610          348401 
            620          415382 
            630          502230 
            640          571183 
            650          634038 
            658          803188 
            665          894064 
            675      1.03272e+6 
            685      1.19629e+6 
            695      1.44203e+6 
            705      1.64456e+6 
            716      1.91673e+6 
            726      2.17349e+6 
            735      2.42813e+6 
            745      2.80926e+6 
            755      3.19267e+6 
            765      3.60659e+6 
            775      4.07291e+6 
            785      4.57773e+6 
            795      5.03224e+6 
            805      5.57928e+6 
            815      6.12772e+6 
            825      6.85073e+6 
            835      7.32143e+6 
            845      8.10309e+6 
            855      8.87783e+6 
            865      9.77289e+6 
            875      1.07396e+7 
            885      1.18518e+7 
            895      1.28564e+7 
            905      1.34418e+7 
            915      2.13891e+7 
            925      7.47229e+7 
            935      1.54493e+8 
            945      5.19729e+8 
            955      1.51629e+9 
            965       2.2341e+9 
            975      5.03019e+8 
            985       4.0522e+9 
            995      4.29156e+9 
           1005      5.25804e+9 
           1015      3.68163e+9 
           1025      4.47934e+8 
           1035      2.24882e+9 
           1045      6.57364e+9 
           1055      7.06902e+9 
           1065      5.50102e+9 
           1075      7.01674e+9 
           1085      6.25085e+9 
           1095      7.15834e+9 
           1105      6.19354e+9 
           1115       5.9784e+9 
           1125      5.77615e+9 
           1135      7.17065e+9 
           1145      5.94537e+9 
           1155      6.60563e+9 
           1165       6.9793e+9 
           1175      5.27946e+9 
           1185      6.83182e+9 
           1195       3.9759e+9 
           1205      2.29731e+9 
           1215      5.49824e+8 
           1225      2.11797e+9 
           1235      5.76719e+9 
           1245      6.62669e+9 
           1255      6.61239e+9 
           1265      5.86744e+9 
           1275      6.60865e+9 
           1285      7.10236e+9 
           1295      4.65794e+9 
           1305      3.94399e+9 
           1315      6.52535e+9 
           1325      6.15985e+9 
           1335      5.41242e+9 
           1345      6.29623e+9 
           1355      6.04647e+9 
           1365      5.37346e+9 
           1375      5.53111e+9 
           1385      5.64458e+9 
           1395      5.03061e+9 
           1405      5.23254e+9 
           1415      5.07267e+9 
           1425      5.24328e+9 
           1435      5.16259e+9 
           1442      5.47095e+9 
           1447      5.42259e+9 
           1455      5.28073e+9 
           1465      4.91979e+9 
           1475      4.82768e+9 
           1485      4.68839e+9 
           1495      4.79259e+9 
           1505      4.39396e+9 
           1512      3.99562e+9 
           1517      4.25679e+9 
           1525      4.27428e+9 
           1535      3.83856e+9 
           1545       3.9972e+9 
           1555      3.75043e+9 
           1565      3.76433e+9 
           1575      3.98519e+9 
           1585      4.02579e+9 
           1595      4.07409e+9 
           1605      3.95094e+9 
           1615      3.95878e+9 
           1625      3.76954e+9 
           1635      3.93059e+9 
           1645      3.90982e+9 
           1655      3.61266e+9 
           1665      3.92082e+9 
           1672      3.73255e+9 
           1677      3.81722e+9 
           1685      3.90207e+9 
           1695      3.69278e+9 
           1705      3.49149e+9 
           1715      3.27042e+9 
           1725       3.2178e+9 
           1735      3.38042e+9 
           1745      3.25271e+9 
           1755       3.3854e+9 
           1765      3.09694e+9 
           1775      3.14991e+9 
           1785      3.18223e+9 
           1795      3.30939e+9 
           1805      3.28659e+9 
           1815      3.01077e+9 
           1825      3.09731e+9 
           1835      2.93879e+9 
           1845      2.71732e+9 
           1855      2.63085e+9 
           1865      2.67896e+9 
           1875      2.91053e+9 
           1885      2.63938e+9 
           1895      2.48969e+9 
           1905      2.66844e+9 
           1915      2.51264e+9 
           1925      2.45214e+9 
           1935      2.53351e+9 
           1945      2.56798e+9 
           1955      2.37825e+9 
           1967      2.56713e+9 
           1976      2.65881e+9 
           1984      2.46428e+9 
           1995      2.39383e+9 
           2005      2.45763e+9 
           2015      2.32817e+9 
           2025       2.5023e+9 
           2035       2.3152e+9 
           2045      2.34252e+9 
           2055      2.24243e+9 
           2065      2.28482e+9 
           2074      2.34955e+9 
           2078      2.21514e+9 
           2085      2.28652e+9 
           2095      2.15015e+9 
           2105      2.19575e+9 
           2115      2.18506e+9 
           2125       2.2161e+9 
           2135      2.11737e+9 
           2145      2.08711e+9 
           2155      2.14217e+9 
           2165      2.08473e+9 
           2175      2.05756e+9 
           2185      2.00011e+9 
           2195      2.03572e+9 
           2205      1.98096e+9 
           2215      1.92794e+9 
           2225      1.84757e+9 
           2235      1.91561e+9 
           2245       1.8666e+9 
           2255      1.79451e+9 
           2265      1.83157e+9 
           2275      1.83778e+9 
           2285      1.84302e+9 
           2295      1.76955e+9 
           2305      1.73473e+9 
           2315      1.67725e+9 
           2325      1.65825e+9 
           2335      1.58659e+9 
           2345      1.55548e+9 
           2355      1.57688e+9 
           2365      1.51837e+9 
           2375      1.52993e+9 
           2385      1.46957e+9 
           2395      1.53062e+9 
           2405      1.46138e+9 
           2415      1.47405e+9 
           2425      1.48792e+9 
           2435      1.42108e+9 
           2445      1.45902e+9 
           2455      1.43622e+9 
           2465      1.41746e+9 
           2475      1.38149e+9 
           2485       1.4209e+9 
           2495      1.37068e+9 
           2505      1.40245e+9 
           2513      1.33155e+9 
           2518      1.37392e+9 
           2525      1.31461e+9 
           2535      1.30725e+9 
           2545       1.2728e+9 
           2555      1.30602e+9 
           2565      1.28859e+9 
           2575      1.31593e+9 
           2585      1.31157e+9 
           2595      1.30434e+9 
           2605      1.27142e+9 
           2615      1.26193e+9 
           2625      1.25326e+9 
           2635      1.25093e+9 
           2645       1.2717e+9 
           2655      1.25829e+9 
           2665      1.21131e+9 
           2675       1.2268e+9 
           2685      1.21251e+9 
           2695      1.18548e+9 
           2705      1.18414e+9 
           2715      1.15862e+9 
           2725      1.14191e+9 
           2735      1.16037e+9 
           2745      1.09784e+9 
           2755      1.09321e+9 
           2765       1.0966e+9 
           2775      1.11195e+9 
           2785      1.10169e+9 
           2795      1.03957e+9 
           2805      1.06894e+9 
           2815      1.07943e+9 
           2825       1.0592e+9 
           2835       1.0164e+9 
           2845      1.01247e+9 
           2855      1.01552e+9 
           2865      1.02675e+9 
           2875       1.0075e+9 
           2885      1.00256e+9 
           2895      9.95514e+8 
           2910      9.89459e+8 
           2930      9.63886e+8 
           2950      9.40427e+8 
           2970      9.31776e+8 
           2990      9.11136e+8 
           3010      9.01812e+8 
           3030      8.90192e+8 
           3050      8.70943e+8 
           3070      8.54156e+8 
           3090      8.39978e+8 
           3110      8.22198e+8 
           3130      8.10263e+8 
           3150      7.95526e+8 
           3170      7.79971e+8 
           3190       7.5608e+8 
           3210       7.5166e+8 
           3230      7.39889e+8 
           3250      7.27743e+8 
           3270      7.16332e+8 
           3290       7.0389e+8 
           3310      6.93346e+8 
           3330       6.8066e+8 
           3350      6.67455e+8 
           3370      6.57002e+8 
           3390      6.46224e+8 
           3410      6.36009e+8 
           3430      6.23746e+8 
           3450      6.12104e+8 
           3470      6.02722e+8 
           3490      5.93081e+8 
           3510      5.83956e+8 
           3530      5.75333e+8 
           3550      5.65998e+8 
           3570      5.58876e+8 
           3590      5.45973e+8 
           3610       5.3887e+8 
           3630      5.29747e+8 
           3640      5.28518e+8 
           3650      5.22515e+8 
           3670      5.16332e+8 
           3690      5.08315e+8 
           3710      4.92148e+8 
           3730      4.69175e+8 
           3750      4.76615e+8 
           3770      4.72048e+8 
           3790      5.12767e+8 
           3810      5.50245e+8 
           3830      4.66234e+8 
           3850      5.79054e+8 
           3870      6.12199e+8 
           3890      4.29681e+8 
           3910      6.10481e+8 
           3930      6.14577e+8 
           3950      5.94268e+8 
           3970      4.03216e+8 
           3990      5.62772e+8 
           4010      5.87043e+8 
           4030      5.42678e+8 
           4050      5.79776e+8 
           4070      5.57081e+8 
           4090      4.72756e+8 
           4110      3.96041e+8 
           4130      5.16165e+8 
           4150      5.24785e+8 
           4170      5.24486e+8 
           4190      5.20178e+8 
           4210      5.13696e+8 
           4230      5.04344e+8 
           4250      4.94895e+8 
           4270      4.78802e+8 
           4290      4.76538e+8 
           4310      4.59289e+8 
           4330      3.79404e+8 
           4350      3.39549e+8 
           4370      4.32796e+8 
           4390      4.22176e+8 
           4410      4.34163e+8 
           4430      4.26124e+8 
           4450      4.23311e+8 
           4470      3.89722e+8 
           4490      4.05169e+8 
           4510      4.05843e+8 
           4530      3.98082e+8 
           4550      3.92461e+8 
           4570      3.87446e+8 
           4590       3.8143e+8 
           4610      3.75239e+8 
           4630      3.68085e+8 
           4650      3.63148e+8 
           4670      3.58818e+8 
           4690      3.54206e+8 
           4710       3.4042e+8 
           4730      3.41151e+8 
           4750       3.3573e+8 
           4770      3.33831e+8 
           4790      3.27699e+8 
           4810      3.19753e+8 
           4830      3.09343e+8 
           4850      2.64483e+8 
           4870      2.30499e+8 
           4890      2.93196e+8 
           4910      2.97001e+8 
           4930      2.85327e+8 
           4950      2.92343e+8 
           4970      2.89431e+8 
           4990      2.84982e+8 
           5010      2.73586e+8 
           5030      2.75747e+8 
           5050      2.67333e+8 
           5070      2.69405e+8 
           5090      2.65504e+8 
           5110      2.61035e+8 
           5130      2.57085e+8 
           5150      2.53004e+8 
           5170      2.51149e+8 
           5190      2.47819e+8 
           5210      2.41936e+8 
           5230      2.41164e+8 
           5250      2.38223e+8 
           5270      2.34533e+8 
           5290      2.32439e+8 
           5310      2.29022e+8 
           5330      2.25781e+8 
           5350       2.2224e+8 
           5370      2.20457e+8 
           5390      2.17528e+8 
           5410      2.14365e+8 
           5430      2.11115e+8 
           5450      2.08718e+8 
           5470      2.05734e+8 
           5490      2.03863e+8 
           5510      2.01033e+8 
           5530      1.98646e+8 
           5550       1.9625e+8 
           5570      1.93666e+8 
           5590      1.91354e+8 
           5610      1.88783e+8 
           5630      1.86909e+8 
           5650      1.82851e+8 
           5670      1.80813e+8 
           5690      1.79311e+8 
           5710      1.77607e+8 
           5730      1.75497e+8 
           5750      1.73321e+8 
           5770      1.71307e+8 
           5790      1.69148e+8 
           5810      1.67014e+8 
           5830      1.65028e+8 
           5850      1.63054e+8 
           5870      1.55286e+8 
           5890       1.5785e+8 
           5910       1.5715e+8 
           5930      1.55449e+8 
           5950      1.52895e+8 
           5970      1.51713e+8 
           5990      1.49599e+8 
           6010      1.48313e+8 
           6030      1.46492e+8 
           6050      1.44825e+8 
           6070      1.43116e+8 
           6090      1.41354e+8 
           6110      1.39886e+8 
           6130      1.38273e+8 
           6150       1.3593e+8 
           6170      1.34981e+8 
           6190       1.3356e+8 
           6210      1.32017e+8 
           6230      1.30414e+8 
           6250       1.2852e+8 
           6270       1.2749e+8 
           6290      1.26024e+8 
           6310       1.2446e+8 
           6330      1.23242e+8 
           6350      1.20888e+8 
           6370      1.19926e+8 
           6390      1.19075e+8 
           6410      1.17663e+8 
           6430      1.16614e+8 
           6450      1.15167e+8 
           6470      1.13736e+8 
           6490       1.1233e+8 
           6510      1.10601e+8 
           6530      1.08069e+8 
           6550      9.86728e+7 
           6570      8.55068e+7 
           6590      1.02362e+8 
           6610      1.04512e+8 
           6630      1.04054e+8 
           6650      1.03165e+8 
           6670      1.00938e+8 
           6690      1.00024e+8 
           6710      1.00106e+8 
           6730      9.90546e+7 
           6750      9.80551e+7 
           6770      9.70409e+7 
           6790      9.57184e+7 
           6810      9.49457e+7 
           6830      9.38817e+7 
           6850      9.30132e+7 
           6870      9.20573e+7 
           6890      9.11031e+7 
           6910      9.01583e+7 
           6930      8.90817e+7 
           6950      8.83279e+7 
           6970      8.74418e+7 
           6990      8.65258e+7 
           7010      8.56034e+7 
           7030      8.47511e+7 
           7050       8.3748e+7 
           7070      8.18051e+7 
           7090      8.22511e+7 
           7110      8.13344e+7 
           7130      8.05527e+7 
           7150      7.97342e+7 
           7170      7.89749e+7 
           7190      7.82155e+7 
           7210      7.74416e+7 
           7230      7.59687e+7 
           7250       7.5844e+7 
           7270      7.51636e+7 
           7290      7.39436e+7 
           7310      7.36946e+7 
           7330      7.29705e+7 
           7350       7.2274e+7 
           7370      7.15702e+7 
           7390      7.08729e+7 
           7410       7.0189e+7 
           7430      6.94021e+7 
           7450      6.87924e+7 
           7470      6.80465e+7 
           7490      6.74418e+7 
           7510      6.68293e+7 
           7530      6.62043e+7 
           7550      6.55897e+7 
           7570       6.4978e+7 
           7590      6.43397e+7 
           7610      6.37639e+7 
           7630      6.31557e+7 
           7650      6.25575e+7 
           7670      6.19716e+7 
           7690      6.13885e+7 
           7710      6.08233e+7 
           7730      6.02423e+7 
           7750       5.9689e+7 
           7770      5.85853e+7 
           7790      5.85896e+7 
           7810      5.80466e+7 
           7830      5.75255e+7 
           7850      5.67969e+7 
           7870       5.6314e+7 
           7890      5.56839e+7 
           7910      5.54327e+7 
           7930      5.49654e+7 
           7950      5.42701e+7 
           7970      5.39513e+7 
           7990      5.32041e+7 
           8010      5.30022e+7 
           8030      5.25106e+7 
           8050      5.20221e+7 
           8070      5.15766e+7 
           8090      5.10893e+7 
           8110      5.06338e+7 
           8130      5.01797e+7 
           8150      4.97443e+7 
           8170      4.93261e+7 
           8190      4.88316e+7 
           8210      4.82581e+7 
           8230      4.77769e+7 
           8250      4.75782e+7 
           8270      4.70828e+7 
           8290      4.67375e+7 
           8310      4.63655e+7 
           8330      4.59694e+7 
           8350      4.54793e+7 
           8370      4.51412e+7 
           8390      4.48449e+7 
           8410       4.4454e+7 
           8430      4.40392e+7 
           8450      4.32875e+7 
           8470      4.32782e+7 
           8490       4.2809e+7 
           8510      4.24104e+7 
           8530      4.21149e+7 
           8550      4.13759e+7 
           8570      4.15908e+7 
           8590      4.03799e+7 
