# Kurucz ODFNEW /NOVER (2003)
# teff = 31000 K (value for the effective temperature for the model. Temperatures are given in K)
# logg = 4.5 log(cm/s2) (value for Log(G) for the model.)
# meta = 0.5  (value for the Metallicity for the model.)
# lh = 1.25  (l/Hp where l is the  mixing length of the convective element and Hp is the pressure scale height)
# vtur = 2 km/s (Microturbulence velocity)
# alpha = 0  (Alpha)
#
# column 1: WAVELENGTH (ANGSTROM), Wavelength in Angstrom
# column 2: FLUX (ERG/CM2/S/A), Flux in erg/cm2/s/A
          147.2      7.40251e-8 
            151      2.18989e-7 
          155.2      6.84546e-7 
          158.8      1.73713e-6 
            162      3.84897e-6 
            166      9.98642e-6 
          170.3      2.64107e-5 
          173.4       5.2056e-5 
          176.8     0.000106257 
          180.2     0.000211347 
          181.7     0.000284462 
          186.1     0.000658655 
            191      0.00160736 
          193.9      0.00266666 
          198.4       0.0056857 
          201.8      0.00985043 
            205        0.016248 
          210.5        0.037166 
          216.2       0.0835225 
          219.8        0.136953 
            223        0.209353 
          226.8        0.357414 
            230         32.4194 
            234         67.4337 
            240          119.71 
          246.5         223.568 
          252.4         390.013 
          256.8         569.828 
            260         940.152 
            264         1449.82 
          268.5         2202.14 
          273.5         3222.85 
          278.5         4468.94 
            284         9667.66 
            290         14676.3 
            296         20991.5 
            301           29696 
            308         68972.8 
            318          142296 
            328          224643 
            338          404416 
            348          656751 
            357       2.0888e+6 
            366      4.61983e+6 
            375      5.83103e+6 
            385      8.97746e+6 
            395      1.98509e+7 
            405      2.52301e+7 
            414      3.67704e+7 
            422      4.41454e+7 
            430      5.53766e+7 
            441      7.12001e+7 
            451      8.07223e+7 
            460      8.91403e+7 
            470      1.13094e+8 
            480        1.385e+8 
            490      1.60969e+8 
            500      1.92388e+8 
            506      3.39642e+8 
            512      2.94823e+9 
            520      2.81223e+9 
            530      2.59674e+9 
            540      2.44409e+9 
            550      3.20637e+9 
            560      4.07867e+9 
            570      4.28317e+9 
            580      3.90526e+9 
            590      4.31578e+9 
            600      3.48674e+9 
            610      4.42852e+9 
            620      5.16366e+9 
            630      4.96696e+9 
            640      4.55718e+9 
            650      4.27019e+9 
            658      3.93989e+9 
            665      4.83732e+9 
            675      5.42168e+9 
            685      4.30333e+9 
            695      6.29917e+9 
            705      5.04011e+9 
            716       6.8901e+9 
            726      6.63935e+9 
            735      6.68214e+9 
            745      6.71098e+9 
            755      6.77687e+9 
            765      7.03022e+9 
            775       7.3737e+9 
            785      7.72502e+9 
            795      7.71311e+9 
            805      7.38838e+9 
            815      7.29666e+9 
            825      7.90627e+9 
            835      6.07868e+9 
            845      7.46151e+9 
            855      7.32355e+9 
            865      7.64712e+9 
            875      7.79907e+9 
            885      8.10962e+9 
            895      8.21536e+9 
            905      7.88946e+9 
            915       8.6503e+9 
            925     2.96879e+10 
            935     5.09488e+10 
            945     7.16525e+10 
            955      7.8826e+10 
            965     8.96812e+10 
            975     2.41396e+10 
            985     6.60599e+10 
            995     6.19723e+10 
           1005     6.80446e+10 
           1015      7.3384e+10 
           1025     5.37255e+10 
           1035     6.76107e+10 
           1045     8.53555e+10 
           1055     7.86409e+10 
           1065     6.34102e+10 
           1075     6.88993e+10 
           1085     6.25821e+10 
           1095     6.75774e+10 
           1105     6.37773e+10 
           1115     6.26839e+10 
           1125     4.64741e+10 
           1135     5.96754e+10 
           1145     5.70457e+10 
           1155     5.45344e+10 
           1165     5.24114e+10 
           1175     2.92324e+10 
           1185     4.72366e+10 
           1195     4.61248e+10 
           1205      4.1673e+10 
           1215     3.27138e+10 
           1225     4.28339e+10 
           1235     4.68928e+10 
           1245     4.43513e+10 
           1255     4.41639e+10 
           1265     4.59734e+10 
           1275      4.7978e+10 
           1285     4.82358e+10 
           1295     4.15677e+10 
           1305     4.27293e+10 
           1315     4.75371e+10 
           1325     4.51077e+10 
           1335     4.35869e+10 
           1345     4.33285e+10 
           1355     4.26154e+10 
           1365     4.02645e+10 
           1375     3.85313e+10 
           1385     3.66001e+10 
           1395     2.52556e+10 
           1405     2.72906e+10 
           1415     3.39112e+10 
           1425     3.08118e+10 
           1435      3.3258e+10 
           1442      3.3137e+10 
           1447     3.28706e+10 
           1455     3.10616e+10 
           1465     2.92295e+10 
           1475     3.01661e+10 
           1485      2.9973e+10 
           1495     2.89345e+10 
           1505     2.67467e+10 
           1512      2.5239e+10 
           1517     2.58128e+10 
           1525     2.53305e+10 
           1535     2.10123e+10 
           1545     1.81355e+10 
           1555     1.80588e+10 
           1565     2.07174e+10 
           1575     2.21728e+10 
           1585     2.24548e+10 
           1595      2.2257e+10 
           1605     2.17992e+10 
           1615     2.05826e+10 
           1625     2.10519e+10 
           1635     2.17831e+10 
           1645     2.20383e+10 
           1655     2.17274e+10 
           1665     2.16493e+10 
           1672     1.97664e+10 
           1677     2.37974e+10 
           1685     2.22822e+10 
           1695     2.11835e+10 
           1705     2.09487e+10 
           1715     1.96458e+10 
           1725     1.87743e+10 
           1735      1.9606e+10 
           1745     1.94401e+10 
           1755      1.9317e+10 
           1765     1.91181e+10 
           1775      1.7967e+10 
           1785      1.8458e+10 
           1795     1.82798e+10 
           1805     1.82755e+10 
           1815     1.71038e+10 
           1825     1.71691e+10 
           1835     1.69578e+10 
           1845      1.5608e+10 
           1855     1.62121e+10 
           1865     1.63344e+10 
           1875     1.61906e+10 
           1885     1.48265e+10 
           1895      1.4149e+10 
           1905     1.49414e+10 
           1915     1.42988e+10 
           1925     1.32479e+10 
           1935     1.43871e+10 
           1945     1.47653e+10 
           1955     1.29775e+10 
           1967     1.40133e+10 
           1976     1.46482e+10 
           1984     1.37044e+10 
           1995     1.34704e+10 
           2005     1.38574e+10 
           2015     1.37888e+10 
           2025     1.39617e+10 
           2035     1.29205e+10 
           2045     1.29449e+10 
           2055     1.11252e+10 
           2065     1.08578e+10 
           2074     1.13611e+10 
           2078     1.07677e+10 
           2085     1.13204e+10 
           2095     1.13851e+10 
           2105     1.20517e+10 
           2115     1.21435e+10 
           2125      1.2062e+10 
           2135     1.18468e+10 
           2145     1.14336e+10 
           2155     1.16953e+10 
           2165     1.13021e+10 
           2175     1.13896e+10 
           2185     1.10402e+10 
           2195     1.12487e+10 
           2205     1.11221e+10 
           2215     1.07838e+10 
           2225     1.06879e+10 
           2235      1.0465e+10 
           2245     1.04034e+10 
           2255      1.0075e+10 
           2265      1.0147e+10 
           2275     1.00282e+10 
           2285      9.78401e+9 
           2295      8.41933e+9 
           2305      9.34409e+9 
           2315      9.22347e+9 
           2325      9.20145e+9 
           2335      9.01432e+9 
           2345      9.01365e+9 
           2355      8.81024e+9 
           2365      8.67931e+9 
           2375      8.43006e+9 
           2385      8.20056e+9 
           2395      8.17688e+9 
           2405      8.14224e+9 
           2415      8.03555e+9 
           2425      8.00465e+9 
           2435      7.81006e+9 
           2445       7.7671e+9 
           2455       7.6952e+9 
           2465      7.58143e+9 
           2475      7.45448e+9 
           2485      7.17315e+9 
           2495      5.22354e+9 
           2505      6.79311e+9 
           2513      6.61988e+9 
           2518      6.78851e+9 
           2525      6.94828e+9 
           2535      6.91291e+9 
           2545      6.68537e+9 
           2555      6.65911e+9 
           2565      6.56491e+9 
           2575      6.51573e+9 
           2585      6.44737e+9 
           2595      6.35638e+9 
           2605      6.30711e+9 
           2615      6.16696e+9 
           2625      6.13975e+9 
           2635      6.07696e+9 
           2645      5.95517e+9 
           2655      5.90826e+9 
           2665      5.67516e+9 
           2675      5.59701e+9 
           2685      5.65364e+9 
           2695      5.44526e+9 
           2705      5.32939e+9 
           2715      5.31167e+9 
           2725      5.31994e+9 
           2735      5.21815e+9 
           2745       5.1922e+9 
           2755      5.14564e+9 
           2765      5.05527e+9 
           2775      5.09131e+9 
           2785      4.98584e+9 
           2795      4.77734e+9 
           2805      4.82258e+9 
           2815      4.84353e+9 
           2825      4.77012e+9 
           2835      4.61044e+9 
           2845      4.65441e+9 
           2855      4.56409e+9 
           2865      4.51618e+9 
           2875       4.4643e+9 
           2885      4.40548e+9 
           2895      4.35051e+9 
           2910      4.23099e+9 
           2930      4.20533e+9 
           2950      4.06868e+9 
           2970      3.98891e+9 
           2990      3.86582e+9 
           3010      3.71835e+9 
           3030      3.66077e+9 
           3050      3.61976e+9 
           3070      3.57303e+9 
           3090      3.41839e+9 
           3110       3.4176e+9 
           3130      3.31192e+9 
           3150      3.26127e+9 
           3170       3.1678e+9 
           3190       3.1141e+9 
           3210       3.0458e+9 
           3230      2.96822e+9 
           3250      2.93166e+9 
           3270      2.84331e+9 
           3290      2.79509e+9 
           3310      2.73305e+9 
           3330      2.66162e+9 
           3350      2.60584e+9 
           3370      2.55009e+9 
           3390      2.52317e+9 
           3410      2.46813e+9 
           3430      2.42569e+9 
           3450      2.36109e+9 
           3470      2.31846e+9 
           3490      2.26914e+9 
           3510      2.22535e+9 
           3530       2.1953e+9 
           3550      2.14669e+9 
           3570       2.1079e+9 
           3590      2.04735e+9 
           3610      2.01201e+9 
           3630      1.97661e+9 
           3640      1.96454e+9 
           3650      1.90917e+9 
           3670      1.88282e+9 
           3690        1.847e+9 
           3710      1.77068e+9 
           3730      1.72585e+9 
           3750      1.72212e+9 
           3770      1.67567e+9 
           3790      1.73831e+9 
           3810      1.78268e+9 
           3830      1.59065e+9 
           3850      1.78194e+9 
           3870      1.72803e+9 
           3890      1.49272e+9 
           3910      1.74978e+9 
           3930      1.69123e+9 
           3950      1.64513e+9 
           3970      1.37604e+9 
           3990      1.61079e+9 
           4010      1.59319e+9 
           4030      1.51922e+9 
           4050      1.53666e+9 
           4070       1.4546e+9 
           4090      1.36363e+9 
           4110      1.24506e+9 
           4130      1.39784e+9 
           4150      1.38418e+9 
           4170      1.38289e+9 
           4190      1.36211e+9 
           4210      1.34267e+9 
           4230      1.31834e+9 
           4250      1.27399e+9 
           4270      1.24379e+9 
           4290      1.21853e+9 
           4310        1.175e+9 
           4330      1.09545e+9 
           4350      1.02257e+9 
           4370      1.12134e+9 
           4390      1.11689e+9 
           4410      1.10423e+9 
           4430      1.10086e+9 
           4450      1.07824e+9 
           4470       1.0386e+9 
           4490      1.04957e+9 
           4510      1.02957e+9 
           4530       1.0199e+9 
           4550      1.00196e+9 
           4570      9.90559e+8 
           4590      9.70698e+8 
           4610      9.45577e+8 
           4630      9.25019e+8 
           4650      8.79828e+8 
           4670      9.00966e+8 
           4690      8.90626e+8 
           4710      8.63855e+8 
           4730      8.72107e+8 
           4750      8.57282e+8 
           4770      8.55555e+8 
           4790      8.40314e+8 
           4810      8.21992e+8 
           4830      8.04395e+8 
           4850       7.5711e+8 
           4870      6.83253e+8 
           4890      7.68407e+8 
           4910      7.59925e+8 
           4930      7.36846e+8 
           4950      7.34609e+8 
           4970      7.32643e+8 
           4990      7.20443e+8 
           5010      6.88376e+8 
           5030      6.94244e+8 
           5050      6.82596e+8 
           5070      6.79361e+8 
           5090      6.67126e+8 
           5110      6.55624e+8 
           5130      6.41646e+8 
           5150      6.34243e+8 
           5170      6.27429e+8 
           5190      6.20141e+8 
           5210        6.116e+8 
           5230      6.02565e+8 
           5250      5.92325e+8 
           5270      5.82547e+8 
           5290      5.77316e+8 
           5310      5.68673e+8 
           5330      5.61231e+8 
           5350      5.52975e+8 
           5370       5.4565e+8 
           5390      5.37109e+8 
           5410      5.28112e+8 
           5430      5.23437e+8 
           5450      5.15784e+8 
           5470      5.08519e+8 
           5490      5.01408e+8 
           5510      4.95467e+8 
           5530      4.87442e+8 
           5550      4.82395e+8 
           5570      4.75476e+8 
           5590       4.6862e+8 
           5610      4.63106e+8 
           5630      4.57088e+8 
           5650      4.49798e+8 
           5670      4.41615e+8 
           5690      4.30929e+8 
           5710      4.27395e+8 
           5730      4.22903e+8 
           5750      4.15704e+8 
           5770      4.12884e+8 
           5790      4.06912e+8 
           5810      4.01348e+8 
           5830      3.94764e+8 
           5850      3.91387e+8 
           5870      3.77015e+8 
           5890      3.78585e+8 
           5910       3.7579e+8 
           5930      3.70892e+8 
           5950      3.66455e+8 
           5970      3.64596e+8 
           5990      3.58175e+8 
           6010      3.55504e+8 
           6030      3.50051e+8 
           6050      3.46207e+8 
           6070      3.42733e+8 
           6090      3.38637e+8 
           6110      3.34153e+8 
           6130      3.30402e+8 
           6150      3.24322e+8 
           6170      3.20967e+8 
           6190       3.1805e+8 
           6210      3.14667e+8 
           6230      3.10941e+8 
           6250      3.06186e+8 
           6270      3.02971e+8 
           6290      2.99667e+8 
           6310      2.95594e+8 
           6330      2.92667e+8 
           6350      2.88518e+8 
           6370      2.85855e+8 
           6390      2.82279e+8 
           6410      2.78934e+8 
           6430      2.75835e+8 
           6450      2.72397e+8 
           6470      2.67836e+8 
           6490      2.65007e+8 
           6510      2.61888e+8 
           6530      2.58068e+8 
           6550      2.48943e+8 
           6570      2.21927e+8 
           6590      2.47422e+8 
           6610      2.47195e+8 
           6630      2.45097e+8 
           6650        2.421e+8 
           6670      2.37001e+8 
           6690      2.34348e+8 
           6710      2.33916e+8 
           6730       2.3044e+8 
           6750       2.2882e+8 
           6770      2.26533e+8 
           6790      2.22054e+8 
           6810      2.21183e+8 
           6830      2.18629e+8 
           6850      2.16512e+8 
           6870      2.13976e+8 
           6890        2.111e+8 
           6910      2.08373e+8 
           6930      2.07251e+8 
           6950      2.04983e+8 
           6970      2.02754e+8 
           6990      2.00462e+8 
           7010      1.98162e+8 
           7030      1.95694e+8 
           7050      1.93805e+8 
           7070      1.88896e+8 
           7090      1.89623e+8 
           7110      1.86322e+8 
           7130        1.845e+8 
           7150      1.83573e+8 
           7170      1.81759e+8 
           7190      1.79947e+8 
           7210      1.78103e+8 
           7230      1.73717e+8 
           7250      1.73856e+8 
           7270      1.72516e+8 
           7290      1.69423e+8 
           7310      1.68843e+8 
           7330      1.67025e+8 
           7350      1.65378e+8 
           7370      1.63712e+8 
           7390      1.62027e+8 
           7410      1.60344e+8 
           7430       1.5869e+8 
           7450      1.57011e+8 
           7470       1.5449e+8 
           7490      1.53384e+8 
           7510      1.52188e+8 
           7530      1.50483e+8 
           7550      1.49211e+8 
           7570      1.47675e+8 
           7590      1.45949e+8 
           7610      1.44311e+8 
           7630      1.43154e+8 
           7650      1.41737e+8 
           7670      1.40423e+8 
           7690      1.38814e+8 
           7710      1.37455e+8 
           7730      1.35893e+8 
           7750      1.34911e+8 
           7770      1.33474e+8 
           7790      1.32312e+8 
           7810      1.30968e+8 
           7830      1.29728e+8 
           7850      1.28457e+8 
           7870      1.26856e+8 
           7890      1.25451e+8 
           7910      1.24498e+8 
           7930       1.2326e+8 
           7950      1.22283e+8 
           7970      1.21036e+8 
           7990      1.19929e+8 
           8010      1.18691e+8 
           8030      1.17504e+8 
           8050      1.16537e+8 
           8070      1.15428e+8 
           8090      1.14242e+8 
           8110      1.12299e+8 
           8130      1.12203e+8 
           8150      1.11069e+8 
           8170      1.10142e+8 
           8190      1.08285e+8 
           8210       1.0725e+8 
           8230      1.05889e+8 
           8250      1.05648e+8 
           8270      1.03573e+8 
           8290      1.03583e+8 
           8310      1.02829e+8 
           8330      1.01777e+8 
           8350      1.00393e+8 
           8370      9.97468e+7 
           8390      9.91541e+7 
           8410      9.81025e+7 
           8430      9.73301e+7 
           8450      9.58621e+7 
           8470      9.55623e+7 
           8490      9.44958e+7 
           8510      9.33291e+7 
           8530      9.27936e+7 
           8550      9.16127e+7 
           8570      9.16011e+7 
