# Kurucz ODFNEW /NOVER (2003)
# teff = 23000 K (value for the effective temperature for the model. Temperatures are given in K)
# logg = 4.5 log(cm/s2) (value for Log(G) for the model.)
# meta = 0.2  (value for the Metallicity for the model.)
# lh = 1.25  (l/Hp where l is the  mixing length of the convective element and Hp is the pressure scale height)
# vtur = 2 km/s (Microturbulence velocity)
# alpha = 0.4  (Alpha)
#
# column 1: WAVELENGTH (ANGSTROM), Wavelength in Angstrom
# column 2: FLUX (ERG/CM2/S/A), Flux in erg/cm2/s/A
          147.2     7.07268e-16 
            151     3.23577e-15 
          155.2     1.59719e-14 
          158.8     5.88128e-14 
            162     1.78948e-13 
            166     6.78526e-13 
          170.3     2.64653e-12 
          173.4     6.83593e-12 
          176.8       1.857e-11 
          180.2     4.86689e-11 
          181.7     7.35763e-11 
          186.1     2.39309e-10 
            191     8.39573e-10 
          193.9      1.71475e-9 
          198.4      4.98856e-9 
          201.8      1.08532e-8 
            205      2.20641e-8 
          210.5      7.12738e-8 
          216.2      2.26445e-7 
          219.8      4.56462e-7 
            223      8.36049e-7 
          226.8      1.67996e-6 
            230      3.32063e-5 
            234      7.82342e-5 
            240     0.000201249 
          246.5     0.000529454 
          252.4      0.00123487 
          256.8      0.00219087 
            260      0.00350609 
            264      0.00582856 
          268.5       0.0102036 
          273.5       0.0184526 
          278.5        0.033094 
            284       0.0640743 
            290        0.120916 
            296        0.223051 
            301        0.364147 
            308        0.729242 
            318         1.83142 
            328         4.11978 
            338         9.34008 
            348         19.6023 
            357         58.0159 
            366         110.452 
            375         185.066 
            385         329.595 
            395         584.465 
            405         965.199 
            414         1515.22 
            422         2160.73 
            430          3131.6 
            441         5008.38 
            451         7519.36 
            460         10512.1 
            470         15314.8 
            480         21714.3 
            490         30748.7 
            500         42683.4 
            506          251638 
            512      2.12347e+6 
            520      2.52885e+6 
            530      3.28663e+6 
            540      3.59611e+6 
            550      5.26599e+6 
            560      6.20006e+6 
            570      7.75432e+6 
            580      7.70492e+6 
            590      1.04228e+7 
            600      1.20962e+7 
            610      1.46318e+7 
            620      1.60482e+7 
            630       1.7612e+7 
            640       1.6916e+7 
            650      1.31967e+7 
            658      2.03842e+7 
            665      2.49929e+7 
            675      2.76992e+7 
            685      2.97377e+7 
            695      3.76562e+7 
            705      3.96645e+7 
            716       4.5315e+7 
            726      4.80486e+7 
            735      5.15242e+7 
            745      5.87923e+7 
            755      6.40564e+7 
            765      6.99353e+7 
            775      7.63526e+7 
            785      8.26179e+7 
            795      8.65669e+7 
            805      9.19463e+7 
            815      9.70941e+7 
            825      1.06201e+8 
            835       9.9177e+7 
            845      1.14271e+8 
            855      1.20018e+8 
            865      1.29046e+8 
            875      1.38002e+8 
            885      1.50533e+8 
            895      1.59275e+8 
            905      1.58521e+8 
            915      2.21635e+8 
            925      1.12588e+9 
            935      3.01237e+9 
            945       8.0018e+9 
            955     1.27411e+10 
            965     1.63985e+10 
            975      2.39102e+9 
            985     1.57984e+10 
            995     1.50901e+10 
           1005     1.87875e+10 
           1015     1.80637e+10 
           1025      5.73041e+9 
           1035     1.27621e+10 
           1045     2.39004e+10 
           1055     2.20844e+10 
           1065     1.59457e+10 
           1075     1.99471e+10 
           1085     1.79922e+10 
           1095     2.07323e+10 
           1105     1.71043e+10 
           1115     1.50231e+10 
           1125     1.26307e+10 
           1135     1.85738e+10 
           1145     1.54425e+10 
           1155     1.68695e+10 
           1165     1.71687e+10 
           1175     1.05044e+10 
           1185     1.67698e+10 
           1195     1.26429e+10 
           1205      5.74528e+9 
           1215      4.65966e+9 
           1225     1.09648e+10 
           1235     1.57783e+10 
           1245     1.59096e+10 
           1255     1.54385e+10 
           1265     1.51829e+10 
           1275     1.57398e+10 
           1285     1.58716e+10 
           1295      8.41889e+9 
           1305      8.51312e+9 
           1315     1.50156e+10 
           1325     1.38606e+10 
           1335     1.30978e+10 
           1345     1.36256e+10 
           1355     1.35563e+10 
           1365     1.16827e+10 
           1375      1.1501e+10 
           1385     1.12917e+10 
           1395      7.79874e+9 
           1405      8.76066e+9 
           1415      9.90676e+9 
           1425     1.01726e+10 
           1435      1.0413e+10 
           1442     1.09258e+10 
           1447      1.0723e+10 
           1455     1.03743e+10 
           1465      9.46903e+9 
           1475      9.59769e+9 
           1485      9.33134e+9 
           1495      9.24199e+9 
           1505      8.12596e+9 
           1512      7.35169e+9 
           1517      7.68229e+9 
           1525      8.01805e+9 
           1535      6.82669e+9 
           1545      6.77538e+9 
           1555      6.54222e+9 
           1565      6.93894e+9 
           1575      7.40679e+9 
           1585       7.3895e+9 
           1595      7.39517e+9 
           1605      7.52867e+9 
           1615      7.43659e+9 
           1625      7.18184e+9 
           1635      7.64275e+9 
           1645      7.61763e+9 
           1655      7.32807e+9 
           1665      7.66756e+9 
           1672      7.34193e+9 
           1677      7.78327e+9 
           1685       7.6972e+9 
           1695      7.22887e+9 
           1705      6.90911e+9 
           1715      6.50074e+9 
           1725      6.39698e+9 
           1735      6.72906e+9 
           1745      6.52485e+9 
           1755       6.5976e+9 
           1765      6.35061e+9 
           1775       6.0425e+9 
           1785      6.10339e+9 
           1795      6.44247e+9 
           1805      6.48182e+9 
           1815      5.70156e+9 
           1825      6.00923e+9 
           1835      5.70002e+9 
           1845      5.19183e+9 
           1855      5.15528e+9 
           1865      5.22459e+9 
           1875      5.59679e+9 
           1885      4.95888e+9 
           1895      4.61881e+9 
           1905      5.04953e+9 
           1915       4.6833e+9 
           1925      4.47993e+9 
           1935      4.74888e+9 
           1945      4.79309e+9 
           1955      4.36508e+9 
           1967      4.79387e+9 
           1976      5.00231e+9 
           1984      4.59061e+9 
           1995      4.51107e+9 
           2005      4.69119e+9 
           2015      4.52978e+9 
           2025       4.7627e+9 
           2035      4.32629e+9 
           2045      4.43001e+9 
           2055      4.26505e+9 
           2065      4.29744e+9 
           2074      4.45728e+9 
           2078      4.05661e+9 
           2085      4.29382e+9 
           2095      4.02684e+9 
           2105      4.15641e+9 
           2115      4.17144e+9 
           2125      4.21453e+9 
           2135      4.10473e+9 
           2145      3.90893e+9 
           2155      4.08657e+9 
           2165      4.05654e+9 
           2175      3.99599e+9 
           2185      3.85336e+9 
           2195      3.91232e+9 
           2205      3.87188e+9 
           2215      3.79453e+9 
           2225      3.66744e+9 
           2235       3.6684e+9 
           2245      3.68999e+9 
           2255      3.53768e+9 
           2265      3.61997e+9 
           2275      3.56798e+9 
           2285      3.57044e+9 
           2295      3.31731e+9 
           2305      3.42409e+9 
           2315      3.31436e+9 
           2325      3.27149e+9 
           2335      3.12682e+9 
           2345        3.142e+9 
           2355      3.14193e+9 
           2365      3.08471e+9 
           2375      3.05524e+9 
           2385      3.01941e+9 
           2395      3.02985e+9 
           2405       2.9328e+9 
           2415      2.92787e+9 
           2425      2.93805e+9 
           2435      2.83029e+9 
           2445      2.85167e+9 
           2455      2.85243e+9 
           2465      2.79195e+9 
           2475      2.74852e+9 
           2485      2.72907e+9 
           2495      2.47902e+9 
           2505      2.65715e+9 
           2513      2.52978e+9 
           2518      2.63008e+9 
           2525      2.56677e+9 
           2535      2.53577e+9 
           2545      2.42334e+9 
           2555      2.49727e+9 
           2565       2.4555e+9 
           2575      2.48663e+9 
           2585      2.46529e+9 
           2595      2.44498e+9 
           2605      2.41787e+9 
           2615      2.39037e+9 
           2625      2.36897e+9 
           2635      2.35075e+9 
           2645      2.34475e+9 
           2655      2.33236e+9 
           2665      2.23331e+9 
           2675       2.2587e+9 
           2685      2.24599e+9 
           2695      2.17115e+9 
           2705      2.14674e+9 
           2715      2.13586e+9 
           2725      2.11225e+9 
           2735      2.11607e+9 
           2745      2.03513e+9 
           2755      2.03488e+9 
           2765      2.02063e+9 
           2775      2.04415e+9 
           2785      2.00876e+9 
           2795      1.91291e+9 
           2805      1.95182e+9 
           2815      1.95956e+9 
           2825      1.92631e+9 
           2835      1.84614e+9 
           2845       1.8714e+9 
           2855      1.85198e+9 
           2865      1.85776e+9 
           2875      1.83255e+9 
           2885       1.8143e+9 
           2895      1.79046e+9 
           2910      1.75541e+9 
           2930      1.72582e+9 
           2950      1.67683e+9 
           2970      1.65894e+9 
           2990      1.61785e+9 
           3010      1.57277e+9 
           3030      1.56356e+9 
           3050      1.53373e+9 
           3070      1.50933e+9 
           3090      1.45435e+9 
           3110      1.44302e+9 
           3130      1.41268e+9 
           3150      1.38873e+9 
           3170      1.35424e+9 
           3190      1.31972e+9 
           3210      1.30801e+9 
           3230      1.28031e+9 
           3250        1.261e+9 
           3270      1.23614e+9 
           3290      1.21159e+9 
           3310      1.19159e+9 
           3330      1.16696e+9 
           3350      1.14484e+9 
           3370      1.12336e+9 
           3390      1.10605e+9 
           3410      1.08647e+9 
           3430       1.0618e+9 
           3450      1.03864e+9 
           3470      1.02129e+9 
           3490      1.00179e+9 
           3510       9.8643e+8 
           3530      9.72805e+8 
           3550      9.55537e+8 
           3570      9.44063e+8 
           3590      9.15187e+8 
           3610      9.02039e+8 
           3630      8.88296e+8 
           3640      8.88739e+8 
           3650      8.76043e+8 
           3670      8.66632e+8 
           3690      8.51259e+8 
           3710      8.18376e+8 
           3730      7.83818e+8 
           3750      8.05029e+8 
           3770       7.9704e+8 
           3790      8.44619e+8 
           3810      8.82749e+8 
           3830      7.63737e+8 
           3850      9.03896e+8 
           3870      9.13896e+8 
           3890      7.18799e+8 
           3910       9.1582e+8 
           3930      8.87253e+8 
           3950      8.80053e+8 
           3970      6.69063e+8 
           3990      8.42359e+8 
           4010      8.50166e+8 
           4030      7.90995e+8 
           4050      8.26336e+8 
           4070      7.85007e+8 
           4090      7.20349e+8 
           4110      6.30436e+8 
           4130      7.44827e+8 
           4150      7.44097e+8 
           4170      7.43757e+8 
           4190      7.36867e+8 
           4210      7.31583e+8 
           4230      7.15122e+8 
           4250      6.94934e+8 
           4270      6.71683e+8 
           4290      6.67973e+8 
           4310      6.47612e+8 
           4330      5.80157e+8 
           4350      5.27391e+8 
           4370      6.13814e+8 
           4390      6.02975e+8 
           4410      6.08056e+8 
           4430      6.01446e+8 
           4450      5.94434e+8 
           4470      5.57074e+8 
           4490      5.71819e+8 
           4510      5.72574e+8 
           4530      5.60865e+8 
           4550      5.53562e+8 
           4570      5.44542e+8 
           4590      5.35623e+8 
           4610      5.23522e+8 
           4630      5.15512e+8 
           4650      5.02323e+8 
           4670      5.01243e+8 
           4690      4.97748e+8 
           4710      4.74357e+8 
           4730      4.77797e+8 
           4750      4.70693e+8 
           4770       4.7139e+8 
           4790      4.62273e+8 
           4810      4.49937e+8 
           4830      4.40373e+8 
           4850      4.02282e+8 
           4870      3.56669e+8 
           4890      4.22354e+8 
           4910      4.20014e+8 
           4930       4.0274e+8 
           4950      4.08917e+8 
           4970      4.06487e+8 
           4990      3.99498e+8 
           5010      3.80795e+8 
           5030      3.86633e+8 
           5050      3.74772e+8 
           5070       3.7764e+8 
           5090       3.7113e+8 
           5110      3.64797e+8 
           5130       3.5669e+8 
           5150      3.52689e+8 
           5170      3.51093e+8 
           5190      3.46266e+8 
           5210      3.37867e+8 
           5230      3.37203e+8 
           5250      3.32807e+8 
           5270      3.27233e+8 
           5290      3.24144e+8 
           5310      3.19369e+8 
           5330      3.14205e+8 
           5350      3.08978e+8 
           5370      3.07007e+8 
           5390      3.02684e+8 
           5410      2.98468e+8 
           5430      2.93527e+8 
           5450      2.89778e+8 
           5470      2.85523e+8 
           5490      2.83071e+8 
           5510       2.7958e+8 
           5530      2.75394e+8 
           5550      2.72471e+8 
           5570      2.68575e+8 
           5590      2.65704e+8 
           5610      2.61562e+8 
           5630      2.59101e+8 
           5650      2.52608e+8 
           5670      2.49025e+8 
           5690      2.46696e+8 
           5710      2.45063e+8 
           5730      2.42552e+8 
           5750      2.38828e+8 
           5770      2.36892e+8 
           5790      2.33831e+8 
           5810      2.30695e+8 
           5830      2.27563e+8 
           5850      2.25019e+8 
           5870      2.14403e+8 
           5890      2.16978e+8 
           5910      2.16127e+8 
           5930       2.1359e+8 
           5950      2.10081e+8 
           5970      2.09204e+8 
           5990      2.05731e+8 
           6010      2.04197e+8 
           6030      2.01415e+8 
           6050      1.99169e+8 
           6070      1.96908e+8 
           6090      1.94367e+8 
           6110      1.92249e+8 
           6130      1.90125e+8 
           6150      1.86151e+8 
           6170      1.85114e+8 
           6190      1.83389e+8 
           6210      1.81292e+8 
           6230      1.79217e+8 
           6250      1.76365e+8 
           6270      1.74734e+8 
           6290      1.72853e+8 
           6310      1.70529e+8 
           6330      1.69002e+8 
           6350      1.65809e+8 
           6370      1.64565e+8 
           6390       1.6301e+8 
           6410      1.61142e+8 
           6430      1.59722e+8 
           6450      1.57674e+8 
           6470      1.55395e+8 
           6490      1.53893e+8 
           6510      1.51971e+8 
           6530      1.49372e+8 
           6550      1.41235e+8 
           6570       1.2361e+8 
           6590      1.42362e+8 
           6610      1.43485e+8 
           6630      1.42509e+8 
           6650      1.40946e+8 
           6670       1.3779e+8 
           6690      1.36454e+8 
           6710      1.36537e+8 
           6730       1.3482e+8 
           6750      1.33733e+8 
           6770      1.32303e+8 
           6790      1.29629e+8 
           6810      1.29202e+8 
           6830      1.27728e+8 
           6850      1.26654e+8 
           6870      1.25295e+8 
           6890       1.2387e+8 
           6910      1.22491e+8 
           6930      1.21205e+8 
           6950      1.20118e+8 
           6970      1.18872e+8 
           6990      1.17568e+8 
           7010      1.16269e+8 
           7030      1.15075e+8 
           7050      1.13847e+8 
           7070      1.10619e+8 
           7090      1.11494e+8 
           7110      1.09787e+8 
           7130      1.08705e+8 
           7150      1.07951e+8 
           7170      1.07012e+8 
           7190      1.05995e+8 
           7210      1.04922e+8 
           7230      1.02137e+8 
           7250      1.02549e+8 
           7270      1.01743e+8 
           7290      9.98249e+7 
           7310      9.96742e+7 
           7330      9.86823e+7 
           7350      9.77345e+7 
           7370      9.67678e+7 
           7390      9.57964e+7 
           7410      9.48477e+7 
           7430      9.37031e+7 
           7450      9.29088e+7 
           7470      9.15816e+7 
           7490      9.10126e+7 
           7510      9.01744e+7 
           7530      8.92575e+7 
           7550      8.84879e+7 
           7570      8.76462e+7 
           7590      8.67337e+7 
           7610      8.58686e+7 
           7630      8.51019e+7 
           7650      8.42906e+7 
           7670      8.34865e+7 
           7690       8.2677e+7 
           7710      8.18874e+7 
           7730       8.1067e+7 
           7750      8.03418e+7 
           7770      7.87431e+7 
           7790      7.88235e+7 
           7810      7.80374e+7 
           7830      7.73443e+7 
           7850      7.63699e+7 
           7870      7.56903e+7 
           7890      7.47019e+7 
           7910       7.4451e+7 
           7930      7.37944e+7 
           7950      7.27083e+7 
           7970      7.22549e+7 
           7990      7.11973e+7 
           8010      7.09596e+7 
           8030      7.02911e+7 
           8050      6.96167e+7 
           8070      6.90233e+7 
           8090      6.83198e+7 
           8110      6.75308e+7 
           8130      6.71533e+7 
           8150      6.65405e+7 
           8170      6.60233e+7 
           8190      6.51901e+7 
           8210       6.4504e+7 
           8230      6.38015e+7 
           8250      6.36586e+7 
           8270      6.25469e+7 
           8290      6.24812e+7 
           8310      6.19298e+7 
           8330      6.14265e+7 
           8350       6.0549e+7 
           8370      6.01471e+7 
           8390      5.98018e+7 
           8410       5.9262e+7 
           8430      5.86896e+7 
           8450      5.74149e+7 
           8470      5.76535e+7 
           8490      5.69379e+7 
           8510      5.64729e+7 
           8530      5.60117e+7 
           8550       5.5013e+7 
           8570      5.55516e+7 
