# Kurucz ODFNEW /NOVER (2003)
# teff = 21000 K (value for the effective temperature for the model. Temperatures are given in K)
# logg = 4.5 log(cm/s2) (value for Log(G) for the model.)
# meta = 0.5  (value for the Metallicity for the model.)
# lh = 1.25  (l/Hp where l is the  mixing length of the convective element and Hp is the pressure scale height)
# vtur = 2 km/s (Microturbulence velocity)
# alpha = 0.4  (Alpha)
#
# column 1: WAVELENGTH (ANGSTROM), Wavelength in Angstrom
# column 2: FLUX (ERG/CM2/S/A), Flux in erg/cm2/s/A
          147.2     4.87832e-18 
            151     2.56033e-17 
          155.2     1.45791e-16 
          158.8     6.02305e-16 
            162     2.01959e-15 
            166     8.59453e-15 
          170.3     3.75897e-14 
          173.4     1.05399e-13 
          176.8     3.11247e-13 
          180.2     8.83304e-13 
          181.7     1.38049e-12 
          186.1     4.93717e-12 
            191     1.91313e-11 
          193.9      4.1268e-11 
          198.4     1.30363e-10 
          201.8      3.0099e-10 
            205     6.45787e-10 
          210.5      2.27329e-9 
          216.2       7.8503e-9 
          219.8      1.66304e-8 
            223      3.17723e-8 
          226.8      6.69897e-8 
            230      4.86615e-7 
            234      1.19591e-6 
            240      3.42556e-6 
          246.5      1.00137e-5 
          252.4      2.54467e-5 
          256.8      4.85052e-5 
            260      7.97931e-5 
            264     0.000140906 
          268.5     0.000261926 
          273.5     0.000506202 
          278.5     0.000967442 
            284      0.00198258 
            290      0.00402545 
            296       0.0079447 
            301       0.0137176 
            308        0.029487 
            318       0.0810093 
            328        0.200687 
            338         0.49477 
            348         1.12813 
            357         3.15131 
            366         6.29204 
            375         11.3781 
            385         21.7335 
            395         40.6271 
            405          72.027 
            414         119.369 
            422         179.406 
            430         271.331 
            441         462.405 
            451         734.026 
            460         1079.89 
            470         1651.56 
            480         2459.53 
            490         3635.02 
            500          5272.4 
            506         33677.2 
            512          385504 
            520          469992 
            530          639944 
            540          721290 
            550       1.0997e+6 
            560       1.3266e+6 
            570      1.72595e+6 
            580      1.81433e+6 
            590      2.54923e+6 
            600      3.07244e+6 
            610      3.84576e+6 
            620      4.29593e+6 
            630      4.82515e+6 
            640      4.69974e+6 
            650      3.49551e+6 
            658      5.81351e+6 
            665       7.2383e+6 
            675      8.22574e+6 
            685      8.94484e+6 
            695      1.14729e+7 
            705      1.22806e+7 
            716      1.41967e+7 
            726      1.53207e+7 
            735       1.6632e+7 
            745      1.92293e+7 
            755      2.12935e+7 
            765      2.36077e+7 
            775      2.61667e+7 
            785      2.86277e+7 
            795      3.03225e+7 
            805      3.25341e+7 
            815      3.48884e+7 
            825      3.85522e+7 
            835      3.63672e+7 
            845      4.22935e+7 
            855      4.50091e+7 
            865      4.88821e+7 
            875      5.27089e+7 
            885      5.84172e+7 
            895      6.24335e+7 
            905        6.171e+7 
            915      9.41435e+7 
            925      4.76622e+8 
            935      1.15873e+9 
            945      2.84425e+9 
            955      4.87174e+9 
            965      6.34338e+9 
            975      1.06552e+9 
            985      6.16955e+9 
            995      6.16032e+9 
           1005      8.30463e+9 
           1015       8.2014e+9 
           1025      2.60882e+9 
           1035      5.39373e+9 
           1045      1.1894e+10 
           1055     1.12461e+10 
           1065       7.7088e+9 
           1075     1.03536e+10 
           1085      9.24299e+9 
           1095      1.1131e+10 
           1105      8.79542e+9 
           1115      7.34626e+9 
           1125      6.74355e+9 
           1135     1.04387e+10 
           1145      8.45484e+9 
           1155      9.57056e+9 
           1165      9.94129e+9 
           1175      6.22277e+9 
           1185     1.00335e+10 
           1195      5.99432e+9 
           1205      2.33272e+9 
           1215      2.40378e+9 
           1225      5.78315e+9 
           1235     1.00353e+10 
           1245     1.03925e+10 
           1255      1.0045e+10 
           1265      9.46423e+9 
           1275      9.89641e+9 
           1285     1.05458e+10 
           1295      4.78936e+9 
           1305      4.29505e+9 
           1315      9.82179e+9 
           1325      9.15738e+9 
           1335      8.37853e+9 
           1345      9.30357e+9 
           1355      9.18748e+9 
           1365      7.53449e+9 
           1375      7.60144e+9 
           1385      7.53842e+9 
           1395      5.38875e+9 
           1405      5.99897e+9 
           1415      6.53633e+9 
           1425      6.98479e+9 
           1435       7.1203e+9 
           1442      7.63273e+9 
           1447      7.52556e+9 
           1455      7.27593e+9 
           1465      6.59646e+9 
           1475      6.70386e+9 
           1485       6.5481e+9 
           1495      6.54592e+9 
           1505      5.67267e+9 
           1512       5.1198e+9 
           1517      5.45166e+9 
           1525      5.69591e+9 
           1535      4.82203e+9 
           1545      4.85135e+9 
           1555      4.69302e+9 
           1565      4.92687e+9 
           1575      5.30584e+9 
           1585      5.38021e+9 
           1595      5.38715e+9 
           1605      5.50727e+9 
           1615      5.52205e+9 
           1625      5.24857e+9 
           1635      5.67795e+9 
           1645      5.67066e+9 
           1655      5.33482e+9 
           1665      5.76776e+9 
           1672      5.52039e+9 
           1677      5.78062e+9 
           1685      5.85417e+9 
           1695      5.44883e+9 
           1705      5.18397e+9 
           1715      4.81808e+9 
           1725        4.762e+9 
           1735      5.09398e+9 
           1745      4.89732e+9 
           1755      5.01927e+9 
           1765      4.75467e+9 
           1775      4.55513e+9 
           1785      4.64837e+9 
           1795      5.01028e+9 
           1805      5.06476e+9 
           1815      4.35279e+9 
           1825      4.64557e+9 
           1835      4.34927e+9 
           1845      3.94545e+9 
           1855      3.84401e+9 
           1865      3.92616e+9 
           1875      4.37454e+9 
           1885      3.82675e+9 
           1895      3.56847e+9 
           1905      3.96285e+9 
           1915      3.60434e+9 
           1925       3.4758e+9 
           1935      3.71887e+9 
           1945      3.73471e+9 
           1955      3.39764e+9 
           1967      3.81385e+9 
           1976      3.97659e+9 
           1984       3.6343e+9 
           1995      3.56225e+9 
           2005      3.75649e+9 
           2015        3.529e+9 
           2025       3.8201e+9 
           2035      3.44242e+9 
           2045      3.56287e+9 
           2055      3.39625e+9 
           2065      3.42316e+9 
           2074      3.58304e+9 
           2078      3.23198e+9 
           2085      3.46682e+9 
           2095      3.22592e+9 
           2105      3.33809e+9 
           2115      3.36336e+9 
           2125      3.39644e+9 
           2135      3.26849e+9 
           2145      3.15588e+9 
           2155      3.31251e+9 
           2165      3.27997e+9 
           2175       3.2353e+9 
           2185       3.0926e+9 
           2195      3.16684e+9 
           2205      3.12633e+9 
           2215      3.04303e+9 
           2225      2.91453e+9 
           2235      2.97079e+9 
           2245      2.97495e+9 
           2255      2.81623e+9 
           2265      2.92551e+9 
           2275      2.90516e+9 
           2285      2.91767e+9 
           2295      2.70004e+9 
           2305      2.76012e+9 
           2315      2.64852e+9 
           2325      2.60419e+9 
           2335      2.46453e+9 
           2345      2.48295e+9 
           2355       2.4829e+9 
           2365      2.41938e+9 
           2375      2.42549e+9 
           2385      2.37387e+9 
           2395      2.43514e+9 
           2405      2.31925e+9 
           2415      2.35066e+9 
           2425      2.36462e+9 
           2435      2.25762e+9 
           2445      2.30851e+9 
           2455      2.29837e+9 
           2465      2.25657e+9 
           2475      2.20424e+9 
           2485       2.2279e+9 
           2495      2.04093e+9 
           2505      2.17728e+9 
           2513      2.04842e+9 
           2518      2.15378e+9 
           2525      2.07131e+9 
           2535      2.05851e+9 
           2545      1.94233e+9 
           2555      2.02889e+9 
           2565      2.00274e+9 
           2575      2.05261e+9 
           2585      2.04077e+9 
           2595      2.02826e+9 
           2605      1.99289e+9 
           2615      1.97443e+9 
           2625      1.95996e+9 
           2635      1.95575e+9 
           2645      1.95892e+9 
           2655      1.95445e+9 
           2665      1.84821e+9 
           2675      1.89164e+9 
           2685      1.87465e+9 
           2695      1.81144e+9 
           2705      1.79055e+9 
           2715      1.77703e+9 
           2725      1.75904e+9 
           2735      1.77742e+9 
           2745      1.68805e+9 
           2755      1.69007e+9 
           2765      1.68639e+9 
           2775      1.71755e+9 
           2785      1.69183e+9 
           2795      1.58455e+9 
           2805      1.63653e+9 
           2815      1.65392e+9 
           2825      1.62835e+9 
           2835        1.541e+9 
           2845      1.55457e+9 
           2855      1.55008e+9 
           2865      1.57099e+9 
           2875      1.54468e+9 
           2885      1.53005e+9 
           2895       1.5124e+9 
           2910      1.48991e+9 
           2930      1.46375e+9 
           2950      1.42168e+9 
           2970      1.40823e+9 
           2990      1.37399e+9 
           3010       1.3402e+9 
           3030      1.33656e+9 
           3050      1.30856e+9 
           3070      1.28841e+9 
           3090      1.24436e+9 
           3110      1.23215e+9 
           3130      1.20934e+9 
           3150      1.18909e+9 
           3170      1.15727e+9 
           3190      1.12555e+9 
           3210      1.11808e+9 
           3230      1.09701e+9 
           3250      1.08206e+9 
           3270      1.06185e+9 
           3290      1.04157e+9 
           3310      1.02527e+9 
           3330      1.00324e+9 
           3350      9.83676e+8 
           3370      9.65898e+8 
           3390      9.51978e+8 
           3410      9.36049e+8 
           3430      9.14629e+8 
           3450      8.95035e+8 
           3470       8.7996e+8 
           3490      8.63687e+8 
           3510        8.506e+8 
           3530      8.39054e+8 
           3550      8.25023e+8 
           3570      8.15598e+8 
           3590       7.8929e+8 
           3610      7.78227e+8 
           3630       7.6816e+8 
           3640      7.68836e+8 
           3650      7.57898e+8 
           3670      7.49912e+8 
           3690      7.36687e+8 
           3710      7.07143e+8 
           3730      6.75535e+8 
           3750      7.00764e+8 
           3770      6.96052e+8 
           3790      7.45428e+8 
           3810      7.83896e+8 
           3830      6.70793e+8 
           3850      8.04748e+8 
           3870       8.1889e+8 
           3890       6.2987e+8 
           3910      8.25384e+8 
           3930       7.9632e+8 
           3950      7.91415e+8 
           3970      5.86455e+8 
           3990      7.54945e+8 
           4010      7.66761e+8 
           4030      7.09646e+8 
           4050      7.45834e+8 
           4070      7.04726e+8 
           4090      6.45287e+8 
           4110       5.5811e+8 
           4130       6.6896e+8 
           4150      6.69615e+8 
           4170      6.70638e+8 
           4190      6.65496e+8 
           4210      6.61972e+8 
           4230        6.468e+8 
           4250      6.27483e+8 
           4270      6.03725e+8 
           4290      6.03881e+8 
           4310      5.84621e+8 
           4330      5.17506e+8 
           4350      4.68222e+8 
           4370      5.52343e+8 
           4390      5.43588e+8 
           4410      5.49924e+8 
           4430      5.42666e+8 
           4450      5.39302e+8 
           4470      5.03377e+8 
           4490      5.16319e+8 
           4510      5.20214e+8 
           4530      5.08012e+8 
           4550      5.02518e+8 
           4570      4.95045e+8 
           4590      4.86699e+8 
           4610      4.75093e+8 
           4630      4.66481e+8 
           4650      4.56065e+8 
           4670         4.55e+8 
           4690      4.52515e+8 
           4710      4.28676e+8 
           4730      4.32837e+8 
           4750      4.26813e+8 
           4770      4.29202e+8 
           4790      4.19665e+8 
           4810      4.07275e+8 
           4830      3.98645e+8 
           4850      3.60914e+8 
           4870      3.17212e+8 
           4890      3.82841e+8 
           4910      3.80869e+8 
           4930       3.6478e+8 
           4950      3.71786e+8 
           4970      3.70035e+8 
           4990      3.63263e+8 
           5010      3.43558e+8 
           5030      3.50242e+8 
           5050      3.38063e+8 
           5070      3.43154e+8 
           5090        3.369e+8 
           5110      3.30329e+8 
           5130       3.2199e+8 
           5150      3.18613e+8 
           5170      3.18789e+8 
           5190      3.14099e+8 
           5210       3.0478e+8 
           5230      3.06269e+8 
           5250      3.02422e+8 
           5270      2.96672e+8 
           5290      2.95053e+8 
           5310      2.90389e+8 
           5330      2.85111e+8 
           5350      2.80232e+8 
           5370      2.79351e+8 
           5390      2.75518e+8 
           5410       2.7109e+8 
           5430       2.6658e+8 
           5450      2.63295e+8 
           5470      2.58767e+8 
           5490      2.57648e+8 
           5510      2.54416e+8 
           5530      2.50447e+8 
           5550      2.48022e+8 
           5570       2.4435e+8 
           5590      2.42038e+8 
           5610      2.38184e+8 
           5630      2.36341e+8 
           5650      2.28781e+8 
           5670      2.25776e+8 
           5690      2.24517e+8 
           5710      2.23282e+8 
           5730      2.21187e+8 
           5750      2.17817e+8 
           5770      2.16094e+8 
           5790      2.13267e+8 
           5810      2.10205e+8 
           5830       2.0738e+8 
           5850      2.05139e+8 
           5870      1.95051e+8 
           5890      1.97258e+8 
           5910      1.96777e+8 
           5930      1.94799e+8 
           5950       1.9098e+8 
           5970      1.90812e+8 
           5990      1.87482e+8 
           6010      1.86435e+8 
           6030      1.83791e+8 
           6050      1.81785e+8 
           6070       1.7972e+8 
           6090      1.77231e+8 
           6110      1.75508e+8 
           6130      1.73663e+8 
           6150      1.69019e+8 
           6170      1.68855e+8 
           6190       1.6751e+8 
           6210      1.65524e+8 
           6230      1.63648e+8 
           6250      1.60548e+8 
           6270      1.59363e+8 
           6290      1.57665e+8 
           6310      1.55466e+8 
           6330      1.54287e+8 
           6350      1.50795e+8 
           6370      1.50053e+8 
           6390      1.48663e+8 
           6410       1.4704e+8 
           6430      1.45981e+8 
           6450      1.43855e+8 
           6470      1.41833e+8 
           6490      1.40477e+8 
           6510      1.38566e+8 
           6530      1.36102e+8 
           6550      1.27712e+8 
           6570      1.10623e+8 
           6590      1.29419e+8 
           6610      1.30974e+8 
           6630      1.30176e+8 
           6650      1.28747e+8 
           6670      1.25724e+8 
           6690      1.24586e+8 
           6710      1.24723e+8 
           6730      1.23167e+8 
           6750       1.2224e+8 
           6770      1.20993e+8 
           6790      1.18165e+8 
           6810       1.1804e+8 
           6830      1.16591e+8 
           6850      1.15815e+8 
           6870      1.14575e+8 
           6890      1.13276e+8 
           6910      1.12029e+8 
           6930       1.1067e+8 
           6950      1.09862e+8 
           6970      1.08744e+8 
           6990      1.07498e+8 
           7010      1.06241e+8 
           7030      1.05196e+8 
           7050      1.03993e+8 
           7070      1.00941e+8 
           7090      1.01826e+8 
           7110      1.00122e+8 
           7130      9.91606e+7 
           7150      9.84813e+7 
           7170      9.77935e+7 
           7190      9.69732e+7 
           7210      9.60229e+7 
           7230      9.32006e+7 
           7250      9.37192e+7 
           7270      9.31258e+7 
           7290      9.13679e+7 
           7310      9.12141e+7 
           7330      9.03173e+7 
           7350      8.94918e+7 
           7370      8.86044e+7 
           7390      8.77185e+7 
           7410      8.68545e+7 
           7430      8.56301e+7 
           7450      8.50013e+7 
           7470      8.37028e+7 
           7490      8.32161e+7 
           7510      8.25263e+7 
           7530      8.16633e+7 
           7550      8.10131e+7 
           7570        8.027e+7 
           7590      7.93571e+7 
           7610      7.86673e+7 
           7630      7.79513e+7 
           7650      7.72031e+7 
           7670      7.64744e+7 
           7690      7.57267e+7 
           7710      7.50175e+7 
           7730      7.42263e+7 
           7750      7.35928e+7 
           7770      7.18354e+7 
           7790      7.22119e+7 
           7810      7.14905e+7 
           7830      7.08677e+7 
           7850      6.97306e+7 
           7870      6.92307e+7 
           7890      6.82145e+7 
           7910      6.81349e+7 
           7930      6.76059e+7 
           7950       6.6384e+7 
           7970      6.61817e+7 
           7990       6.4948e+7 
           8010      6.50292e+7 
           8030      6.44077e+7 
           8050      6.37392e+7 
           8070      6.32444e+7 
           8090      6.26039e+7 
           8110      6.18889e+7 
           8130      6.14936e+7 
           8150      6.09766e+7 
           8170      6.05147e+7 
           8190      5.97253e+7 
           8210      5.90211e+7 
           8230      5.81951e+7 
           8250      5.83173e+7 
           8270       5.7325e+7 
           8290       5.7257e+7 
           8310       5.6709e+7 
           8330      5.63067e+7 
           8350      5.55078e+7 
           8370      5.50976e+7 
           8390       5.4846e+7 
           8410      5.43511e+7 
           8430      5.38019e+7 
           8450      5.24981e+7 
           8470      5.28696e+7 
           8490      5.21635e+7 
           8510      5.17136e+7 
           8530      5.13797e+7 
           8550      5.03033e+7 
           8570      5.09972e+7 
