# Kurucz ODFNEW /NOVER (2003)
# teff = 22000 K (value for the effective temperature for the model. Temperatures are given in K)
# logg = 3.5 log(cm/s2) (value for Log(G) for the model.)
# meta = -2.5  (value for the Metallicity for the model.)
# lh = 1.25  (l/Hp where l is the  mixing length of the convective element and Hp is the pressure scale height)
# vtur = 2 km/s (Microturbulence velocity)
# alpha = 0.4  (Alpha)
#
# column 1: WAVELENGTH (ANGSTROM), Wavelength in Angstrom
# column 2: FLUX (ERG/CM2/S/A), Flux in erg/cm2/s/A
          147.2     1.26665e-17 
            151     7.73649e-17 
          155.2     5.14942e-16 
          158.8     2.41134e-15 
            162     8.96864e-15 
            166      4.3069e-14 
          170.3      2.1385e-13 
          173.4     6.45328e-13 
          176.8     2.06996e-12 
          180.2     6.34471e-12 
          181.7     1.02573e-11 
          186.1     4.00756e-11 
            191     1.69317e-10 
          193.9     3.83351e-10 
          198.4      1.29693e-9 
          201.8      3.13691e-9 
            205      7.00452e-9 
          210.5      2.62493e-8 
          216.2      9.58216e-8 
          219.8      2.09341e-7 
            223      4.10077e-7 
          226.8      8.87952e-7 
            230      3.12956e-6 
            234      7.21865e-6 
            240      2.05684e-5 
          246.5      6.03179e-5 
          252.4     0.000153398 
          256.8      0.00029246 
            260     0.000474384 
            264     0.000836528 
          268.5      0.00154909 
          273.5      0.00299647 
          278.5      0.00566243 
            284       0.0110937 
            290       0.0224053 
            296       0.0438792 
            301       0.0752286 
            308        0.153406 
            318        0.412255 
            328         1.02727 
            338         2.41782 
            348         5.40034 
            357         10.6795 
            366           20.39 
            375         37.6127 
            385         71.6606 
            395          131.73 
            405         234.432 
            414         383.816 
            422         583.253 
            430         871.001 
            441         1474.81 
            451         2321.67 
            460          3427.6 
            470         5182.97 
            480         7687.14 
            490         11200.2 
            500         16042.6 
            506          112553 
            512          327273 
            520          411045 
            530          590496 
            540          644342 
            550          928236 
            560      1.12805e+6 
            570      1.38146e+6 
            580      1.39571e+6 
            590      1.85865e+6 
            600      2.35351e+6 
            610      2.79889e+6 
            620      3.26433e+6 
            630       3.8233e+6 
            640      4.37286e+6 
            650       5.0908e+6 
            658      5.71406e+6 
            665      6.26382e+6 
            675      7.03791e+6 
            685      7.94935e+6 
            695      9.16115e+6 
            705      1.02379e+7 
            716      1.16049e+7 
            726       1.2917e+7 
            735      1.43265e+7 
            745       1.5938e+7 
            755      1.76295e+7 
            765      1.93919e+7 
            775      2.13709e+7 
            785      2.34245e+7 
            795      2.55421e+7 
            805      2.78571e+7 
            815      3.02268e+7 
            825      3.28273e+7 
            835      3.50407e+7 
            845      3.82251e+7 
            855       4.1024e+7 
            865      4.42464e+7 
            875      4.74946e+7 
            885      5.08992e+7 
            895      5.43536e+7 
            905      5.73586e+7 
            915      1.09713e+8 
            925      1.23552e+9 
            935      3.97718e+9 
            945     1.03579e+10 
            955     1.30175e+10 
            965     1.62582e+10 
            975      7.32435e+9 
            985     1.71593e+10 
            995     1.64954e+10 
           1005     1.69431e+10 
           1015     1.58064e+10 
           1025      6.50673e+9 
           1035     1.45223e+10 
           1045     1.67282e+10 
           1055     1.63188e+10 
           1065     1.52475e+10 
           1075     1.56521e+10 
           1085     1.47415e+10 
           1095     1.53783e+10 
           1105     1.46894e+10 
           1115      1.4561e+10 
           1125     1.38377e+10 
           1135     1.41781e+10 
           1145     1.35703e+10 
           1155     1.37529e+10 
           1165       1.358e+10 
           1175     1.21877e+10 
           1185     1.30683e+10 
           1195        1.22e+10 
           1205     1.06961e+10 
           1215      4.37128e+9 
           1225     1.08684e+10 
           1235     1.18313e+10 
           1245     1.16818e+10 
           1255     1.14852e+10 
           1265     1.12542e+10 
           1275     1.12586e+10 
           1285     1.10473e+10 
           1295     1.02171e+10 
           1305     1.02563e+10 
           1315       1.048e+10 
           1325     1.01741e+10 
           1335      9.82818e+9 
           1345      9.89208e+9 
           1355      9.81268e+9 
           1365      9.56854e+9 
           1375      9.42628e+9 
           1385      9.30597e+9 
           1395      8.87413e+9 
           1405      8.81696e+9 
           1415      8.80511e+9 
           1425      8.68753e+9 
           1435      8.56797e+9 
           1442      8.49404e+9 
           1447      8.41853e+9 
           1455      8.30094e+9 
           1465      8.15764e+9 
           1475      8.02766e+9 
           1485      7.89189e+9 
           1495      7.75987e+9 
           1505      7.56993e+9 
           1512      7.50692e+9 
           1517      7.46587e+9 
           1525      7.35794e+9 
           1535      7.13847e+9 
           1545      7.07556e+9 
           1555      6.92284e+9 
           1565      6.90448e+9 
           1575      6.82058e+9 
           1585      6.71304e+9 
           1595      6.61906e+9 
           1605      6.44982e+9 
           1615      6.34838e+9 
           1625      6.30031e+9 
           1635       6.2215e+9 
           1645      6.06075e+9 
           1655      6.03298e+9 
           1665      5.95108e+9 
           1672      5.85028e+9 
           1677      5.86006e+9 
           1685      5.78517e+9 
           1695      5.68289e+9 
           1705      5.58661e+9 
           1715      5.48041e+9 
           1725       5.4111e+9 
           1735      5.34415e+9 
           1745      5.26093e+9 
           1755      5.20274e+9 
           1765      5.06014e+9 
           1775      5.02027e+9 
           1785      4.96441e+9 
           1795      4.90902e+9 
           1805      4.84634e+9 
           1815      4.76037e+9 
           1825      4.70054e+9 
           1835      4.63345e+9 
           1845       4.5133e+9 
           1855      4.40007e+9 
           1865      4.36958e+9 
           1875      4.36446e+9 
           1885      4.23526e+9 
           1895      4.12574e+9 
           1905      4.15801e+9 
           1915       4.0431e+9 
           1925      3.98453e+9 
           1935      3.97041e+9 
           1945      3.94682e+9 
           1955      3.82306e+9 
           1967      3.83021e+9 
           1976      3.80977e+9 
           1984      3.73097e+9 
           1995      3.63551e+9 
           2005      3.64816e+9 
           2015      3.61854e+9 
           2025      3.58178e+9 
           2035      3.51528e+9 
           2045      3.46901e+9 
           2055        3.381e+9 
           2065      3.34842e+9 
           2074      3.36155e+9 
           2078      3.29627e+9 
           2085      3.29394e+9 
           2095      3.22789e+9 
           2105      3.21498e+9 
           2115      3.18347e+9 
           2125      3.15191e+9 
           2135      3.10956e+9 
           2145      3.06352e+9 
           2155      3.03191e+9 
           2165      2.99537e+9 
           2175      2.95594e+9 
           2185      2.92121e+9 
           2195      2.88676e+9 
           2205      2.85056e+9 
           2215      2.81582e+9 
           2225      2.77968e+9 
           2235      2.74536e+9 
           2245      2.71438e+9 
           2255      2.67969e+9 
           2265      2.64918e+9 
           2275      2.61713e+9 
           2285      2.58648e+9 
           2295      2.53839e+9 
           2305      2.52449e+9 
           2315      2.49331e+9 
           2325       2.4641e+9 
           2335       2.4324e+9 
           2345      2.40396e+9 
           2355      2.37876e+9 
           2365      2.34987e+9 
           2375      2.32237e+9 
           2385      2.29426e+9 
           2395      2.26825e+9 
           2405      2.24239e+9 
           2415      2.21507e+9 
           2425      2.19249e+9 
           2435      2.16632e+9 
           2445      2.14189e+9 
           2455      2.11835e+9 
           2465      2.09382e+9 
           2475      2.07036e+9 
           2485      2.04683e+9 
           2495      2.00141e+9 
           2505      2.00077e+9 
           2513      1.97791e+9 
           2518       1.9706e+9 
           2525      1.95596e+9 
           2535      1.93423e+9 
           2545      1.90737e+9 
           2555      1.89189e+9 
           2565      1.87024e+9 
           2575      1.85154e+9 
           2585      1.83132e+9 
           2595       1.8113e+9 
           2605       1.8062e+9 
           2615      1.78695e+9 
           2625      1.76615e+9 
           2635      1.74224e+9 
           2645      1.72522e+9 
           2655      1.70455e+9 
           2665       1.6843e+9 
           2675      1.66563e+9 
           2685      1.65779e+9 
           2695       1.6286e+9 
           2705      1.62271e+9 
           2715      1.60551e+9 
           2725       1.5766e+9 
           2735      1.57184e+9 
           2745      1.55391e+9 
           2755      1.53808e+9 
           2765      1.51067e+9 
           2775      1.50748e+9 
           2785      1.49172e+9 
           2795      1.46298e+9 
           2805      1.45602e+9 
           2815      1.44626e+9 
           2825      1.41801e+9 
           2835      1.40985e+9 
           2845      1.40237e+9 
           2855      1.38818e+9 
           2865      1.37419e+9 
           2875      1.36027e+9 
           2885      1.34665e+9 
           2895      1.33309e+9 
           2910      1.31307e+9 
           2930      1.28686e+9 
           2950      1.25372e+9 
           2970      1.23702e+9 
           2990      1.21277e+9 
           3010       1.1893e+9 
           3030      1.16652e+9 
           3050      1.14414e+9 
           3070      1.12233e+9 
           3090      1.10054e+9 
           3110       1.0802e+9 
           3130      1.06114e+9 
           3150      1.04121e+9 
           3170      1.02144e+9 
           3190      9.94865e+8 
           3210      9.84006e+8 
           3230      9.65791e+8 
           3250      9.48056e+8 
           3270      9.31985e+8 
           3290      9.13832e+8 
           3310      8.98764e+8 
           3330      8.82735e+8 
           3350      8.65445e+8 
           3370      8.51721e+8 
           3390       8.3675e+8 
           3410      8.22104e+8 
           3430      8.03963e+8 
           3450      7.87199e+8 
           3470      7.75992e+8 
           3490      7.62948e+8 
           3510      7.53789e+8 
           3530      7.41614e+8 
           3550      7.29365e+8 
           3570      7.20122e+8 
           3590      7.04491e+8 
           3610      6.93643e+8 
           3630      6.81074e+8 
           3640      6.79328e+8 
           3650      6.72556e+8 
           3670      6.64043e+8 
           3690       6.4458e+8 
           3710      6.31381e+8 
           3730      6.21217e+8 
           3750      6.83645e+8 
           3770      6.89849e+8 
           3790       7.1928e+8 
           3810      7.49068e+8 
           3830      6.57952e+8 
           3850      7.64311e+8 
           3870      7.60532e+8 
           3890      6.27729e+8 
           3910      7.47096e+8 
           3930      7.32779e+8 
           3950      7.22939e+8 
           3970      5.83085e+8 
           3990      6.96235e+8 
           4010       6.8666e+8 
           4030      6.53487e+8 
           4050      6.70729e+8 
           4070      6.57694e+8 
           4090      6.18555e+8 
           4110      5.43056e+8 
           4130      6.18801e+8 
           4150      6.11845e+8 
           4170      6.05622e+8 
           4190      5.97536e+8 
           4210      5.88004e+8 
           4230      5.78583e+8 
           4250       5.6925e+8 
           4270      5.59694e+8 
           4290      5.51253e+8 
           4310      5.40856e+8 
           4330      5.00708e+8 
           4350      4.57172e+8 
           4370      5.15138e+8 
           4390       4.9814e+8 
           4410      5.01457e+8 
           4430      4.91699e+8 
           4450      4.86338e+8 
           4470      4.62142e+8 
           4490      4.71358e+8 
           4510      4.64464e+8 
           4530      4.57416e+8 
           4550      4.50456e+8 
           4570      4.43654e+8 
           4590      4.37078e+8 
           4610      4.30617e+8 
           4630      4.24233e+8 
           4650      4.17665e+8 
           4670      4.11746e+8 
           4690       4.0569e+8 
           4710      3.95085e+8 
           4730       3.9394e+8 
           4750      3.88142e+8 
           4770      3.82692e+8 
           4790      3.77171e+8 
           4810      3.71713e+8 
           4830      3.65088e+8 
           4850      3.43024e+8 
           4870      3.07189e+8 
           4890      3.49062e+8 
           4910      3.45771e+8 
           4930      3.34462e+8 
           4950      3.36439e+8 
           4970      3.31769e+8 
           4990      3.27148e+8 
           5010      3.19033e+8 
           5030      3.18154e+8 
           5050      3.11887e+8 
           5070      3.09475e+8 
           5090      3.05244e+8 
           5110      3.01085e+8 
           5130      2.96996e+8 
           5150      2.92975e+8 
           5170      2.89035e+8 
           5190      2.85147e+8 
           5210      2.81311e+8 
           5230       2.7758e+8 
           5250      2.73883e+8 
           5270      2.70262e+8 
           5290      2.66688e+8 
           5310      2.63173e+8 
           5330      2.59716e+8 
           5350      2.56317e+8 
           5370      2.52987e+8 
           5390        2.497e+8 
           5410      2.46467e+8 
           5430      2.43275e+8 
           5450      2.40148e+8 
           5470      2.37073e+8 
           5490      2.34049e+8 
           5510      2.31062e+8 
           5530      2.28125e+8 
           5550      2.25237e+8 
           5570      2.22396e+8 
           5590      2.19601e+8 
           5610      2.16841e+8 
           5630      2.14139e+8 
           5650      2.11457e+8 
           5670      2.08831e+8 
           5690      2.06249e+8 
           5710       2.0372e+8 
           5730      2.01211e+8 
           5750      1.98731e+8 
           5770      1.96314e+8 
           5790      1.93916e+8 
           5810      1.91567e+8 
           5830      1.89246e+8 
           5850      1.86953e+8 
           5870      1.79755e+8 
           5890      1.82381e+8 
           5910      1.80307e+8 
           5930       1.7815e+8 
           5950      1.76029e+8 
           5970      1.73942e+8 
           5990       1.7189e+8 
           6010      1.69862e+8 
           6030      1.67866e+8 
           6050      1.65904e+8 
           6070      1.63964e+8 
           6090      1.62056e+8 
           6110      1.60169e+8 
           6130      1.58314e+8 
           6150      1.56489e+8 
           6170      1.54684e+8 
           6190       1.5291e+8 
           6210      1.51164e+8 
           6230      1.49438e+8 
           6250      1.47741e+8 
           6270      1.46062e+8 
           6290      1.44411e+8 
           6310      1.42778e+8 
           6330      1.41172e+8 
           6350      1.39574e+8 
           6370      1.38021e+8 
           6390      1.36494e+8 
           6410      1.34974e+8 
           6430       1.3348e+8 
           6450      1.32001e+8 
           6470      1.30548e+8 
           6490      1.29109e+8 
           6510      1.27695e+8 
           6530      1.25986e+8 
           6550       1.2153e+8 
           6570      1.08572e+8 
           6590       1.2143e+8 
           6610      1.20851e+8 
           6630        1.196e+8 
           6650      1.18405e+8 
           6670      1.16121e+8 
           6690      1.14906e+8 
           6710       1.1464e+8 
           6730      1.13427e+8 
           6750      1.12219e+8 
           6770      1.11031e+8 
           6790      1.09863e+8 
           6810      1.08707e+8 
           6830      1.07562e+8 
           6850      1.06437e+8 
           6870      1.05324e+8 
           6890      1.04229e+8 
           6910      1.03145e+8 
           6930      1.02072e+8 
           6950      1.01025e+8 
           6970      9.99811e+7 
           6990      9.89395e+7 
           7010      9.79387e+7 
           7030      9.69401e+7 
           7050      9.59513e+7 
           7070      9.34873e+7 
           7090      9.40098e+7 
           7110      9.30569e+7 
           7130      9.21206e+7 
           7150      9.11932e+7 
           7170      9.02528e+7 
           7190      8.93725e+7 
           7210      8.84788e+7 
           7230      8.75503e+7 
           7250      8.67239e+7 
           7270      8.58625e+7 
           7290      8.43358e+7 
           7310       8.4164e+7 
           7330      8.33477e+7 
           7350      8.25321e+7 
           7370      8.17242e+7 
           7390      8.09237e+7 
           7410      8.01307e+7 
           7430      7.93518e+7 
           7450      7.86005e+7 
           7470      7.78359e+7 
           7490       7.7085e+7 
           7510      7.63143e+7 
           7530      7.56105e+7 
           7550      7.48866e+7 
           7570      7.41692e+7 
           7590       7.3465e+7 
           7610      7.27671e+7 
           7630      7.20755e+7 
           7650      7.13901e+7 
           7670      7.07173e+7 
           7690      7.00506e+7 
           7710      6.93897e+7 
           7730      6.87411e+7 
           7750       6.8092e+7 
           7770      6.74549e+7 
           7790      6.68358e+7 
           7810      6.61604e+7 
           7830      6.56016e+7 
           7850      6.50721e+7 
           7870      6.44681e+7 
           7890      6.38391e+7 
           7910      6.32939e+7 
           7930      6.26096e+7 
           7950       6.1985e+7 
           7970      6.13778e+7 
           7990      6.08467e+7 
           8010      6.02672e+7 
           8030      5.97454e+7 
           8050      5.92454e+7 
           8070      5.87496e+7 
           8090      5.80911e+7 
           8110      5.76503e+7 
           8130      5.72188e+7 
           8150      5.65867e+7 
           8170       5.6209e+7 
           8190      5.56332e+7 
           8210      5.50427e+7 
           8230      5.47405e+7 
           8250      5.42679e+7 
           8270      5.34934e+7 
           8290      5.32438e+7 
           8310      5.27964e+7 
           8330      5.23227e+7 
           8350      5.16001e+7 
           8370      5.12753e+7 
           8390       5.0899e+7 
           8410      5.04244e+7 
           8430      4.99034e+7 
           8450      4.92016e+7 
           8470      4.87946e+7 
           8490      4.87004e+7 
           8510      4.77023e+7 
           8530      4.80873e+7 
           8550      4.61125e+7 
           8570      4.80667e+7 
