# Kurucz ODFNEW /NOVER (2003)
# teff = 8000 K (value for the effective temperature for the model. Temperatures are given in K)
# logg = 5 log(cm/s2) (value for Log(G) for the model.)
# meta = 0.2  (value for the Metallicity for the model.)
# lh = 1.25  (l/Hp where l is the  mixing length of the convective element and Hp is the pressure scale height)
# vtur = 2 km/s (Microturbulence velocity)
# alpha = 0  (Alpha)
#
# column 1: WAVELENGTH (ANGSTROM), Wavelength in Angstrom
# column 2: FLUX (ERG/CM2/S/A), Flux in erg/cm2/s/A
            328     5.11742e-24 
            338     4.97441e-23 
            348     4.21575e-22 
            357     2.58679e-21 
            366     1.44669e-20 
            375     7.40519e-20 
            385     4.13341e-19 
            395     2.10184e-18 
            405     9.81345e-18 
            414     3.67111e-17 
            422      1.1272e-16 
            430     3.30968e-16 
            441     1.35957e-15 
            451     4.60389e-15 
            460     1.31448e-14 
            470     4.00929e-14 
            480     1.16274e-13 
            490     3.21875e-13 
            500      8.5177e-13 
            506     1.97785e-12 
            512     3.86525e-12 
            520     7.84988e-12 
            530     1.85521e-11 
            540     4.15914e-11 
            550     9.16654e-11 
            560     1.94539e-10 
            570     4.00894e-10 
            580     7.93853e-10 
            590      1.56861e-9 
            600      2.98705e-9 
            610      5.56428e-9 
            620      1.01219e-8 
            630      1.80316e-8 
            640      3.14812e-8 
            650      5.39566e-8 
            658      8.19137e-8 
            665      1.16727e-7 
            675      1.91455e-7 
            685      3.08971e-7 
            695      4.90721e-7 
            705      7.63502e-7 
            716      1.23493e-6 
            726      1.87616e-6 
            735       2.7033e-6 
            745      4.00612e-6 
            755      5.87064e-6 
            765      8.50824e-6 
            775      1.21927e-5 
            785      1.73104e-5 
            795      2.40251e-5 
            805      3.35811e-5 
            815      4.64581e-5 
            825      6.34262e-5 
            835      8.58309e-5 
            845     0.000115189 
            855     0.000153356 
            865     0.000202552 
            875      0.00026444 
            885     0.000345486 
            895     0.000446615 
            905     0.000570873 
            915        0.207469 
            925        0.616416 
            935        0.808596 
            945         1.07034 
            955         1.43975 
            965         1.84949 
            975         2.27914 
            985         2.89036 
            995         3.55863 
           1005         4.62433 
           1015         5.74186 
           1025         6.80004 
           1035         8.68828 
           1045         10.6744 
           1055         13.0441 
           1065         15.7152 
           1075         19.2165 
           1085         23.3172 
           1095         27.7734 
           1105         69.8586 
           1115         207.855 
           1125         295.064 
           1135         411.844 
           1145         512.957 
           1155         562.457 
           1165         752.501 
           1175         893.563 
           1185         942.504 
           1195          629.19 
           1205          678.88 
           1215         206.154 
           1225         783.773 
           1235         1531.99 
           1245          2889.1 
           1255         5669.27 
           1265         5475.46 
           1275         7552.09 
           1285           10012 
           1295         11722.2 
           1305         10804.4 
           1315           14282 
           1325         16279.9 
           1335         17883.5 
           1345         21016.6 
           1355         21708.8 
           1365         24042.7 
           1375         25880.1 
           1385         27404.9 
           1395         30927.8 
           1405         34124.7 
           1415         35898.2 
           1425         39473.9 
           1435         40352.7 
           1442         46183.4 
           1447         48013.1 
           1455         52673.9 
           1465         53824.9 
           1475         58531.3 
           1485         63813.7 
           1495         70667.6 
           1505         77212.9 
           1512         78623.7 
           1517         84151.9 
           1525         95258.6 
           1535          137082 
           1545          192277 
           1555          209474 
           1565          193593 
           1575          262384 
           1585          297008 
           1595          339246 
           1605          347331 
           1615          369894 
           1625          382461 
           1635          539821 
           1645      1.02478e+6 
           1655          595664 
           1665      1.32258e+6 
           1672          821058 
           1677      2.24297e+6 
           1685      3.66549e+6 
           1695      2.15047e+6 
           1705      3.62899e+6 
           1715      7.15027e+6 
           1725       8.1616e+6 
           1735      1.16169e+7 
           1745       1.0929e+7 
           1755      1.47865e+7 
           1765      8.13616e+6 
           1775      1.29378e+7 
           1785       1.4108e+7 
           1795       1.8986e+7 
           1805      1.43441e+7 
           1815      1.48314e+7 
           1825      1.31932e+7 
           1835      1.26236e+7 
           1845      9.76988e+6 
           1855      1.31586e+7 
           1865      1.73427e+7 
           1875      1.61317e+7 
           1885      1.69703e+7 
           1895      1.83139e+7 
           1905      1.65681e+7 
           1915      1.88271e+7 
           1925      1.69159e+7 
           1935      1.00676e+7 
           1945      1.96997e+7 
           1955      2.06401e+7 
           1967      2.34708e+7 
           1976      2.24374e+7 
           1984      2.06183e+7 
           1995       2.1128e+7 
           2005      1.85936e+7 
           2015      1.89811e+7 
           2025      1.67582e+7 
           2035      2.10087e+7 
           2045      2.30486e+7 
           2055      2.18712e+7 
           2065      2.10168e+7 
           2074       2.5001e+7 
           2078      2.79898e+7 
           2085      2.64009e+7 
           2095      2.39487e+7 
           2105      2.20136e+7 
           2115      2.34793e+7 
           2125      2.41441e+7 
           2135      1.94579e+7 
           2145      2.41864e+7 
           2155      2.39924e+7 
           2165      2.15514e+7 
           2175      2.14723e+7 
           2185      2.43103e+7 
           2195      2.62247e+7 
           2205      2.43447e+7 
           2215       2.0617e+7 
           2225      2.09291e+7 
           2235      2.56353e+7 
           2245      2.30551e+7 
           2255      2.02233e+7 
           2265      1.98277e+7 
           2275      2.19183e+7 
           2285      2.43395e+7 
           2295      2.09178e+7 
           2305      2.27738e+7 
           2315      2.17909e+7 
           2325      2.12038e+7 
           2335      1.75505e+7 
           2345      1.32776e+7 
           2355      2.08002e+7 
           2365      1.42421e+7 
           2375      1.74792e+7 
           2385      1.18319e+7 
           2395      1.44366e+7 
           2405      1.42797e+7 
           2415      1.46539e+7 
           2425      1.97486e+7 
           2435      1.86242e+7 
           2445      2.11303e+7 
           2455      2.12366e+7 
           2465      2.10907e+7 
           2475      1.87964e+7 
           2485      1.82459e+7 
           2495      1.71933e+7 
           2505      2.29729e+7 
           2513      1.71603e+7 
           2518      1.66483e+7 
           2525      1.47858e+7 
           2535      1.36881e+7 
           2545      1.22889e+7 
           2555      1.49012e+7 
           2565      1.52038e+7 
           2575      1.93352e+7 
           2585      1.97497e+7 
           2595      1.93063e+7 
           2605      1.75273e+7 
           2615      1.61138e+7 
           2625      2.08571e+7 
           2635      2.24392e+7 
           2645      2.77231e+7 
           2655      2.98149e+7 
           2665      2.31011e+7 
           2675      2.61987e+7 
           2685       2.6597e+7 
           2695      2.32552e+7 
           2705      2.55338e+7 
           2715      2.22607e+7 
           2725      2.27997e+7 
           2735       2.5162e+7 
           2745      1.73275e+7 
           2755      1.94643e+7 
           2765       2.1654e+7 
           2775      2.47462e+7 
           2785      2.00483e+7 
           2795      8.66205e+6 
           2805      1.14637e+7 
           2815      2.56277e+7 
           2825      2.93916e+7 
           2835      2.76031e+7 
           2845      2.57138e+7 
           2855      2.11806e+7 
           2865      2.76564e+7 
           2875      2.74438e+7 
           2885      2.70081e+7 
           2895      2.59705e+7 
           2910      3.11968e+7 
           2930      2.88284e+7 
           2950      2.86669e+7 
           2970      3.04697e+7 
           2990      3.03369e+7 
           3010      3.11426e+7 
           3030      3.07997e+7 
           3050      3.08774e+7 
           3070      3.14937e+7 
           3090      3.18686e+7 
           3110      3.09614e+7 
           3130      3.07443e+7 
           3150      3.15397e+7 
           3170      3.13668e+7 
           3190      2.89108e+7 
           3210      3.01073e+7 
           3230      2.79941e+7 
           3250      2.98234e+7 
           3270      3.11368e+7 
           3290      3.09835e+7 
           3310       3.1705e+7 
           3330      3.09937e+7 
           3350      3.05093e+7 
           3370       2.9796e+7 
           3390      3.01178e+7 
           3410      2.99077e+7 
           3430      2.99327e+7 
           3450        2.997e+7 
           3470      2.96296e+7 
           3490      2.98096e+7 
           3510       3.0295e+7 
           3530      2.96996e+7 
           3550      3.09903e+7 
           3570      2.89565e+7 
           3590      2.85833e+7 
           3610      2.87708e+7 
           3630      2.89361e+7 
           3640      2.85697e+7 
           3650      3.04664e+7 
           3670      3.00541e+7 
           3690      2.92505e+7 
           3710      2.88813e+7 
           3730      2.70068e+7 
           3750      2.99481e+7 
           3770      3.14363e+7 
           3790       3.6878e+7 
           3810      4.19497e+7 
           3830      3.33894e+7 
           3850      4.59039e+7 
           3870      5.07709e+7 
           3890      3.21781e+7 
           3910       5.0489e+7 
           3930      4.15149e+7 
           3950      4.96213e+7 
           3970      2.93287e+7 
           3990      5.07162e+7 
           4010      5.74603e+7 
           4030      5.79213e+7 
           4050      5.68453e+7 
           4070      5.41115e+7 
           4090      4.42893e+7 
           4110      3.51035e+7 
           4130       5.2427e+7 
           4150      5.62081e+7 
           4170      5.65195e+7 
           4190       5.5919e+7 
           4210      5.60479e+7 
           4230      5.39863e+7 
           4250      5.49498e+7 
           4270      5.24899e+7 
           4290      5.26505e+7 
           4310      4.77886e+7 
           4330       3.8726e+7 
           4350      3.34891e+7 
           4370      4.93477e+7 
           4390      5.10396e+7 
           4410      5.07908e+7 
           4430      4.98284e+7 
           4450      5.08711e+7 
           4470      5.09373e+7 
           4490      5.02845e+7 
           4510      5.20288e+7 
           4530      4.97309e+7 
           4550      4.93529e+7 
           4570      5.07834e+7 
           4590      4.88398e+7 
           4610      4.94823e+7 
           4630      4.82385e+7 
           4650      4.84534e+7 
           4670      4.85765e+7 
           4690      4.64658e+7 
           4710      4.42991e+7 
           4730      4.69024e+7 
           4750      4.66936e+7 
           4770       4.5975e+7 
           4790       4.5298e+7 
           4810      4.40509e+7 
           4830      4.17232e+7 
           4850      3.28482e+7 
           4870      2.67303e+7 
           4890      3.89852e+7 
           4910      4.14435e+7 
           4930      4.12986e+7 
           4950      4.22663e+7 
           4970      4.25658e+7 
           4990      4.08682e+7 
           5010      3.95834e+7 
           5030      4.07732e+7 
           5050      4.00047e+7 
           5070      4.07494e+7 
           5090      4.00444e+7 
           5110      4.01226e+7 
           5130      3.92821e+7 
           5150      3.83384e+7 
           5170      3.73419e+7 
           5190      3.69539e+7 
           5210      3.74424e+7 
           5230      3.71924e+7 
           5250      3.77133e+7 
           5270      3.50171e+7 
           5290      3.68274e+7 
           5310      3.65719e+7 
           5330       3.4696e+7 
           5350      3.58849e+7 
           5370      3.55201e+7 
           5390      3.52194e+7 
           5410      3.42116e+7 
           5430      3.46896e+7 
           5450      3.47259e+7 
           5470      3.42849e+7 
           5490      3.39805e+7 
           5510      3.39055e+7 
           5530      3.34895e+7 
           5550      3.34956e+7 
           5570      3.28754e+7 
           5590      3.24718e+7 
           5610      3.24861e+7 
           5630      3.24803e+7 
           5650      3.21528e+7 
           5670      3.15714e+7 
           5690      3.15686e+7 
           5710      3.12542e+7 
           5730       3.1578e+7 
           5750      3.09348e+7 
           5770      3.08475e+7 
           5790      3.04954e+7 
           5810      3.03729e+7 
           5830      3.02335e+7 
           5850      2.98136e+7 
           5870      2.95966e+7 
           5890      2.88215e+7 
           5910      2.91304e+7 
           5930      2.88936e+7 
           5950      2.86879e+7 
           5970      2.84865e+7 
           5990      2.81549e+7 
           6010       2.7731e+7 
           6030      2.75816e+7 
           6050      2.75282e+7 
           6070       2.7436e+7 
           6090      2.70784e+7 
           6110       2.6748e+7 
           6130      2.61878e+7 
           6150      2.58315e+7 
           6170      2.56276e+7 
           6190      2.60345e+7 
           6210      2.58583e+7 
           6230      2.54441e+7 
           6250      2.47916e+7 
           6270      2.52719e+7 
           6290         2.51e+7 
           6310      2.46138e+7 
           6330       2.4497e+7 
           6350      2.41299e+7 
           6370      2.39944e+7 
           6390      2.39663e+7 
           6410      2.35235e+7 
           6430      2.34849e+7 
           6450      2.30135e+7 
           6470      2.29453e+7 
           6490      2.24937e+7 
           6510      2.22224e+7 
           6530      2.12807e+7 
           6550      1.83094e+7 
           6570      1.48126e+7 
           6590      1.99503e+7 
           6610      2.12317e+7 
           6630      2.15032e+7 
           6650      2.15121e+7 
           6670       2.1357e+7 
           6690      2.13532e+7 
           6710      2.11742e+7 
           6730      2.10511e+7 
           6750      2.07372e+7 
           6770      2.07866e+7 
           6790       2.0617e+7 
           6810      2.04497e+7 
           6830       2.0276e+7 
           6850      2.00783e+7 
           6870      2.00135e+7 
           6890      1.98697e+7 
           6910      1.97083e+7 
           6930      1.95468e+7 
           6950      1.94173e+7 
           6970      1.92525e+7 
           6990      1.91472e+7 
           7010      1.87667e+7 
           7030      1.87706e+7 
           7050      1.86885e+7 
           7070      1.85512e+7 
           7090      1.84182e+7 
           7110      1.79287e+7 
           7130       1.8018e+7 
           7150      1.79092e+7 
           7170      1.77501e+7 
           7190      1.75648e+7 
           7210      1.75327e+7 
           7230      1.73984e+7 
           7250      1.72351e+7 
           7270       1.7211e+7 
           7290      1.69324e+7 
           7310      1.69181e+7 
           7330      1.67838e+7 
           7350      1.67345e+7 
           7370      1.66112e+7 
           7390      1.63703e+7 
           7410      1.61565e+7 
           7430      1.60478e+7 
           7450      1.59984e+7 
           7470       1.5844e+7 
           7490      1.57649e+7 
           7510      1.57278e+7 
           7530      1.56357e+7 
           7550       1.5586e+7 
           7570      1.54374e+7 
           7590       1.5343e+7 
           7610      1.52143e+7 
           7630      1.51308e+7 
           7650      1.49913e+7 
           7670      1.47614e+7 
           7690      1.47121e+7 
           7710      1.46442e+7 
           7730      1.45905e+7 
           7750      1.44244e+7 
           7770      1.40813e+7 
           7790      1.43238e+7 
           7810      1.41875e+7 
           7830      1.40095e+7 
           7850      1.38832e+7 
           7870      1.38157e+7 
           7890       1.3698e+7 
           7910      1.35872e+7 
           7930      1.34062e+7 
           7950      1.33436e+7 
           7970      1.34309e+7 
           7990      1.32309e+7 
           8010       1.3199e+7 
           8030       1.3079e+7 
           8050      1.30112e+7 
           8070       1.2937e+7 
           8090      1.28201e+7 
           8110      1.27896e+7 
           8130      1.27313e+7 
           8150      1.26354e+7 
           8170      1.25477e+7 
           8190      1.22371e+7 
           8210      1.21915e+7 
           8230      1.21168e+7 
           8250      1.20708e+7 
           8270      1.21519e+7 
           8290      1.20533e+7 
           8310      1.19152e+7 
           8330      1.17407e+7 
           8350      1.17829e+7 
           8370      1.17632e+7 
           8390      1.16318e+7 
           8410      1.16069e+7 
           8430      1.14824e+7 
           8450      1.12413e+7 
           8470      1.12991e+7 
           8490      1.12067e+7 
           8510      1.08082e+7 
           8530      1.10511e+7 
           8550      1.00008e+7 
           8570      1.10375e+7 
           8590      1.06921e+7 
           8610      1.05723e+7 
           8630      1.08517e+7 
           8650      1.05755e+7 
           8670      9.30586e+6 
           8690      1.03651e+7 
           8710      1.06751e+7 
           8730      1.03568e+7 
           8750      9.13254e+6 
           8770      1.00544e+7 
           8790      1.04841e+7 
           8810      1.04579e+7 
           8830      1.01724e+7 
           8850      9.39485e+6 
           8870      8.42743e+6 
           8890      9.83246e+6 
           8910       1.0158e+7 
           8930      1.01645e+7 
           8950      1.02278e+7 
           8970      1.00146e+7 
           8990      9.57671e+6 
           9010      7.99029e+6 
           9030      8.58836e+6 
           9050      9.56376e+6 
           9070      9.58345e+6 
           9090      9.46838e+6 
           9110      9.71147e+6 
           9130      9.78195e+6 
           9150      9.73069e+6 
           9170      9.55567e+6 
           9190      9.27191e+6 
           9210      8.58282e+6 
           9230      7.00368e+6 
           9250      8.26394e+6 
           9270      8.82411e+6 
           9290      9.20695e+6 
           9310      9.27001e+6 
           9330      9.24373e+6 
           9350      9.22836e+6 
           9370      9.19801e+6 
