# Kurucz ODFNEW /NOVER (2003)
# teff = 22000 K (value for the effective temperature for the model. Temperatures are given in K)
# logg = 3 log(cm/s2) (value for Log(G) for the model.)
# meta = -1  (value for the Metallicity for the model.)
# lh = 1.25  (l/Hp where l is the  mixing length of the convective element and Hp is the pressure scale height)
# vtur = 2 km/s (Microturbulence velocity)
# alpha = 0.4  (Alpha)
#
# column 1: WAVELENGTH (ANGSTROM), Wavelength in Angstrom
# column 2: FLUX (ERG/CM2/S/A), Flux in erg/cm2/s/A
          147.2     1.75761e-17 
            151     9.90639e-17 
          155.2     6.09942e-16 
          158.8      2.6922e-15 
            162     9.55217e-15 
            166     4.35024e-14 
          170.3     2.05277e-13 
          173.4     5.99433e-13 
          176.8     1.85905e-12 
          180.2     5.52401e-12 
          181.7     8.81537e-12 
          186.1     3.32585e-11 
            191     1.35683e-10 
          193.9     3.01386e-10 
          198.4     9.91626e-10 
          201.8      2.35224e-9 
            205      5.16305e-9 
          210.5      1.88304e-8 
          216.2      6.70147e-8 
          219.8      1.44229e-7 
            223      2.78981e-7 
          226.8      5.95596e-7 
            230      2.93151e-5 
            234      7.21315e-5 
            240     0.000187966 
          246.5     0.000504672 
          252.4      0.00119673 
          256.8      0.00206456 
            260      0.00339959 
            264      0.00566802 
          268.5      0.00999825 
          273.5       0.0182356 
          278.5        0.032787 
            284       0.0621639 
            290        0.118058 
            296        0.218566 
            301        0.355773 
            308        0.670428 
            318         1.75274 
            328         3.98741 
            338         8.97504 
            348         18.8526 
            357         41.2026 
            366         76.6249 
            375         131.548 
            385         238.464 
            395         418.054 
            405         705.433 
            414         1117.14 
            422         1613.76 
            430         2338.82 
            441         3794.78 
            451          5782.6 
            460         8210.78 
            470         12055.5 
            480         17260.2 
            490           24518 
            500         34306.5 
            506          320734 
            512      1.18106e+6 
            520      1.42945e+6 
            530      1.90779e+6 
            540      2.07356e+6 
            550      3.00811e+6 
            560      3.58181e+6 
            570      4.42915e+6 
            580      4.38849e+6 
            590      5.87616e+6 
            600      7.05468e+6 
            610      8.47636e+6 
            620       9.6313e+6 
            630       1.1076e+7 
            640      1.19181e+7 
            650      1.26973e+7 
            658       1.5683e+7 
            665      1.70405e+7 
            675      1.81988e+7 
            685       1.9982e+7 
            695      2.39745e+7 
            705      2.57004e+7 
            716      2.94355e+7 
            726      3.16471e+7 
            735      3.42904e+7 
            745      3.88489e+7 
            755      4.25038e+7 
            765      4.63926e+7 
            775      5.09486e+7 
            785      5.55491e+7 
            795      5.92318e+7 
            805      6.36753e+7 
            815      6.73743e+7 
            825      7.36494e+7 
            835      7.28793e+7 
            845       8.1854e+7 
            855      8.69385e+7 
            865      9.33837e+7 
            875      1.00507e+8 
            885      1.08398e+8 
            895      1.14976e+8 
            905      1.18595e+8 
            915      2.39512e+8 
            925      3.23143e+9 
            935      6.94357e+9 
            945     1.11332e+10 
            955     1.24995e+10 
            965     1.39162e+10 
            975      4.59823e+9 
            985     1.27682e+10 
            995      1.2192e+10 
           1005     1.32945e+10 
           1015     1.32624e+10 
           1025      8.49647e+9 
           1035     1.10857e+10 
           1045      1.4837e+10 
           1055     1.39894e+10 
           1065     1.21489e+10 
           1075     1.35927e+10 
           1085     1.24668e+10 
           1095     1.37983e+10 
           1105     1.24787e+10 
           1115     1.22695e+10 
           1125     1.09549e+10 
           1135     1.30291e+10 
           1145     1.20226e+10 
           1155     1.24861e+10 
           1165      1.2586e+10 
           1175      9.45354e+9 
           1185     1.21964e+10 
           1195      1.1116e+10 
           1205      7.34298e+9 
           1215      6.42461e+9 
           1225     1.06665e+10 
           1235     1.14598e+10 
           1245     1.14065e+10 
           1255     1.11472e+10 
           1265     1.10338e+10 
           1275     1.13015e+10 
           1285     1.10238e+10 
           1295      8.37396e+9 
           1305        8.952e+9 
           1315     1.06736e+10 
           1325      1.0194e+10 
           1335      9.83452e+9 
           1345      9.91374e+9 
           1355      9.99427e+9 
           1365      9.45309e+9 
           1375      9.29596e+9 
           1385       9.2443e+9 
           1395      7.36104e+9 
           1405      7.87324e+9 
           1415      8.67566e+9 
           1425      8.50237e+9 
           1435      8.64114e+9 
           1442      8.76472e+9 
           1447      8.60511e+9 
           1455      8.42835e+9 
           1465      8.12358e+9 
           1475      8.07181e+9 
           1485      7.94639e+9 
           1495       7.7983e+9 
           1505      7.38199e+9 
           1512      6.92341e+9 
           1517      7.09606e+9 
           1525      7.13731e+9 
           1535      6.48789e+9 
           1545      6.55032e+9 
           1555      6.25586e+9 
           1565      6.54148e+9 
           1575      6.72657e+9 
           1585      6.61992e+9 
           1595      6.62528e+9 
           1605      6.43637e+9 
           1615      6.32412e+9 
           1625      6.28433e+9 
           1635      6.42965e+9 
           1645      6.32067e+9 
           1655      6.25566e+9 
           1665      6.24828e+9 
           1672      6.09514e+9 
           1677      6.33574e+9 
           1685      6.19955e+9 
           1695      5.97989e+9 
           1705      5.80122e+9 
           1715      5.57315e+9 
           1725      5.53176e+9 
           1735      5.58782e+9 
           1745      5.49414e+9 
           1755      5.51317e+9 
           1765      5.35945e+9 
           1775      5.18636e+9 
           1785      5.19001e+9 
           1795      5.25944e+9 
           1805      5.25174e+9 
           1815      4.90607e+9 
           1825      5.00413e+9 
           1835      4.89436e+9 
           1845      4.53843e+9 
           1855      4.51568e+9 
           1865      4.58166e+9 
           1875      4.67383e+9 
           1885      4.28085e+9 
           1895      4.01275e+9 
           1905      4.27262e+9 
           1915      4.09415e+9 
           1925      3.94345e+9 
           1935      4.10333e+9 
           1945      4.15176e+9 
           1955      3.83016e+9 
           1967       4.0487e+9 
           1976      4.19387e+9 
           1984      3.93463e+9 
           1995       3.8464e+9 
           2005      3.91674e+9 
           2015       3.9109e+9 
           2025      3.97665e+9 
           2035      3.71405e+9 
           2045      3.72556e+9 
           2055      3.60777e+9 
           2065      3.62777e+9 
           2074      3.76504e+9 
           2078      3.52599e+9 
           2085      3.60929e+9 
           2095      3.45132e+9 
           2105      3.52471e+9 
           2115      3.50872e+9 
           2125      3.55061e+9 
           2135      3.48751e+9 
           2145       3.3352e+9 
           2155      3.42259e+9 
           2165      3.39788e+9 
           2175      3.34472e+9 
           2185      3.28727e+9 
           2195        3.286e+9 
           2205      3.25255e+9 
           2215      3.21526e+9 
           2225      3.14761e+9 
           2235      3.10322e+9 
           2245        3.108e+9 
           2255      3.03923e+9 
           2265      3.03918e+9 
           2275      3.00284e+9 
           2285      2.98441e+9 
           2295      2.85682e+9 
           2305      2.90548e+9 
           2315      2.84437e+9 
           2325      2.81396e+9 
           2335      2.74548e+9 
           2345      2.74335e+9 
           2355      2.73647e+9 
           2365      2.70213e+9 
           2375      2.66039e+9 
           2385      2.63356e+9 
           2395      2.60511e+9 
           2405      2.57385e+9 
           2415      2.53288e+9 
           2425      2.53189e+9 
           2435      2.48223e+9 
           2445      2.46783e+9 
           2455      2.45295e+9 
           2465      2.42063e+9 
           2475      2.38985e+9 
           2485      2.35778e+9 
           2495      2.16983e+9 
           2505      2.29891e+9 
           2513      2.23371e+9 
           2518      2.26406e+9 
           2525      2.25011e+9 
           2535      2.22747e+9 
           2545      2.16015e+9 
           2555      2.17553e+9 
           2565       2.1428e+9 
           2575      2.14227e+9 
           2585      2.11654e+9 
           2595      2.09567e+9 
           2605      2.08311e+9 
           2615      2.05999e+9 
           2625      2.04028e+9 
           2635      2.01549e+9 
           2645      2.00028e+9 
           2655      1.98096e+9 
           2665      1.94682e+9 
           2675      1.93292e+9 
           2685      1.92388e+9 
           2695      1.88068e+9 
           2705      1.87355e+9 
           2715      1.85752e+9 
           2725      1.82722e+9 
           2735      1.82018e+9 
           2745       1.7862e+9 
           2755       1.7741e+9 
           2765      1.75069e+9 
           2775      1.75013e+9 
           2785      1.72768e+9 
           2795      1.67271e+9 
           2805      1.68249e+9 
           2815      1.67864e+9 
           2825      1.65068e+9 
           2835      1.61867e+9 
           2845      1.62644e+9 
           2855      1.60661e+9 
           2865      1.59417e+9 
           2875      1.57786e+9 
           2885      1.56368e+9 
           2895      1.54544e+9 
           2910       1.5198e+9 
           2930      1.48929e+9 
           2950      1.45289e+9 
           2970      1.43318e+9 
           2990      1.40299e+9 
           3010      1.37114e+9 
           3030      1.35158e+9 
           3050      1.32662e+9 
           3070      1.30208e+9 
           3090      1.26579e+9 
           3110      1.25131e+9 
           3130       1.2271e+9 
           3150      1.20447e+9 
           3170        1.181e+9 
           3190      1.15161e+9 
           3210      1.13844e+9 
           3230      1.11576e+9 
           3250      1.09632e+9 
           3270      1.07668e+9 
           3290      1.05563e+9 
           3310       1.0384e+9 
           3330      1.01924e+9 
           3350      9.99621e+8 
           3370      9.82882e+8 
           3390      9.66008e+8 
           3410      9.49137e+8 
           3430      9.27822e+8 
           3450      9.08424e+8 
           3470      8.94791e+8 
           3490      8.79678e+8 
           3510      8.69009e+8 
           3530      8.55078e+8 
           3550      8.40358e+8 
           3570      8.28989e+8 
           3590      8.09781e+8 
           3610      7.96381e+8 
           3630      7.83255e+8 
           3640      7.81403e+8 
           3650       7.6542e+8 
           3670      7.55478e+8 
           3690      7.30738e+8 
           3710      7.26192e+8 
           3730      7.24464e+8 
           3750      7.87884e+8 
           3770      7.84238e+8 
           3790      7.96361e+8 
           3810      8.18906e+8 
           3830      7.40623e+8 
           3850      8.18931e+8 
           3870       8.0347e+8 
           3890      7.11031e+8 
           3910      7.89234e+8 
           3930      7.66635e+8 
           3950      7.62296e+8 
           3970      6.60362e+8 
           3990      7.36747e+8 
           4010      7.25153e+8 
           4030      6.98836e+8 
           4050      7.05548e+8 
           4070      6.86941e+8 
           4090      6.62335e+8 
           4110      6.02581e+8 
           4130      6.51224e+8 
           4150      6.44306e+8 
           4170      6.38227e+8 
           4190      6.29402e+8 
           4210      6.21247e+8 
           4230      6.10796e+8 
           4250      5.99284e+8 
           4270      5.85956e+8 
           4290       5.7987e+8 
           4310      5.69451e+8 
           4330      5.43306e+8 
           4350      5.01987e+8 
           4370      5.43525e+8 
           4390      5.31136e+8 
           4410      5.28383e+8 
           4430      5.20648e+8 
           4450         5.14e+8 
           4470      4.95062e+8 
           4490      4.97706e+8 
           4510      4.92302e+8 
           4530      4.84697e+8 
           4550      4.76769e+8 
           4570      4.69286e+8 
           4590      4.62666e+8 
           4610      4.55824e+8 
           4630       4.4954e+8 
           4650      4.39008e+8 
           4670       4.3574e+8 
           4690      4.30747e+8 
           4710      4.18164e+8 
           4730      4.17396e+8 
           4750      4.10767e+8 
           4770       4.0728e+8 
           4790      4.01324e+8 
           4810      3.94867e+8 
           4830      3.88713e+8 
           4850      3.74896e+8 
           4870      3.42389e+8 
           4890      3.73104e+8 
           4910      3.68399e+8 
           4930      3.57898e+8 
           4950      3.57657e+8 
           4970       3.5367e+8 
           4990      3.48662e+8 
           5010      3.39175e+8 
           5030      3.39104e+8 
           5050      3.32051e+8 
           5070      3.30052e+8 
           5090      3.25471e+8 
           5110      3.21038e+8 
           5130      3.16378e+8 
           5150      3.12193e+8 
           5170      3.08345e+8 
           5190      3.04322e+8 
           5210      2.99825e+8 
           5230      2.96366e+8 
           5250      2.92486e+8 
           5270      2.88533e+8 
           5290      2.84862e+8 
           5310       2.8109e+8 
           5330      2.77419e+8 
           5350      2.73678e+8 
           5370      2.70362e+8 
           5390      2.66804e+8 
           5410      2.63432e+8 
           5430      2.59885e+8 
           5450      2.56598e+8 
           5470      2.53353e+8 
           5490      2.50235e+8 
           5510      2.47107e+8 
           5530      2.43943e+8 
           5550      2.40953e+8 
           5570      2.37878e+8 
           5590      2.34961e+8 
           5610      2.31948e+8 
           5630      2.29174e+8 
           5650      2.25973e+8 
           5670      2.23046e+8 
           5690      2.20154e+8 
           5710      2.17956e+8 
           5730      2.15335e+8 
           5750      2.12427e+8 
           5770      2.10199e+8 
           5790      2.07648e+8 
           5810      2.05138e+8 
           5830      2.02591e+8 
           5850      2.00218e+8 
           5870      1.93466e+8 
           5890      1.95064e+8 
           5910      1.93056e+8 
           5930      1.90717e+8 
           5950      1.88383e+8 
           5970      1.86394e+8 
           5990      1.84059e+8 
           6010      1.82012e+8 
           6030      1.79843e+8 
           6050      1.77781e+8 
           6070      1.75743e+8 
           6090      1.73696e+8 
           6110      1.71703e+8 
           6130      1.69733e+8 
           6150      1.67625e+8 
           6170      1.65797e+8 
           6190      1.63951e+8 
           6210      1.62096e+8 
           6230      1.60251e+8 
           6250      1.58388e+8 
           6270      1.56632e+8 
           6290      1.54866e+8 
           6310      1.53081e+8 
           6330       1.5142e+8 
           6350      1.49505e+8 
           6370      1.47964e+8 
           6390      1.46385e+8 
           6410      1.44767e+8 
           6430      1.43202e+8 
           6450      1.41609e+8 
           6470       1.3997e+8 
           6490      1.38456e+8 
           6510      1.36993e+8 
           6530      1.35404e+8 
           6550      1.32155e+8 
           6570       1.1991e+8 
           6590      1.30347e+8 
           6610      1.29689e+8 
           6630      1.28342e+8 
           6650      1.26992e+8 
           6670      1.24801e+8 
           6690      1.23491e+8 
           6710      1.23016e+8 
           6730      1.21637e+8 
           6750      1.20429e+8 
           6770       1.1916e+8 
           6790      1.17748e+8 
           6810      1.16651e+8 
           6830      1.15404e+8 
           6850      1.14233e+8 
           6870      1.13042e+8 
           6890      1.11847e+8 
           6910      1.10672e+8 
           6930      1.09548e+8 
           6950      1.08435e+8 
           6970      1.07325e+8 
           6990      1.06203e+8 
           7010       1.0513e+8 
           7030      1.04052e+8 
           7050         1.03e+8 
           7070      1.00489e+8 
           7090      1.00927e+8 
           7110      9.98832e+7 
           7130       9.8879e+7 
           7150      9.78918e+7 
           7170      9.68994e+7 
           7190       9.5953e+7 
           7210      9.49938e+7 
           7230      9.34528e+7 
           7250      9.30669e+7 
           7270      9.21921e+7 
           7290      9.06023e+7 
           7310      9.03681e+7 
           7330        8.949e+7 
           7350      8.86131e+7 
           7370      8.77513e+7 
           7390      8.68907e+7 
           7410      8.60449e+7 
           7430      8.52002e+7 
           7450      8.43904e+7 
           7470      8.35003e+7 
           7490      8.27662e+7 
           7510      8.19452e+7 
           7530      8.11849e+7 
           7550      8.04117e+7 
           7570      7.96455e+7 
           7590      7.88797e+7 
           7610      7.81144e+7 
           7630      7.73948e+7 
           7650      7.66623e+7 
           7670      7.59364e+7 
           7690      7.52171e+7 
           7710      7.45105e+7 
           7730      7.38102e+7 
           7750      7.31224e+7 
           7770      7.23096e+7 
           7790      7.17712e+7 
           7810       7.1052e+7 
           7830      7.04498e+7 
           7850      6.98407e+7 
           7870       6.9182e+7 
           7890      6.84686e+7 
           7910      6.79121e+7 
           7930      6.71746e+7 
           7950      6.65211e+7 
           7970      6.58911e+7 
           7990      6.53197e+7 
           8010      6.47297e+7 
           8030      6.41857e+7 
           8050      6.36462e+7 
           8070      6.31055e+7 
           8090       6.2414e+7 
           8110      6.18316e+7 
           8130      6.14366e+7 
           8150      6.07667e+7 
           8170      6.03624e+7 
           8190      5.97422e+7 
           8210       5.8982e+7 
           8230      5.86122e+7 
           8250      5.81346e+7 
           8270      5.72864e+7 
           8290      5.70268e+7 
           8310      5.65453e+7 
           8330      5.60461e+7 
           8350      5.53133e+7 
           8370      5.48772e+7 
           8390      5.44713e+7 
           8410      5.39569e+7 
           8430       5.3452e+7 
           8450      5.27297e+7 
           8470      5.21586e+7 
           8490      5.23699e+7 
           8510      5.10067e+7 
           8530      5.17479e+7 
           8550      4.94246e+7 
           8570      5.16276e+7 
           8590      4.91808e+7 
