# Kurucz ODFNEW /NOVER (2003)
# teff = 7500 K (value for the effective temperature for the model. Temperatures are given in K)
# logg = 3.5 log(cm/s2) (value for Log(G) for the model.)
# meta = -4  (value for the Metallicity for the model.)
# lh = 1.25  (l/Hp where l is the  mixing length of the convective element and Hp is the pressure scale height)
# vtur = 2 km/s (Microturbulence velocity)
# alpha = 0.4  (Alpha)
#
# column 1: WAVELENGTH (ANGSTROM), Wavelength in Angstrom
# column 2: FLUX (ERG/CM2/S/A), Flux in erg/cm2/s/A
          147.2     1.73866e-35 
            151     1.65225e-35 
          155.2     1.56403e-35 
          158.8     1.49392e-35 
            162     1.43549e-35 
            166     1.36714e-35 
          170.3     1.29897e-35 
          173.4     1.25294e-35 
          176.8     1.20522e-35 
          180.2     1.16017e-35 
          181.7     1.14109e-35 
          186.1     1.08777e-35 
            191     1.03267e-35 
          193.9     1.00201e-35 
          198.4     9.57076e-36 
          201.8     9.25097e-36 
            205     8.96441e-36 
          210.5     8.50208e-36 
          216.2     8.05969e-36 
          219.8     7.79784e-36 
            223     7.57565e-36 
          226.8     7.32392e-36 
            230     7.12154e-36 
            234     6.88015e-36 
            240     6.54044e-36 
          246.5     6.20006e-36 
          252.4     5.91358e-36 
          256.8     5.71267e-36 
            260     5.57292e-36 
            264     5.40532e-36 
          268.5     5.22566e-36 
          273.5     5.03634e-36 
          278.5     4.85712e-36 
            284     4.67082e-36 
            290     4.47954e-36 
            296     4.29978e-36 
            301     2.74881e-23 
            308     2.20333e-22 
            318     2.72999e-21 
            328     2.85254e-20 
            338      2.5803e-19 
            348     2.04793e-18 
            357     1.19245e-17 
            366     6.34773e-17 
            375     3.10921e-16 
            385     1.66015e-15 
            395     8.11649e-15 
            405     3.65785e-14 
            414     1.32916e-13 
            422     3.98806e-13 
            430     1.14663e-12 
            441     4.58899e-12 
            451     1.52275e-11 
            460     4.27737e-11 
            470     1.28376e-10 
            480     3.67229e-10 
            490      1.00421e-9 
            500      2.63243e-9 
            506      4.60443e-9 
            512      7.94232e-9 
            520      1.60946e-8 
            530      3.77024e-8 
            540      8.54308e-8 
            550      1.87593e-7 
            560      3.99855e-7 
            570      8.28666e-7 
            580      1.67221e-6 
            590      3.29024e-6 
            600      6.32058e-6 
            610      1.18688e-5 
            620      2.18089e-5 
            630      3.92581e-5 
            640      6.92958e-5 
            650     0.000120054 
            658     0.000183951 
            665     0.000264829 
            675     0.000439483 
            685     0.000717827 
            695      0.00115485 
            705       0.0018311 
            716      0.00299205 
            726      0.00461095 
            735      0.00673144 
            745       0.0101312 
            755       0.0150698 
            765       0.0221663 
            775       0.0322534 
            785       0.0464461 
            795       0.0662231 
            805       0.0935102 
            815        0.130841 
            825        0.181445 
            835        0.249485 
            845        0.340216 
            855        0.460269 
            865        0.617942 
            875        0.823503 
            885         1.08965 
            895          1.4319 
            905         1.86919 
            915         3.42358 
            925         10.3954 
            935         17.0588 
            945         29.3124 
            955         42.1331 
            965         51.9648 
            975         42.2531 
            985         95.8146 
            995         119.778 
           1005         127.686 
           1015         116.728 
           1025         104.403 
           1035         184.984 
           1045         285.166 
           1055          362.81 
           1065         470.287 
           1075         555.889 
           1085         673.631 
           1095         749.484 
           1105         834.588 
           1115         921.805 
           1125         1022.65 
           1135         1115.02 
           1145         1186.17 
           1155         1229.85 
           1165         1246.25 
           1175         1070.52 
           1185         1971.02 
           1195         1488.11 
           1205         1220.67 
           1215         901.742 
           1225         1490.45 
           1235         2343.87 
           1245         675.793 
           1255         1426.41 
           1265          3620.8 
           1275         4458.99 
           1285         5378.44 
           1295         6587.84 
           1305         7977.79 
           1315         9771.03 
           1325         11934.1 
           1335         14627.2 
           1345         18655.2 
           1355           24723 
           1365         30801.9 
           1375         34793.1 
           1385         36857.4 
           1395         42450.2 
           1405         60245.4 
           1415         99144.7 
           1425          113980 
           1435          139486 
           1442          171258 
           1447          147974 
           1455          167852 
           1465          162570 
           1475          179497 
           1485          203840 
           1495          235205 
           1505          255674 
           1512          279069 
           1517          235111 
           1525          238385 
           1535          229709 
           1545          191330 
           1555          177083 
           1565          150964 
           1575          147255 
           1585          148760 
           1595          152541 
           1605          162287 
           1615          211805 
           1625          416145 
           1635          957514 
           1645      2.37716e+6 
           1655       3.5421e+6 
           1665      6.13046e+6 
           1672      7.20353e+6 
           1677       8.0544e+6 
           1685      9.05194e+6 
           1695      1.00999e+7 
           1705      1.08671e+7 
           1715      1.17115e+7 
           1725       1.2105e+7 
           1735      1.26301e+7 
           1745      1.26998e+7 
           1755      1.30558e+7 
           1765      1.31985e+7 
           1775      1.34328e+7 
           1785      1.35961e+7 
           1795      1.39712e+7 
           1805         1.39e+7 
           1815      1.40892e+7 
           1825      1.41863e+7 
           1835      1.44897e+7 
           1845      1.43143e+7 
           1855      1.46881e+7 
           1865      1.50054e+7 
           1875      1.51329e+7 
           1885      1.52739e+7 
           1895      1.54163e+7 
           1905      1.53982e+7 
           1915        1.566e+7 
           1925      1.58169e+7 
           1935      1.56649e+7 
           1945       1.6049e+7 
           1955      1.61514e+7 
           1967       1.6285e+7 
           1976      1.62585e+7 
           1984       1.6255e+7 
           1995      1.65277e+7 
           2005      1.65498e+7 
           2015      1.65956e+7 
           2025      1.65616e+7 
           2035      1.68496e+7 
           2045      1.69185e+7 
           2055      1.67863e+7 
           2065      1.68866e+7 
           2074      1.71633e+7 
           2078      1.71889e+7 
           2085      1.72054e+7 
           2095      1.72733e+7 
           2105      1.73272e+7 
           2115      1.73937e+7 
           2125      1.73055e+7 
           2135      1.74586e+7 
           2145       1.7573e+7 
           2155      1.76041e+7 
           2165      1.74467e+7 
           2175      1.75797e+7 
           2185      1.77245e+7 
           2195      1.78308e+7 
           2205      1.76966e+7 
           2215      1.74059e+7 
           2225      1.77162e+7 
           2235      1.79849e+7 
           2245      1.79663e+7 
           2255      1.78066e+7 
           2265      1.77099e+7 
           2275      1.79396e+7 
           2285      1.80239e+7 
           2295      1.79745e+7 
           2305       1.8106e+7 
           2315      1.80856e+7 
           2325       1.8067e+7 
           2335      1.79492e+7 
           2345      1.74888e+7 
           2355       1.8045e+7 
           2365      1.75701e+7 
           2375      1.79989e+7 
           2385      1.74005e+7 
           2395      1.79438e+7 
           2405      1.79832e+7 
           2415      1.79902e+7 
           2425      1.83944e+7 
           2435      1.82766e+7 
           2445      1.83266e+7 
           2455      1.84157e+7 
           2465       1.8315e+7 
           2475       1.8289e+7 
           2485      1.81867e+7 
           2495      1.81422e+7 
           2505      1.84071e+7 
           2513      1.81082e+7 
           2518      1.80744e+7 
           2525       1.8031e+7 
           2535      1.80995e+7 
           2545      1.83094e+7 
           2555       1.8519e+7 
           2565      1.83165e+7 
           2575       1.8412e+7 
           2585      1.84164e+7 
           2595      1.83816e+7 
           2605      1.83168e+7 
           2615      1.82585e+7 
           2625      1.82755e+7 
           2635      1.83719e+7 
           2645      1.87449e+7 
           2655      1.87397e+7 
           2665      1.86449e+7 
           2675      1.86679e+7 
           2685      1.87481e+7 
           2695      1.87181e+7 
           2705      1.87355e+7 
           2715      1.85522e+7 
           2725      1.85335e+7 
           2735       1.8578e+7 
           2745      1.81005e+7 
           2755      1.82562e+7 
           2765      1.85348e+7 
           2775       1.8721e+7 
           2785      1.86786e+7 
           2795      1.78825e+7 
           2805      1.83322e+7 
           2815      1.87641e+7 
           2825      1.87571e+7 
           2835      1.86859e+7 
           2845      1.87075e+7 
           2855      1.84713e+7 
           2865      1.86515e+7 
           2875      1.86979e+7 
           2885      1.86205e+7 
           2895      1.87317e+7 
           2910      1.87415e+7 
           2930      1.86493e+7 
           2950      1.86189e+7 
           2970      1.86693e+7 
           2990      1.86378e+7 
           3010      1.86641e+7 
           3030      1.86533e+7 
           3050      1.86431e+7 
           3070      1.85904e+7 
           3090      1.86074e+7 
           3110       1.8594e+7 
           3130       1.8574e+7 
           3150      1.85439e+7 
           3170       1.8533e+7 
           3190      1.84613e+7 
           3210      1.84816e+7 
           3230        1.839e+7 
           3250       1.8429e+7 
           3270      1.84336e+7 
           3290      1.84145e+7 
           3310       1.8391e+7 
           3330      1.83433e+7 
           3350      1.82851e+7 
           3370      1.82704e+7 
           3390      1.82472e+7 
           3410      1.82467e+7 
           3430      1.82154e+7 
           3450      1.81792e+7 
           3470      1.81489e+7 
           3490      1.81197e+7 
           3510      1.80893e+7 
           3530      1.80569e+7 
           3550      1.80229e+7 
           3570      1.79794e+7 
           3590      1.79445e+7 
           3610      1.79081e+7 
           3630      1.78723e+7 
           3640      1.78524e+7 
           3650      1.79215e+7 
           3670      1.78034e+7 
           3690      1.71906e+7 
           3710      1.90531e+7 
           3730      2.06343e+7 
           3750       2.6294e+7 
           3770      2.76353e+7 
           3790      3.20312e+7 
           3810      3.65412e+7 
           3830      3.03307e+7 
           3850      3.97075e+7 
           3870      4.33656e+7 
           3890      2.74529e+7 
           3910      4.32122e+7 
           3930      4.51103e+7 
           3950      4.29403e+7 
           3970      2.67735e+7 
           3990      4.14518e+7 
           4010      4.47973e+7 
           4030      4.49383e+7 
           4050      4.44703e+7 
           4070      4.31428e+7 
           4090      3.56549e+7 
           4110      2.84575e+7 
           4130      4.14124e+7 
           4150      4.26286e+7 
           4170      4.26106e+7 
           4190       4.2355e+7 
           4210        4.203e+7 
           4230       4.1663e+7 
           4250      4.12864e+7 
           4270      4.08427e+7 
           4290      4.02253e+7 
           4310      3.88247e+7 
           4330      3.12412e+7 
           4350      2.71201e+7 
           4370      3.75094e+7 
           4390      3.85035e+7 
           4410      3.84902e+7 
           4430      3.82759e+7 
           4450      3.80201e+7 
           4470      3.77561e+7 
           4490      3.74429e+7 
           4510      3.71319e+7 
           4530      3.68213e+7 
           4550       3.6511e+7 
           4570      3.62102e+7 
           4590      3.59096e+7 
           4610      3.56147e+7 
           4630      3.53182e+7 
           4650      3.50255e+7 
           4670      3.47348e+7 
           4690       3.4446e+7 
           4710      3.41575e+7 
           4730       3.3876e+7 
           4750      3.35195e+7 
           4770      3.32009e+7 
           4790      3.28373e+7 
           4810      3.23303e+7 
           4830      3.12233e+7 
           4850      2.61296e+7 
           4870        2.183e+7 
           4890      2.99577e+7 
           4910      3.09252e+7 
           4930      3.09662e+7 
           4950      3.08195e+7 
           4970      3.06146e+7 
           4990      3.04348e+7 
           5010      3.01863e+7 
           5030      2.99437e+7 
           5050      2.97011e+7 
           5070      2.94614e+7 
           5090       2.9223e+7 
           5110      2.89875e+7 
           5130      2.87548e+7 
           5150      2.85233e+7 
           5170      2.82777e+7 
           5190      2.80588e+7 
           5210       2.7841e+7 
           5230      2.76161e+7 
           5250      2.73965e+7 
           5270      2.71768e+7 
           5290      2.69622e+7 
           5310      2.67475e+7 
           5330      2.65339e+7 
           5350      2.63253e+7 
           5370      2.61178e+7 
           5390      2.59114e+7 
           5410      2.57073e+7 
           5430      2.55055e+7 
           5450      2.53047e+7 
           5470      2.51061e+7 
           5490      2.49086e+7 
           5510      2.47132e+7 
           5530        2.452e+7 
           5550      2.43277e+7 
           5570      2.41387e+7 
           5590      2.39506e+7 
           5610      2.37646e+7 
           5630      2.35806e+7 
           5650      2.33974e+7 
           5670      2.32162e+7 
           5690       2.3037e+7 
           5710      2.28597e+7 
           5730      2.26832e+7 
           5750      2.25086e+7 
           5770      2.23359e+7 
           5790       2.2165e+7 
           5810      2.19959e+7 
           5830      2.18275e+7 
           5850      2.16609e+7 
           5870      2.14961e+7 
           5890      2.13308e+7 
           5910      2.11716e+7 
           5930      2.10108e+7 
           5950      2.08527e+7 
           5970      2.06953e+7 
           5990      2.05395e+7 
           6010      2.03853e+7 
           6030      2.02316e+7 
           6050      2.00806e+7 
           6070      1.99311e+7 
           6090      1.97821e+7 
           6110      1.96346e+7 
           6130      1.94877e+7 
           6150      1.93432e+7 
           6170      1.91992e+7 
           6190      1.90567e+7 
           6210      1.89156e+7 
           6230      1.87759e+7 
           6250      1.86376e+7 
           6270      1.84997e+7 
           6290      1.83641e+7 
           6310       1.8229e+7 
           6330      1.80952e+7 
           6350      1.79627e+7 
           6370      1.78315e+7 
           6390      1.77016e+7 
           6410       1.7573e+7 
           6430      1.74456e+7 
           6450      1.72968e+7 
           6470      1.71415e+7 
           6490      1.69796e+7 
           6510      1.67652e+7 
           6530      1.63482e+7 
           6550      1.47302e+7 
           6570      1.21638e+7 
           6590      1.56424e+7 
           6610      1.60902e+7 
           6630      1.61184e+7 
           6650      1.60548e+7 
           6670      1.59663e+7 
           6690      1.58853e+7 
           6710      1.57723e+7 
           6730      1.56604e+7 
           6750      1.55496e+7 
           6770      1.54398e+7 
           6790      1.53301e+7 
           6810      1.52224e+7 
           6830      1.51148e+7 
           6850       1.5009e+7 
           6870      1.49033e+7 
           6890      1.47987e+7 
           6910       1.4695e+7 
           6930       1.4593e+7 
           6950      1.44912e+7 
           6970      1.43904e+7 
           6990      1.42896e+7 
           7010      1.41906e+7 
           7030      1.40924e+7 
           7050      1.39951e+7 
           7070      1.38987e+7 
           7090      1.38024e+7 
           7110      1.37078e+7 
           7130      1.36132e+7 
           7150      1.35194e+7 
           7170      1.34273e+7 
           7190      1.33352e+7 
           7210      1.32439e+7 
           7230      1.31534e+7 
           7250      1.30638e+7 
           7270      1.29749e+7 
           7290      1.28868e+7 
           7310      1.27994e+7 
           7330      1.27129e+7 
           7350      1.26263e+7 
           7370      1.25413e+7 
           7390      1.24569e+7 
           7410      1.23726e+7 
           7430      1.22897e+7 
           7450      1.22068e+7 
           7470      1.21254e+7 
           7490      1.20439e+7 
           7510      1.19631e+7 
           7530      1.18837e+7 
           7550      1.18043e+7 
           7570      1.17256e+7 
           7590      1.16475e+7 
           7610      1.15708e+7 
           7630       1.1494e+7 
           7650      1.14179e+7 
           7670      1.13424e+7 
           7690      1.12676e+7 
           7710      1.11934e+7 
           7730      1.11198e+7 
           7750      1.10468e+7 
           7770      1.09731e+7 
           7790      1.09026e+7 
           7810      1.08314e+7 
           7830      1.07607e+7 
           7850      1.06907e+7 
           7870      1.06206e+7 
           7890      1.05517e+7 
           7910      1.04834e+7 
           7930      1.04156e+7 
           7950      1.03483e+7 
           7970       1.0281e+7 
           7990      1.02149e+7 
           8010      1.01492e+7 
           8030      1.00836e+7 
           8050       1.0019e+7 
           8070      9.95493e+6 
           8090       9.8908e+6 
           8110      9.82776e+6 
           8130      9.76465e+6 
           8150       9.7026e+6 
           8170      9.64048e+6 
           8190      9.57941e+6 
           8210      9.52777e+6 
           8230      9.47039e+6 
           8250      9.41402e+6 
           8270      9.35862e+6 
           8290      9.30256e+6 
           8310      9.24529e+6 
           8330      9.18574e+6 
           8350      9.12612e+6 
           8370      9.05406e+6 
           8390      8.99061e+6 
           8410      8.91807e+6 
           8430      8.87792e+6 
           8450       8.8312e+6 
           8470      8.63463e+6 
           8490      8.79052e+6 
           8510      8.42672e+6 
           8530      8.74606e+6 
           8550      8.10172e+6 
           8570      8.73899e+6 
