# Kurucz ODFNEW /NOVER (2003)
# teff = 8750 K (value for the effective temperature for the model. Temperatures are given in K)
# logg = 3.5 log(cm/s2) (value for Log(G) for the model.)
# meta = -2.5  (value for the Metallicity for the model.)
# lh = 1.25  (l/Hp where l is the  mixing length of the convective element and Hp is the pressure scale height)
# vtur = 2 km/s (Microturbulence velocity)
# alpha = 0.4  (Alpha)
#
# column 1: WAVELENGTH (ANGSTROM), Wavelength in Angstrom
# column 2: FLUX (ERG/CM2/S/A), Flux in erg/cm2/s/A
          268.5     8.66153e-24 
          273.5     8.28679e-23 
          278.5     3.67976e-22 
            284      1.7056e-21 
            290     8.40317e-21 
            296     3.86585e-20 
            301     1.31638e-19 
            308     6.83056e-19 
            318     6.30118e-18 
            328     5.05789e-17 
            338     3.57293e-16 
            348     2.24913e-15 
            357     1.07516e-14 
            366     4.75032e-14 
            375     1.94809e-13 
            385     8.62621e-13 
            395     3.53151e-12 
            405     1.34497e-11 
            414     4.23182e-11 
            422     1.12293e-10 
            430      2.8704e-10 
            441     9.84532e-10 
            451      2.85768e-9 
            460      7.15448e-9 
            470      1.90002e-8 
            480      4.83437e-8 
            490      1.18205e-7 
            500      2.78252e-7 
            506       5.4571e-7 
            512      9.54973e-7 
            520      1.78361e-6 
            530       3.8082e-6 
            540       7.8059e-6 
            550      1.57006e-5 
            560      3.06213e-5 
            570      5.82719e-5 
            580     0.000107582 
            590     0.000196752 
            600     0.000349971 
            610     0.000610117 
            620      0.00104336 
            630        0.001752 
            640      0.00289114 
            650      0.00469365 
            658      0.00683816 
            665      0.00942878 
            675        0.014736 
            685       0.0227069 
            695       0.0345224 
            705       0.0518163 
            716        0.079857 
            726        0.116876 
            735        0.163084 
            745        0.233799 
            755        0.331706 
            765        0.465954 
            775        0.648367 
            785        0.893855 
            795         1.22152 
            805         1.65516 
            815         2.22445 
            825         2.96623 
            835         3.92537 
            845         5.15853 
            855         6.73142 
            865         8.72511 
            875         11.2346 
            885         14.3751 
            895         18.2823 
            905         23.1141 
            915          52.548 
            925         208.402 
            935         356.715 
            945         671.471 
            955         1083.77 
            965          1439.4 
            975         977.545 
            985         3007.86 
            995         4582.66 
           1005         4559.81 
           1015         3088.95 
           1025         1855.38 
           1035         4304.22 
           1045         8849.83 
           1055         35786.8 
           1065          282547 
           1075          833344 
           1085      1.52644e+6 
           1095      1.67046e+6 
           1105      3.05586e+6 
           1115      5.55053e+6 
           1125      4.84208e+6 
           1135      4.46996e+6 
           1145      2.61502e+6 
           1155      1.00761e+6 
           1165          224915 
           1175         43279.7 
           1185         63325.5 
           1195         21267.7 
           1205         15468.2 
           1215         7773.58 
           1225         17404.2 
           1235         31341.7 
           1245           34362 
           1255         59084.6 
           1265          156380 
           1275          696832 
           1285      3.06864e+6 
           1295      5.41993e+6 
           1305      8.14746e+6 
           1315      1.16906e+7 
           1325       1.5658e+7 
           1335      1.86415e+7 
           1345       2.2366e+7 
           1355      2.34447e+7 
           1365      2.55692e+7 
           1375      2.47643e+7 
           1385      2.24676e+7 
           1395      2.12193e+7 
           1405      2.91265e+7 
           1415      3.86885e+7 
           1425      4.09229e+7 
           1435       4.0091e+7 
           1442      4.39586e+7 
           1447      4.30651e+7 
           1455      4.53244e+7 
           1465      4.35949e+7 
           1475      4.48534e+7 
           1485      4.49313e+7 
           1495      4.60633e+7 
           1505       4.6995e+7 
           1512      4.71607e+7 
           1517      4.59565e+7 
           1525      4.60296e+7 
           1535      4.51329e+7 
           1545      4.52339e+7 
           1555      4.28981e+7 
           1565      3.81709e+7 
           1575      4.05231e+7 
           1585      4.03178e+7 
           1595      4.08208e+7 
           1605      3.93559e+7 
           1615      4.23625e+7 
           1625      4.30383e+7 
           1635      4.63903e+7 
           1645      4.94672e+7 
           1655      4.60764e+7 
           1665      5.11696e+7 
           1672      4.85455e+7 
           1677      4.98773e+7 
           1685      5.15902e+7 
           1695      4.98175e+7 
           1705      4.95589e+7 
           1715      5.11831e+7 
           1725      5.04749e+7 
           1735      5.15205e+7 
           1745      5.04652e+7 
           1755      5.12079e+7 
           1765      4.92192e+7 
           1775       5.0553e+7 
           1785      4.99527e+7 
           1795      5.08405e+7 
           1805      4.97041e+7 
           1815      4.93546e+7 
           1825      4.86964e+7 
           1835      4.88507e+7 
           1845      4.72447e+7 
           1855      4.82519e+7 
           1865      4.83305e+7 
           1875      4.82942e+7 
           1885      4.81903e+7 
           1895      4.79726e+7 
           1905      4.69139e+7 
           1915      4.73076e+7 
           1925      4.75921e+7 
           1935      4.66094e+7 
           1945      4.74787e+7 
           1955      4.72161e+7 
           1967      4.70546e+7 
           1976      4.62342e+7 
           1984      4.59492e+7 
           1995      4.61576e+7 
           2005      4.53928e+7 
           2015      4.46372e+7 
           2025      4.45061e+7 
           2035      4.51096e+7 
           2045      4.48794e+7 
           2055       4.3713e+7 
           2065      4.39109e+7 
           2074      4.45693e+7 
           2078      4.46221e+7 
           2085      4.43863e+7 
           2095       4.4094e+7 
           2105      4.39056e+7 
           2115      4.36093e+7 
           2125      4.32966e+7 
           2135      4.26548e+7 
           2145      4.33249e+7 
           2155      4.28726e+7 
           2165      4.19888e+7 
           2175      4.20288e+7 
           2185      4.20972e+7 
           2195      4.27099e+7 
           2205      4.17864e+7 
           2215      4.04616e+7 
           2225        4.069e+7 
           2235      4.18894e+7 
           2245      4.11822e+7 
           2255      4.02643e+7 
           2265      3.97671e+7 
           2275      4.07707e+7 
           2285      4.08461e+7 
           2295      4.01948e+7 
           2305      4.03162e+7 
           2315      4.00164e+7 
           2325      4.00305e+7 
           2335      3.94458e+7 
           2345      3.78242e+7 
           2355      3.92677e+7 
           2365      3.79274e+7 
           2375      3.87207e+7 
           2385      3.68078e+7 
           2395      3.82836e+7 
           2405      3.80082e+7 
           2415      3.80151e+7 
           2425      3.87612e+7 
           2435      3.80025e+7 
           2445      3.83427e+7 
           2455      3.83641e+7 
           2465      3.76133e+7 
           2475      3.73825e+7 
           2485      3.76527e+7 
           2495      3.71566e+7 
           2505      3.79898e+7 
           2513      3.71374e+7 
           2518      3.70174e+7 
           2525      3.63084e+7 
           2535      3.61116e+7 
           2545      3.63816e+7 
           2555      3.73069e+7 
           2565      3.69507e+7 
           2575      3.74035e+7 
           2585      3.75426e+7 
           2595      3.72085e+7 
           2605      3.67807e+7 
           2615      3.65528e+7 
           2625      3.65547e+7 
           2635      3.67282e+7 
           2645      3.79517e+7 
           2655       3.7785e+7 
           2665      3.70941e+7 
           2675      3.72964e+7 
           2685      3.75181e+7 
           2695      3.71754e+7 
           2705      3.71646e+7 
           2715      3.65827e+7 
           2725      3.65617e+7 
           2735      3.68086e+7 
           2745      3.53989e+7 
           2755      3.54849e+7 
           2765      3.60654e+7 
           2775      3.66895e+7 
           2785      3.64615e+7 
           2795      3.38559e+7 
           2805      3.52069e+7 
           2815      3.67139e+7 
           2825      3.65753e+7 
           2835      3.61349e+7 
           2845      3.60252e+7 
           2855      3.55255e+7 
           2865      3.57626e+7 
           2875      3.58105e+7 
           2885      3.58125e+7 
           2895      3.60447e+7 
           2910      3.61434e+7 
           2930      3.56008e+7 
           2950      3.54725e+7 
           2970      3.55307e+7 
           2990       3.5357e+7 
           3010      3.54438e+7 
           3030      3.53459e+7 
           3050      3.51921e+7 
           3070      3.48713e+7 
           3090      3.49146e+7 
           3110      3.47848e+7 
           3130      3.46112e+7 
           3150      3.44499e+7 
           3170      3.43836e+7 
           3190      3.40031e+7 
           3210      3.40753e+7 
           3230      3.37417e+7 
           3250       3.3807e+7 
           3270      3.38204e+7 
           3290      3.37428e+7 
           3310      3.36389e+7 
           3330      3.33892e+7 
           3350       3.3131e+7 
           3370      3.30713e+7 
           3390      3.29652e+7 
           3410      3.29976e+7 
           3430      3.28668e+7 
           3450      3.27433e+7 
           3470      3.26047e+7 
           3490       3.2495e+7 
           3510      3.23856e+7 
           3530      3.22736e+7 
           3550      3.21532e+7 
           3570      3.20008e+7 
           3590      3.18791e+7 
           3610      3.17552e+7 
           3630      3.16264e+7 
           3640      3.15581e+7 
           3650      3.16908e+7 
           3670      3.14862e+7 
           3690       3.0313e+7 
           3710      3.30881e+7 
           3730      3.59836e+7 
           3750      4.79588e+7 
           3770      5.14379e+7 
           3790      6.34382e+7 
           3810      7.55141e+7 
           3830      5.97239e+7 
           3850      8.45338e+7 
           3870      9.65236e+7 
           3890       5.0885e+7 
           3910      9.58451e+7 
           3930      1.02912e+8 
           3950       9.4894e+7 
           3970      4.89864e+7 
           3990      8.96738e+7 
           4010       1.0102e+8 
           4030      1.01111e+8 
           4050      9.96206e+7 
           4070       9.5303e+7 
           4090      7.14358e+7 
           4110      5.36946e+7 
           4130      8.94707e+7 
           4150      9.32478e+7 
           4170      9.29794e+7 
           4190      9.20918e+7 
           4210      9.09957e+7 
           4230      8.97435e+7 
           4250      8.85817e+7 
           4270      8.71981e+7 
           4290       8.5345e+7 
           4310       8.1024e+7 
           4330      5.88054e+7 
           4350      4.95835e+7 
           4370      7.70132e+7 
           4390      7.99236e+7 
           4410      7.98396e+7 
           4430      7.91817e+7 
           4450      7.83403e+7 
           4470      7.74598e+7 
           4490      7.63714e+7 
           4510      7.56696e+7 
           4530      7.47496e+7 
           4550      7.37973e+7 
           4570      7.29742e+7 
           4590      7.21072e+7 
           4610      7.12897e+7 
           4630      7.04185e+7 
           4650      6.96102e+7 
           4670      6.87907e+7 
           4690      6.79672e+7 
           4710      6.70906e+7 
           4730      6.63544e+7 
           4750      6.54612e+7 
           4770      6.45938e+7 
           4790      6.36155e+7 
           4810      6.22604e+7 
           4830      5.92089e+7 
           4850      4.55278e+7 
           4870      3.66565e+7 
           4890      5.57608e+7 
           4910      5.85406e+7 
           4930      5.86169e+7 
           4950      5.82595e+7 
           4970      5.77275e+7 
           4990      5.71976e+7 
           5010      5.65632e+7 
           5030      5.59818e+7 
           5050      5.53516e+7 
           5070      5.47619e+7 
           5090      5.41637e+7 
           5110      5.35732e+7 
           5130      5.29888e+7 
           5150      5.24147e+7 
           5170       5.1721e+7 
           5190      5.12267e+7 
           5210      5.07398e+7 
           5230      5.01803e+7 
           5250      4.96661e+7 
           5270      4.91203e+7 
           5290      4.86163e+7 
           5310      4.80958e+7 
           5330      4.75883e+7 
           5350      4.71002e+7 
           5370      4.66037e+7 
           5390      4.61198e+7 
           5410      4.56378e+7 
           5430      4.51668e+7 
           5450      4.47015e+7 
           5470       4.4243e+7 
           5490        4.379e+7 
           5510      4.33424e+7 
           5530      4.28951e+7 
           5550       4.2463e+7 
           5570      4.20323e+7 
           5590      4.16043e+7 
           5610      4.11873e+7 
           5630       4.0774e+7 
           5650      4.03654e+7 
           5670      3.99616e+7 
           5690      3.95637e+7 
           5710      3.91703e+7 
           5730      3.87826e+7 
           5750      3.83993e+7 
           5770      3.80216e+7 
           5790      3.76481e+7 
           5810        3.728e+7 
           5830       3.6916e+7 
           5850      3.65562e+7 
           5870      3.61883e+7 
           5890      3.58398e+7 
           5910      3.55049e+7 
           5930      3.51629e+7 
           5950      3.48248e+7 
           5970      3.44925e+7 
           5990      3.41617e+7 
           6010      3.38367e+7 
           6030      3.35152e+7 
           6050      3.31983e+7 
           6070      3.28858e+7 
           6090      3.25757e+7 
           6110        3.227e+7 
           6130      3.19675e+7 
           6150      3.16653e+7 
           6170      3.13733e+7 
           6190      3.10833e+7 
           6210      3.07955e+7 
           6230      3.05108e+7 
           6250       3.0228e+7 
           6270      2.99531e+7 
           6290      2.96782e+7 
           6310      2.94071e+7 
           6330      2.91388e+7 
           6350      2.88649e+7 
           6370      2.86069e+7 
           6390      2.83524e+7 
           6410      2.80942e+7 
           6430      2.78386e+7 
           6450      2.75222e+7 
           6470      2.72407e+7 
           6490      2.69193e+7 
           6510      2.64901e+7 
           6530      2.56204e+7 
           6550       2.2181e+7 
           6570      1.78324e+7 
           6590      2.41645e+7 
           6610      2.51721e+7 
           6630      2.52459e+7 
           6650      2.51284e+7 
           6670      2.49533e+7 
           6690      2.47892e+7 
           6710      2.45889e+7 
           6730      2.43756e+7 
           6750      2.41644e+7 
           6770      2.39561e+7 
           6790      2.37498e+7 
           6810      2.35464e+7 
           6830       2.3344e+7 
           6850      2.31445e+7 
           6870      2.29469e+7 
           6890      2.27512e+7 
           6910      2.25581e+7 
           6930      2.23669e+7 
           6950      2.21775e+7 
           6970      2.19907e+7 
           6990      2.18057e+7 
           7010      2.16224e+7 
           7030      2.14416e+7 
           7050      2.12625e+7 
           7070      2.10851e+7 
           7090      2.09094e+7 
           7110      2.07345e+7 
           7130      2.05643e+7 
           7150      2.03941e+7 
           7170      2.02263e+7 
           7190        2.006e+7 
           7210      1.98952e+7 
           7230       1.9732e+7 
           7250      1.95709e+7 
           7270      1.94114e+7 
           7290      1.92533e+7 
           7310      1.90966e+7 
           7330       1.8942e+7 
           7350      1.87889e+7 
           7370      1.86371e+7 
           7390      1.84867e+7 
           7410      1.83383e+7 
           7430      1.81913e+7 
           7450      1.80455e+7 
           7470      1.79011e+7 
           7490      1.77586e+7 
           7510      1.76174e+7 
           7530      1.74781e+7 
           7550      1.73394e+7 
           7570      1.72025e+7 
           7590      1.70668e+7 
           7610       1.6933e+7 
           7630      1.67997e+7 
           7650      1.66682e+7 
           7670      1.65379e+7 
           7690      1.64086e+7 
           7710      1.62811e+7 
           7730      1.61548e+7 
           7750      1.60295e+7 
           7770      1.58634e+7 
           7790      1.57827e+7 
           7810      1.56606e+7 
           7830      1.55401e+7 
           7850      1.54213e+7 
           7870      1.53017e+7 
           7890       1.5183e+7 
           7910      1.50702e+7 
           7930      1.49554e+7 
           7950      1.48415e+7 
           7970      1.47291e+7 
           7990      1.46148e+7 
           8010      1.45072e+7 
           8030      1.43977e+7 
           8050      1.42896e+7 
           8070      1.41824e+7 
           8090      1.40761e+7 
           8110      1.39707e+7 
           8130      1.38661e+7 
           8150       1.3763e+7 
           8170      1.36607e+7 
           8190      1.35575e+7 
           8210      1.34938e+7 
           8230      1.34016e+7 
           8250      1.33101e+7 
           8270      1.32255e+7 
           8290      1.31365e+7 
           8310      1.30461e+7 
           8330      1.29482e+7 
           8350      1.28511e+7 
           8370      1.27323e+7 
           8390      1.26144e+7 
           8410      1.24809e+7 
           8430      1.24059e+7 
           8450      1.23314e+7 
           8470      1.19324e+7 
           8490      1.23069e+7 
           8510      1.15495e+7 
           8530      1.23129e+7 
           8550      1.09392e+7 
           8570      1.24275e+7 
           8590      1.14222e+7 
           8610      1.10825e+7 
           8630      1.25604e+7 
           8650      1.19994e+7 
           8670       9.8331e+6 
           8690      1.23217e+7 
           8710      1.27473e+7 
           8730      1.21902e+7 
           8750      9.44401e+6 
           8770       1.1539e+7 
           8790      1.26119e+7 
           8810      1.27265e+7 
           8830      1.23911e+7 
           8850      1.09417e+7 
           8870      9.14232e+6 
           8890      1.16925e+7 
           8910      1.22901e+7 
           8930      1.23712e+7 
           8950      1.22972e+7 
           8970      1.20659e+7 
           8990      1.14175e+7 
           9010      8.99407e+6 
           9030      9.89169e+6 
           9050       1.1411e+7 
           9070      1.17157e+7 
           9090      1.17389e+7 
           9110      1.17097e+7 
           9130      1.16349e+7 
           9150      1.15297e+7 
           9170      1.13742e+7 
