# Kurucz ODFNEW /NOVER (2003)
# teff = 9500 K (value for the effective temperature for the model. Temperatures are given in K)
# logg = 4 log(cm/s2) (value for Log(G) for the model.)
# meta = -1  (value for the Metallicity for the model.)
# lh = 1.25  (l/Hp where l is the  mixing length of the convective element and Hp is the pressure scale height)
# vtur = 2 km/s (Microturbulence velocity)
# alpha = 0  (Alpha)
#
# column 1: WAVELENGTH (ANGSTROM), Wavelength in Angstrom
# column 2: FLUX (ERG/CM2/S/A), Flux in erg/cm2/s/A
          273.5     5.30528e-23 
          278.5     2.52532e-22 
            284     1.17602e-21 
            290     5.81937e-21 
            296     2.69364e-20 
            301     9.21522e-20 
            308     4.81674e-19 
            318     4.49956e-18 
            328      3.6607e-17 
            338     2.62412e-16 
            348     1.67672e-15 
            357     8.12288e-15 
            366     3.63579e-14 
            375     1.51088e-13 
            385     6.78812e-13 
            395     2.81898e-12 
            405     1.08923e-11 
            414     3.46955e-11 
            422     9.30675e-11 
            430       2.403e-10 
            441     8.35394e-10 
            451      2.45429e-9 
            460       6.2098e-9 
            470      1.66782e-8 
            480      4.29004e-8 
            490      1.05988e-7 
            500      2.52077e-7 
            506      4.38622e-7 
            512      7.31273e-7 
            520      1.37512e-6 
            530      2.94879e-6 
            540      6.11914e-6 
            550      1.23823e-5 
            560      2.43685e-5 
            570       4.6774e-5 
            580       8.7537e-5 
            590     0.000160638 
            600     0.000288125 
            610     0.000506403 
            620     0.000872966 
            630       0.0014774 
            640      0.00245702 
            650      0.00401848 
            658      0.00588826 
            665      0.00815937 
            675         0.01284 
            685        0.019921 
            695       0.0304893 
            705        0.046061 
            716       0.0714752 
            726        0.105262 
            735        0.147693 
            745        0.212941 
            755        0.303809 
            765          0.4291 
            775        0.600183 
            785        0.831559 
            795         1.14189 
            805         1.55488 
            815         2.09984 
            825         2.81313 
            835         3.73982 
            845         4.93477 
            855         6.46499 
            865         8.41143 
            875         10.8719 
            885         13.9638 
            895         17.8238 
            905         22.6132 
            915         122.078 
            925         844.843 
            935         1497.31 
            945         2755.62 
            955         4174.89 
            965         5599.82 
            975         4222.14 
            985         8762.56 
            995         10082.8 
           1005         12211.3 
           1015         12352.6 
           1025         7545.88 
           1035           15871 
           1045         21386.1 
           1055         25107.3 
           1065         28291.9 
           1075         33714.5 
           1085         38769.8 
           1095         42702.4 
           1105          442316 
           1115      9.46744e+6 
           1125      1.27932e+7 
           1135      1.49744e+7 
           1145      1.19718e+7 
           1155      8.86851e+6 
           1165       5.1995e+6 
           1175      1.53887e+6 
           1185          805734 
           1195         95956.2 
           1205         68090.3 
           1215         19023.2 
           1225         73137.9 
           1235          149919 
           1245          287574 
           1255      1.84171e+6 
           1265      6.22293e+6 
           1275      1.68045e+7 
           1285      3.30797e+7 
           1295      4.18305e+7 
           1305      3.63938e+7 
           1315      5.53823e+7 
           1325      6.50147e+7 
           1335      6.88575e+7 
           1345      8.05698e+7 
           1355       7.6377e+7 
           1365      7.31673e+7 
           1375      7.50141e+7 
           1385      6.98498e+7 
           1395      7.01277e+7 
           1405      8.30168e+7 
           1415      8.97953e+7 
           1425       9.5439e+7 
           1435      8.80708e+7 
           1442      9.80702e+7 
           1447      1.01858e+8 
           1455      1.03728e+8 
           1465      9.71916e+7 
           1475      9.55371e+7 
           1485      9.72119e+7 
           1495      1.01554e+8 
           1505      1.03204e+8 
           1512      9.87345e+7 
           1517      1.03207e+8 
           1525       9.9331e+7 
           1535      9.84359e+7 
           1545      1.02492e+8 
           1555      9.25735e+7 
           1565      8.12947e+7 
           1575      9.17697e+7 
           1585      9.71206e+7 
           1595       1.0135e+8 
           1605      9.62961e+7 
           1615      9.73143e+7 
           1625      9.09943e+7 
           1635      9.45296e+7 
           1645      9.95929e+7 
           1655      8.46581e+7 
           1665      9.90261e+7 
           1672      8.28915e+7 
           1677        9.331e+7 
           1685      9.98964e+7 
           1695      9.32689e+7 
           1705      9.18333e+7 
           1715       9.4065e+7 
           1725      9.22141e+7 
           1735      9.57259e+7 
           1745      9.30137e+7 
           1755      9.73079e+7 
           1765      8.81012e+7 
           1775      9.48321e+7 
           1785      9.35266e+7 
           1795      9.81196e+7 
           1805      9.41215e+7 
           1815      9.32279e+7 
           1825      8.99389e+7 
           1835      8.94994e+7 
           1845      8.47248e+7 
           1855      8.71113e+7 
           1865      8.75617e+7 
           1875      8.94153e+7 
           1885      8.93353e+7 
           1895      8.81043e+7 
           1905      8.51191e+7 
           1915      8.64473e+7 
           1925      8.71496e+7 
           1935      8.48596e+7 
           1945      8.84088e+7 
           1955      8.74505e+7 
           1967      8.79495e+7 
           1976      8.58467e+7 
           1984      8.47136e+7 
           1995      8.35359e+7 
           2005      8.19053e+7 
           2015      7.95365e+7 
           2025       7.9103e+7 
           2035      8.10939e+7 
           2045       8.1753e+7 
           2055      7.89646e+7 
           2065      7.83439e+7 
           2074      8.03884e+7 
           2078      8.15257e+7 
           2085      8.10953e+7 
           2095      7.87848e+7 
           2105      7.81273e+7 
           2115      7.78097e+7 
           2125      7.77991e+7 
           2135      7.14172e+7 
           2145      7.63641e+7 
           2155      7.58054e+7 
           2165      7.30822e+7 
           2175      7.24013e+7 
           2185      7.24614e+7 
           2195      7.53768e+7 
           2205       7.2725e+7 
           2215      6.86106e+7 
           2225      6.84709e+7 
           2235      7.32082e+7 
           2245      6.86392e+7 
           2255      6.72657e+7 
           2265      6.67869e+7 
           2275      6.99773e+7 
           2285      7.09066e+7 
           2295      6.76314e+7 
           2305      6.74635e+7 
           2315      6.64054e+7 
           2325      6.65908e+7 
           2335      6.54392e+7 
           2345      6.10252e+7 
           2355       6.5458e+7 
           2365      6.14025e+7 
           2375      6.36796e+7 
           2385      5.81305e+7 
           2395      6.19965e+7 
           2405      6.01625e+7 
           2415      6.08984e+7 
           2425      6.26073e+7 
           2435      6.02115e+7 
           2445      6.27159e+7 
           2455      6.12053e+7 
           2465      6.04729e+7 
           2475      5.85584e+7 
           2485      6.09267e+7 
           2495       5.9362e+7 
           2505      6.26599e+7 
           2513      5.96082e+7 
           2518        5.962e+7 
           2525      5.66049e+7 
           2535      5.62249e+7 
           2545      5.62893e+7 
           2555      5.89041e+7 
           2565      5.86233e+7 
           2575      6.08903e+7 
           2585      6.10008e+7 
           2595      6.07386e+7 
           2605      5.88131e+7 
           2615      5.84468e+7 
           2625      5.94293e+7 
           2635      5.97658e+7 
           2645      6.32888e+7 
           2655      6.26473e+7 
           2665      6.01464e+7 
           2675      6.11928e+7 
           2685      6.15896e+7 
           2695      5.96707e+7 
           2705      5.99254e+7 
           2715      5.82173e+7 
           2725      5.82372e+7 
           2735      6.03907e+7 
           2745      5.54268e+7 
           2755      5.56208e+7 
           2765      5.72149e+7 
           2775      5.90586e+7 
           2785      5.83875e+7 
           2795      5.14119e+7 
           2805      5.47472e+7 
           2815      5.95457e+7 
           2825      5.91343e+7 
           2835       5.7757e+7 
           2845      5.65511e+7 
           2855      5.54624e+7 
           2865      5.69072e+7 
           2875        5.612e+7 
           2885      5.70307e+7 
           2895      5.65115e+7 
           2910      5.85908e+7 
           2930      5.68984e+7 
           2950      5.66144e+7 
           2970      5.66147e+7 
           2990      5.64835e+7 
           3010      5.68123e+7 
           3030       5.6508e+7 
           3050      5.60042e+7 
           3070      5.53848e+7 
           3090      5.54869e+7 
           3110      5.48573e+7 
           3130      5.43893e+7 
           3150      5.43956e+7 
           3170      5.40488e+7 
           3190      5.27919e+7 
           3210      5.31855e+7 
           3230      5.24602e+7 
           3250      5.25442e+7 
           3270      5.25975e+7 
           3290      5.25133e+7 
           3310       5.2362e+7 
           3330      5.16296e+7 
           3350       5.0921e+7 
           3370      5.08657e+7 
           3390      5.04312e+7 
           3410      5.06513e+7 
           3430      5.03378e+7 
           3450      5.00818e+7 
           3470      4.96689e+7 
           3490       4.9426e+7 
           3510      4.93383e+7 
           3530      4.91527e+7 
           3550      4.88993e+7 
           3570      4.84003e+7 
           3590      4.81402e+7 
           3610      4.78684e+7 
           3630       4.7614e+7 
           3640      4.74494e+7 
           3650       4.7744e+7 
           3670      4.75328e+7 
           3690      4.57794e+7 
           3710      4.69184e+7 
           3730      4.82146e+7 
           3750       6.1292e+7 
           3770      6.56346e+7 
           3790      8.17527e+7 
           3810      9.73998e+7 
           3830      7.65843e+7 
           3850      1.08997e+8 
           3870      1.25297e+8 
           3890      6.52177e+7 
           3910      1.24575e+8 
           3930      1.33662e+8 
           3950      1.23719e+8 
           3970      6.25297e+7 
           3990       1.1675e+8 
           4010      1.32553e+8 
           4030      1.32609e+8 
           4050       1.3068e+8 
           4070      1.24025e+8 
           4090      9.19162e+7 
           4110      6.88711e+7 
           4130      1.16268e+8 
           4150      1.22019e+8 
           4170      1.21577e+8 
           4190        1.204e+8 
           4210      1.18902e+8 
           4230      1.16826e+8 
           4250      1.15404e+8 
           4270      1.13393e+8 
           4290      1.11119e+8 
           4310      1.04523e+8 
           4330      7.47314e+7 
           4350      6.29983e+7 
           4370      9.96384e+7 
           4390      1.03326e+8 
           4410      1.03414e+8 
           4430      1.02684e+8 
           4450      1.01725e+8 
           4470       1.0044e+8 
           4490      9.84593e+7 
           4510      9.79232e+7 
           4530      9.66419e+7 
           4550      9.49589e+7 
           4570      9.43984e+7 
           4590      9.29999e+7 
           4610      9.23064e+7 
           4630      9.07989e+7 
           4650      9.00039e+7 
           4670      8.88701e+7 
           4690      8.75469e+7 
           4710      8.56825e+7 
           4730      8.55151e+7 
           4750       8.4369e+7 
           4770      8.31746e+7 
           4790      8.18312e+7 
           4810       7.9913e+7 
           4830      7.55691e+7 
           4850      5.69054e+7 
           4870      4.57773e+7 
           4890       7.0805e+7 
           4910      7.48596e+7 
           4930      7.47711e+7 
           4950      7.45694e+7 
           4970      7.39217e+7 
           4990      7.31094e+7 
           5010      7.20466e+7 
           5030      7.15001e+7 
           5050       7.0539e+7 
           5070      6.99147e+7 
           5090      6.91119e+7 
           5110      6.83166e+7 
           5130      6.75244e+7 
           5150       6.6724e+7 
           5170      6.54378e+7 
           5190       6.4905e+7 
           5210       6.4484e+7 
           5230      6.35992e+7 
           5250      6.30801e+7 
           5270      6.21627e+7 
           5290      6.16706e+7 
           5310      6.08676e+7 
           5330       6.0226e+7 
           5350       5.9662e+7 
           5370      5.89676e+7 
           5390      5.83363e+7 
           5410      5.76561e+7 
           5430      5.70584e+7 
           5450      5.64666e+7 
           5470       5.5853e+7 
           5490      5.52618e+7 
           5510      5.46653e+7 
           5530      5.40501e+7 
           5550      5.35084e+7 
           5570      5.29269e+7 
           5590      5.23631e+7 
           5610      5.18157e+7 
           5630      5.12747e+7 
           5650      5.07259e+7 
           5670      5.01917e+7 
           5690      4.96707e+7 
           5710      4.91547e+7 
           5730      4.86481e+7 
           5750       4.8137e+7 
           5770      4.76398e+7 
           5790       4.7145e+7 
           5810      4.66625e+7 
           5830      4.61833e+7 
           5850      4.57095e+7 
           5870      4.52072e+7 
           5890       4.4664e+7 
           5910      4.43255e+7 
           5930      4.38781e+7 
           5950      4.34262e+7 
           5970      4.29951e+7 
           5990      4.25531e+7 
           6010      4.21295e+7 
           6030      4.17158e+7 
           6050      4.13005e+7 
           6070      4.08938e+7 
           6090      4.04886e+7 
           6110      4.00877e+7 
           6130      3.96872e+7 
           6150      3.92382e+7 
           6170       3.8911e+7 
           6190       3.8541e+7 
           6210      3.81662e+7 
           6230      3.77924e+7 
           6250      3.73899e+7 
           6270      3.70693e+7 
           6290      3.67111e+7 
           6310      3.63492e+7 
           6330      3.60079e+7 
           6350      3.55778e+7 
           6370      3.52767e+7 
           6390      3.49825e+7 
           6410      3.46371e+7 
           6430      3.42907e+7 
           6450       3.3871e+7 
           6470      3.35332e+7 
           6490      3.30952e+7 
           6510      3.25162e+7 
           6530      3.13048e+7 
           6550      2.67243e+7 
           6570       2.1519e+7 
           6590      2.93381e+7 
           6610      3.07965e+7 
           6630      3.09384e+7 
           6650      3.08037e+7 
           6670      3.05837e+7 
           6690      3.03523e+7 
           6710      3.01264e+7 
           6730      2.98486e+7 
           6750      2.95794e+7 
           6770      2.93186e+7 
           6790       2.9053e+7 
           6810      2.87916e+7 
           6830      2.85295e+7 
           6850      2.82749e+7 
           6870      2.80227e+7 
           6890      2.77737e+7 
           6910      2.75264e+7 
           6930      2.72799e+7 
           6950      2.70397e+7 
           6970      2.68002e+7 
           6990      2.65653e+7 
           7010      2.63235e+7 
           7030      2.60977e+7 
           7050      2.58695e+7 
           7070      2.56442e+7 
           7090      2.54225e+7 
           7110      2.51657e+7 
           7130      2.49773e+7 
           7150      2.47618e+7 
           7170      2.45513e+7 
           7190      2.43391e+7 
           7210      2.41304e+7 
           7230      2.39228e+7 
           7250      2.37158e+7 
           7270       2.3517e+7 
           7290      2.33144e+7 
           7310      2.31158e+7 
           7330      2.29212e+7 
           7350      2.27296e+7 
           7370      2.25378e+7 
           7390       2.2347e+7 
           7410      2.21558e+7 
           7430      2.19651e+7 
           7450      2.17848e+7 
           7470      2.15927e+7 
           7490      2.14198e+7 
           7510      2.12471e+7 
           7530      2.10733e+7 
           7550       2.0901e+7 
           7570      2.07282e+7 
           7590      2.05576e+7 
           7610      2.03886e+7 
           7630      2.02216e+7 
           7650      2.00549e+7 
           7670      1.98903e+7 
           7690       1.9729e+7 
           7710      1.95665e+7 
           7730      1.94112e+7 
           7750       1.9254e+7 
           7770      1.89017e+7 
           7790      1.89451e+7 
           7810      1.87926e+7 
           7830      1.86402e+7 
           7850      1.84878e+7 
           7870      1.83253e+7 
           7890      1.81671e+7 
           7910      1.80489e+7 
           7930      1.79082e+7 
           7950      1.77562e+7 
           7970      1.76287e+7 
           7990       1.7455e+7 
           8010      1.73503e+7 
           8030      1.72137e+7 
           8050      1.70795e+7 
           8070      1.69452e+7 
           8090      1.68132e+7 
           8110      1.66834e+7 
           8130      1.65535e+7 
           8150      1.64253e+7 
           8170      1.62981e+7 
           8190      1.61552e+7 
           8210      1.60916e+7 
           8230      1.59735e+7 
           8250      1.58585e+7 
           8270      1.57714e+7 
           8290      1.56592e+7 
           8310      1.55506e+7 
           8330      1.54136e+7 
           8350       1.5322e+7 
           8370      1.51994e+7 
           8390      1.50661e+7 
           8410      1.49252e+7 
           8430      1.47972e+7 
           8450      1.46191e+7 
           8470      1.43496e+7 
           8490      1.45198e+7 
           8510      1.38774e+7 
           8530      1.44378e+7 
           8550      1.31531e+7 
           8570      1.45106e+7 
           8590      1.34307e+7 
           8610      1.30944e+7 
           8630      1.45963e+7 
           8650      1.38839e+7 
           8670      1.15647e+7 
           8690      1.42269e+7 
           8710      1.47784e+7 
           8730      1.40533e+7 
           8750      1.09635e+7 
           8770      1.32539e+7 
           8790      1.46593e+7 
           8810       1.4834e+7 
           8830      1.43707e+7 
           8850      1.24973e+7 
           8870      1.05281e+7 
           8890      1.34662e+7 
           8910      1.43051e+7 
           8930      1.44451e+7 
           8950      1.43896e+7 
           8970      1.40652e+7 
           8990      1.31552e+7 
           9010      1.02981e+7 
           9030      1.12625e+7 
           9050      1.31952e+7 
           9070      1.35969e+7 
           9090      1.36028e+7 
           9110      1.36716e+7 
           9130      1.36158e+7 
           9150      1.34857e+7 
           9170      1.32715e+7 
           9190      1.28382e+7 
           9210      1.16602e+7 
