# Kurucz ODFNEW /NOVER (2003)
# teff = 29000 K (value for the effective temperature for the model. Temperatures are given in K)
# logg = 4 log(cm/s2) (value for Log(G) for the model.)
# meta = -2  (value for the Metallicity for the model.)
# lh = 1.25  (l/Hp where l is the  mixing length of the convective element and Hp is the pressure scale height)
# vtur = 2 km/s (Microturbulence velocity)
# alpha = 0  (Alpha)
#
# column 1: WAVELENGTH (ANGSTROM), Wavelength in Angstrom
# column 2: FLUX (ERG/CM2/S/A), Flux in erg/cm2/s/A
          147.2      1.49617e-9 
            151       5.3561e-9 
          155.2      2.04028e-8 
          158.8      6.07549e-8 
            162       1.5397e-7 
            166      4.68013e-7 
          170.3       1.4607e-6 
          173.4      3.20327e-6 
          176.8      7.34399e-6 
          180.2      1.63189e-5 
          181.7      2.29952e-5 
          186.1      6.09107e-5 
            191     0.000170918 
          193.9     0.000307137 
          198.4     0.000736977 
          201.8      0.00139051 
            205      0.00247866 
          210.5        0.006428 
          216.2       0.0163724 
          219.8       0.0288083 
            223       0.0468736 
          226.8       0.0820498 
            230         10.1439 
            234          28.834 
            240         55.6605 
          246.5         111.347 
          252.4         202.836 
          256.8         256.796 
            260         408.846 
            264         565.775 
          268.5         840.024 
          273.5         1266.39 
          278.5         1866.16 
            284          2873.3 
            290         4407.69 
            296          6616.5 
            301         8716.24 
            308         12399.9 
            318         26392.7 
            328           45778 
            338         78363.8 
            348          128146 
            357          195035 
            366          293186 
            375          418160 
            385          625667 
            395          902750 
            405      1.27476e+6 
            414      1.72414e+6 
            422      2.19881e+6 
            430      2.78584e+6 
            441      3.82074e+6 
            451      5.02248e+6 
            460      6.28138e+6 
            470      8.07726e+6 
            480       1.0175e+7 
            490      1.26845e+7 
            500      1.57202e+7 
            506      1.09601e+8 
            512      3.63847e+8 
            520       3.7411e+8 
            530      4.07147e+8 
            540      3.87453e+8 
            550      4.55313e+8 
            560      4.87562e+8 
            570      5.23131e+8 
            580      4.99805e+8 
            590      5.70646e+8 
            600      5.98801e+8 
            610       6.3715e+8 
            620      6.73291e+8 
            630       7.1217e+8 
            640      7.28331e+8 
            650      7.78934e+8 
            658      8.07756e+8 
            665      8.35641e+8 
            675      8.59419e+8 
            685      8.79229e+8 
            695      9.62443e+8 
            705      9.76036e+8 
            716      1.04556e+9 
            726      1.08014e+9 
            735       1.1279e+9 
            745      1.17718e+9 
            755      1.21923e+9 
            765      1.26391e+9 
            775      1.31499e+9 
            785      1.37224e+9 
            795      1.40934e+9 
            805      1.45628e+9 
            815      1.49399e+9 
            825      1.55214e+9 
            835      1.53366e+9 
            845      1.63233e+9 
            855      1.67435e+9 
            865      1.72664e+9 
            875      1.78065e+9 
            885      1.82986e+9 
            895      1.87493e+9 
            905      1.90466e+9 
            915      2.58937e+9 
            925       1.635e+10 
            935     3.06822e+10 
            945     5.22344e+10 
            955     5.80858e+10 
            965     6.87658e+10 
            975     3.91382e+10 
            985     6.61647e+10 
            995     6.20941e+10 
           1005     6.42215e+10 
           1015       6.158e+10 
           1025     3.83892e+10 
           1035     5.82173e+10 
           1045      6.1707e+10 
           1055     6.02517e+10 
           1065     5.62258e+10 
           1075     5.65278e+10 
           1085     5.26296e+10 
           1095     5.50849e+10 
           1105     5.30773e+10 
           1115      5.1978e+10 
           1125      4.8906e+10 
           1135     5.01682e+10 
           1145     4.83072e+10 
           1155     4.78754e+10 
           1165     4.70265e+10 
           1175     4.08321e+10 
           1185     4.43928e+10 
           1195       4.312e+10 
           1205     4.05444e+10 
           1215     2.54113e+10 
           1225      3.9874e+10 
           1235     4.04017e+10 
           1245     3.92108e+10 
           1255     3.89377e+10 
           1265     3.82185e+10 
           1275     3.75217e+10 
           1285      3.6778e+10 
           1295      3.4788e+10 
           1305     3.46152e+10 
           1315     3.45461e+10 
           1325     3.35223e+10 
           1335     3.24915e+10 
           1345     3.23704e+10 
           1355     3.18225e+10 
           1365     3.10587e+10 
           1375     3.04612e+10 
           1385     2.98756e+10 
           1395     2.82079e+10 
           1405      2.7886e+10 
           1415     2.79919e+10 
           1425      2.7272e+10 
           1435     2.69737e+10 
           1442     2.67016e+10 
           1447     2.64041e+10 
           1455     2.59437e+10 
           1465     2.54362e+10 
           1475     2.49367e+10 
           1485     2.45097e+10 
           1495     2.39823e+10 
           1505     2.34252e+10 
           1512     2.31412e+10 
           1517     2.29218e+10 
           1525     2.25118e+10 
           1535     2.15975e+10 
           1545     2.09969e+10 
           1555     2.05548e+10 
           1565     2.05529e+10 
           1575     2.03929e+10 
           1585     2.01079e+10 
           1595     1.97514e+10 
           1605     1.90498e+10 
           1615     1.86673e+10 
           1625     1.84397e+10 
           1635     1.81077e+10 
           1645     1.73105e+10 
           1655     1.76782e+10 
           1665     1.73782e+10 
           1672     1.70699e+10 
           1677     1.71973e+10 
           1685     1.68938e+10 
           1695     1.65652e+10 
           1705     1.62172e+10 
           1715     1.58071e+10 
           1725      1.5556e+10 
           1735      1.5466e+10 
           1745     1.51717e+10 
           1755     1.49125e+10 
           1765     1.45977e+10 
           1775     1.43942e+10 
           1785     1.42062e+10 
           1795       1.397e+10 
           1805     1.37786e+10 
           1815     1.34991e+10 
           1825     1.32803e+10 
           1835     1.30834e+10 
           1845     1.27095e+10 
           1855     1.23977e+10 
           1865     1.22781e+10 
           1875     1.21914e+10 
           1885     1.18207e+10 
           1895     1.15169e+10 
           1905     1.15437e+10 
           1915     1.12087e+10 
           1925     1.09848e+10 
           1935      1.0943e+10 
           1945     1.08636e+10 
           1955     1.04748e+10 
           1967      1.0474e+10 
           1976     1.04077e+10 
           1984     1.01718e+10 
           1995      9.88104e+9 
           2005      9.90455e+9 
           2015      9.79628e+9 
           2025      9.67128e+9 
           2035      9.47185e+9 
           2045      9.32449e+9 
           2055      8.54884e+9 
           2065      8.33982e+9 
           2074      8.41202e+9 
           2078      8.31484e+9 
           2085      8.45539e+9 
           2095       8.5231e+9 
           2105      8.52759e+9 
           2115      8.43788e+9 
           2125      8.32569e+9 
           2135      8.20069e+9 
           2145       8.0702e+9 
           2155      7.98307e+9 
           2165      7.83402e+9 
           2175      7.75809e+9 
           2185      7.60999e+9 
           2195      7.54315e+9 
           2205      7.43436e+9 
           2215      7.28907e+9 
           2225      7.22019e+9 
           2235       7.1144e+9 
           2245      7.01782e+9 
           2255      6.87933e+9 
           2265      6.82056e+9 
           2275      6.72514e+9 
           2285      6.62953e+9 
           2295      6.44442e+9 
           2305      6.41309e+9 
           2315      6.35471e+9 
           2325      6.26713e+9 
           2335      6.17812e+9 
           2345      6.09766e+9 
           2355      6.01419e+9 
           2365      5.93253e+9 
           2375      5.85041e+9 
           2385      5.74238e+9 
           2395      5.69124e+9 
           2405      5.61692e+9 
           2415      5.54091e+9 
           2425      5.46821e+9 
           2435      5.39334e+9 
           2445      5.32284e+9 
           2455      5.25331e+9 
           2465       5.1843e+9 
           2475      5.11574e+9 
           2485      5.04891e+9 
           2495      4.84348e+9 
           2505      4.91559e+9 
           2513      4.80286e+9 
           2518      4.82837e+9 
           2525      4.79182e+9 
           2535      4.73047e+9 
           2545      4.66178e+9 
           2555      4.60695e+9 
           2565      4.55112e+9 
           2575       4.4934e+9 
           2585      4.43682e+9 
           2595      4.38093e+9 
           2605      4.34653e+9 
           2615      4.29181e+9 
           2625      4.23758e+9 
           2635      4.17986e+9 
           2645      4.12656e+9 
           2655      4.07149e+9 
           2665      4.01547e+9 
           2675      3.96297e+9 
           2685      3.93335e+9 
           2695      3.86096e+9 
           2705      3.83689e+9 
           2715      3.79033e+9 
           2725      3.72081e+9 
           2735      3.68489e+9 
           2745      3.65454e+9 
           2755      3.61123e+9 
           2765      3.54238e+9 
           2775      3.52575e+9 
           2785      3.48353e+9 
           2795       3.4328e+9 
           2805      3.39951e+9 
           2815       3.3618e+9 
           2825      3.29353e+9 
           2835      3.26794e+9 
           2845      3.24524e+9 
           2855      3.20707e+9 
           2865      3.16994e+9 
           2875      3.13339e+9 
           2885      3.09753e+9 
           2895      3.06174e+9 
           2910      3.00908e+9 
           2930      2.94103e+9 
           2950      2.85708e+9 
           2970      2.81036e+9 
           2990      2.74761e+9 
           3010      2.68627e+9 
           3030      2.62786e+9 
           3050      2.57051e+9 
           3070      2.51478e+9 
           3090      2.45819e+9 
           3110      2.40727e+9 
           3130       2.3573e+9 
           3150      2.30715e+9 
           3170      2.25774e+9 
           3190      2.19386e+9 
           3210      2.16029e+9 
           3230      2.11827e+9 
           3250       2.0742e+9 
           3270      2.03343e+9 
           3290       1.9893e+9 
           3310       1.9514e+9 
           3330      1.91176e+9 
           3350      1.87017e+9 
           3370       1.8358e+9 
           3390      1.79935e+9 
           3410      1.76376e+9 
           3430      1.72154e+9 
           3450      1.68214e+9 
           3470      1.65386e+9 
           3490       1.6215e+9 
           3510      1.59448e+9 
           3530      1.56628e+9 
           3550      1.53648e+9 
           3570      1.51473e+9 
           3590      1.47718e+9 
           3610      1.45268e+9 
           3630      1.42213e+9 
           3640      1.41785e+9 
           3650      1.38824e+9 
           3670      1.36764e+9 
           3690      1.33802e+9 
           3710      1.29391e+9 
           3730      1.24517e+9 
           3750      1.28309e+9 
           3770      1.27304e+9 
           3790      1.31516e+9 
           3810      1.35625e+9 
           3830      1.20655e+9 
           3850      1.36682e+9 
           3870      1.36254e+9 
           3890      1.14348e+9 
           3910      1.33055e+9 
           3930      1.30618e+9 
           3950      1.28461e+9 
           3970      1.05923e+9 
           3990      1.23463e+9 
           4010      1.21799e+9 
           4030      1.16088e+9 
           4050      1.18601e+9 
           4070      1.16053e+9 
           4090      1.09257e+9 
           4110      9.73152e+8 
           4130      1.09117e+9 
           4150      1.07709e+9 
           4170      1.06526e+9 
           4190      1.04862e+9 
           4210      1.03024e+9 
           4230      1.01361e+9 
           4250      9.96088e+8 
           4270      9.78184e+8 
           4290      9.62554e+8 
           4310       9.4334e+8 
           4330      8.76857e+8 
           4350      8.07273e+8 
           4370      8.95913e+8 
           4390      8.67243e+8 
           4410      8.70456e+8 
           4430      8.54187e+8 
           4450      8.42949e+8 
           4470      8.02201e+8 
           4490      8.15664e+8 
           4510      8.02926e+8 
           4530      7.90069e+8 
           4550      7.76424e+8 
           4570      7.64917e+8 
           4590      7.52758e+8 
           4610      7.41029e+8 
           4630      7.29386e+8 
           4650      7.16104e+8 
           4670      7.06649e+8 
           4690      6.92688e+8 
           4710      6.77767e+8 
           4730      6.74657e+8 
           4750      6.64196e+8 
           4770      6.54283e+8 
           4790      6.44332e+8 
           4810      6.34491e+8 
           4830      6.22561e+8 
           4850      5.86799e+8 
           4870      5.31271e+8 
           4890      5.93876e+8 
           4910      5.87844e+8 
           4930      5.68607e+8 
           4950      5.71017e+8 
           4970      5.62786e+8 
           4990      5.54531e+8 
           5010      5.40792e+8 
           5030      5.38495e+8 
           5050      5.28167e+8 
           5070      5.23026e+8 
           5090      5.15493e+8 
           5110      5.08118e+8 
           5130      5.00843e+8 
           5150      4.93693e+8 
           5170       4.8671e+8 
           5190      4.79847e+8 
           5210      4.73089e+8 
           5230      4.66448e+8 
           5250      4.59921e+8 
           5270      4.53507e+8 
           5290      4.47217e+8 
           5310      4.41021e+8 
           5330      4.34946e+8 
           5350      4.28963e+8 
           5370      4.23095e+8 
           5390      4.17303e+8 
           5410       4.1125e+8 
           5430      4.06054e+8 
           5450      4.00568e+8 
           5470      3.95176e+8 
           5490      3.89877e+8 
           5510       3.8467e+8 
           5530      3.79539e+8 
           5550      3.74497e+8 
           5570      3.69542e+8 
           5590       3.6466e+8 
           5610      3.59874e+8 
           5630      3.55147e+8 
           5650      3.50513e+8 
           5670      3.45912e+8 
           5690       3.4132e+8 
           5710      3.37015e+8 
           5730       3.3267e+8 
           5750      3.28366e+8 
           5770      3.24215e+8 
           5790      3.20068e+8 
           5810      3.15994e+8 
           5830      3.11967e+8 
           5850      3.08044e+8 
           5870      2.96327e+8 
           5890       3.0003e+8 
           5910      2.96568e+8 
           5930      2.92857e+8 
           5950       2.8921e+8 
           5970      2.85637e+8 
           5990      2.82095e+8 
           6010      2.78625e+8 
           6030      2.75194e+8 
           6050      2.71824e+8 
           6070      2.68502e+8 
           6090      2.65227e+8 
           6110      2.62011e+8 
           6130       2.5883e+8 
           6150      2.55705e+8 
           6170      2.52625e+8 
           6190      2.49599e+8 
           6210      2.46616e+8 
           6230      2.43667e+8 
           6250      2.40769e+8 
           6270      2.37913e+8 
           6290      2.35108e+8 
           6310      2.32333e+8 
           6330      2.29607e+8 
           6350      2.26911e+8 
           6370      2.24263e+8 
           6390      2.21644e+8 
           6410      2.19071e+8 
           6430      2.16535e+8 
           6450      2.14035e+8 
           6470      2.11562e+8 
           6490      2.09133e+8 
           6510      2.06738e+8 
           6530      2.03884e+8 
           6550      1.97003e+8 
           6570      1.77504e+8 
           6590      1.96293e+8 
           6610      1.95193e+8 
           6630      1.93075e+8 
           6650      1.90995e+8 
           6670       1.8726e+8 
           6690      1.85191e+8 
           6710      1.84683e+8 
           6730      1.82622e+8 
           6750      1.80607e+8 
           6770      1.78613e+8 
           6790      1.76639e+8 
           6810      1.74709e+8 
           6830      1.72799e+8 
           6850      1.70908e+8 
           6870      1.69052e+8 
           6890      1.67215e+8 
           6910      1.65405e+8 
           6930       1.6362e+8 
           6950       1.6186e+8 
           6970      1.60119e+8 
           6990      1.58402e+8 
           7010       1.5671e+8 
           7030      1.55042e+8 
           7050      1.53398e+8 
           7070      1.49546e+8 
           7090      1.50165e+8 
           7110      1.48584e+8 
           7130      1.47025e+8 
           7150      1.45482e+8 
           7170      1.43931e+8 
           7190      1.42454e+8 
           7210      1.40976e+8 
           7230      1.39433e+8 
           7250      1.38063e+8 
           7270      1.36642e+8 
           7290      1.34206e+8 
           7310      1.33832e+8 
           7330      1.32479e+8 
           7350      1.31124e+8 
           7370      1.29789e+8 
           7390      1.28467e+8 
           7410      1.27163e+8 
           7430      1.25879e+8 
           7450      1.24621e+8 
           7470      1.23367e+8 
           7490      1.22131e+8 
           7510      1.20867e+8 
           7530      1.19701e+8 
           7550      1.18506e+8 
           7570      1.17328e+8 
           7590      1.16162e+8 
           7610      1.15018e+8 
           7630      1.13886e+8 
           7650      1.12763e+8 
           7670      1.11657e+8 
           7690      1.10561e+8 
           7710      1.09481e+8 
           7730      1.08417e+8 
           7750      1.07357e+8 
           7770      1.06318e+8 
           7790      1.05295e+8 
           7810      1.04219e+8 
           7830      1.03269e+8 
           7850      1.02371e+8 
           7870      1.01383e+8 
           7890      1.00367e+8 
           7910      9.94627e+7 
           7930      9.85123e+7 
           7950      9.75762e+7 
           7970      9.65059e+7 
           7990      9.56221e+7 
           8010      9.46578e+7 
           8030      9.37779e+7 
           8050       9.2923e+7 
           8070      9.21043e+7 
           8090      9.10796e+7 
           8110      9.03274e+7 
           8130      8.95758e+7 
           8150      8.86205e+7 
           8170      8.79332e+7 
           8190        8.701e+7 
           8210       8.5955e+7 
           8230      8.53765e+7 
           8250      8.46365e+7 
           8270       8.3484e+7 
           8290      8.30268e+7 
           8310      8.22949e+7 
           8330      8.15201e+7 
           8350      8.04223e+7 
           8370      7.99255e+7 
           8390       7.9304e+7 
           8410      7.85811e+7 
           8430      7.78004e+7 
           8450      7.66465e+7 
           8470      7.63059e+7 
           8490      7.55862e+7 
           8510      7.47475e+7 
           8530      7.43094e+7 
           8550      7.27357e+7 
           8570      7.37456e+7 
           8590      7.09826e+7 
