# Kurucz ODFNEW /NOVER (2003)
# teff = 8000 K (value for the effective temperature for the model. Temperatures are given in K)
# logg = 5 log(cm/s2) (value for Log(G) for the model.)
# meta = -4  (value for the Metallicity for the model.)
# lh = 1.25  (l/Hp where l is the  mixing length of the convective element and Hp is the pressure scale height)
# vtur = 2 km/s (Microturbulence velocity)
# alpha = 0.4  (Alpha)
#
# column 1: WAVELENGTH (ANGSTROM), Wavelength in Angstrom
# column 2: FLUX (ERG/CM2/S/A), Flux in erg/cm2/s/A
          147.2     1.73866e-35 
            151     1.65225e-35 
          155.2     1.56403e-35 
          158.8     1.49392e-35 
            162     1.43549e-35 
            166     1.36714e-35 
          170.3     1.29897e-35 
          173.4     1.25294e-35 
          176.8     1.20522e-35 
          180.2     1.16017e-35 
          181.7     1.14109e-35 
          186.1     1.08777e-35 
            191     1.03267e-35 
          193.9     1.00201e-35 
          198.4     9.57076e-36 
          201.8     9.25097e-36 
            205     8.96441e-36 
          210.5     8.50208e-36 
          216.2     8.05969e-36 
          219.8     7.79784e-36 
            223     7.57565e-36 
          226.8     7.32392e-36 
            230     7.12154e-36 
            234     6.88015e-36 
            240     6.54044e-36 
          246.5     6.20006e-36 
          252.4     5.91358e-36 
          256.8     5.71267e-36 
            260     5.57292e-36 
            264     5.40532e-36 
          268.5     5.22566e-36 
          273.5     5.03634e-36 
          278.5     6.06655e-23 
            284      3.2146e-22 
            290     1.69313e-21 
            296     8.22118e-21 
            301     2.91675e-20 
            308     1.59875e-19 
            318     1.58867e-18 
            328     1.36595e-17 
            338     1.02957e-16 
            348     6.88076e-16 
            357      3.4605e-15 
            366     1.60247e-14 
            375     6.87422e-14 
            385     3.19048e-13 
            395     1.36545e-12 
            405     5.42224e-12 
            414     1.76746e-11 
            422     4.83382e-11 
            430     1.27114e-10 
            441     4.52371e-10 
            451      1.35581e-9 
            460      3.48831e-9 
            470      9.53352e-9 
            480      2.49305e-8 
            490      6.25518e-8 
            500      1.50963e-7 
            506      2.47459e-7 
            512      4.14218e-7 
            520       7.8985e-7 
            530      1.71922e-6 
            540       3.6297e-6 
            550      7.44492e-6 
            560      1.48601e-5 
            570      2.89035e-5 
            580      5.48609e-5 
            590     0.000101744 
            600     0.000184587 
            610      0.00032796 
            620     0.000571219 
            630     0.000976326 
            640       0.0016389 
            650      0.00270452 
            658       0.0039901 
            665      0.00556126 
            675      0.00882157 
            685       0.0137918 
            695       0.0212642 
            705       0.0323516 
            716        0.050581 
            726       0.0749705 
            735        0.105775 
            745         0.15342 
            755        0.220146 
            765        0.312649 
            775        0.439656 
            785         0.61239 
            795        0.845283 
            805         1.15648 
            815         1.56891 
            825         2.11118 
            835         2.81872 
            845         3.73514 
            855         4.91355 
            865         6.41859 
            875         8.32803 
            885         10.7354 
            895         13.7509 
            905         17.5075 
            915         23.7649 
            925         52.5979 
            935         78.8946 
            945         126.667 
            955         175.393 
            965         229.681 
            975         205.947 
            985         383.616 
            995         501.799 
           1005         556.278 
           1015         554.403 
           1025         471.277 
           1035         801.797 
           1045         1111.74 
           1055         1328.81 
           1065         1675.48 
           1075          1940.2 
           1085         2331.44 
           1095         2613.83 
           1105         2916.15 
           1115         3255.41 
           1125         3723.46 
           1135         4184.83 
           1145         4629.29 
           1155         5021.65 
           1165          5360.5 
           1175         5631.74 
           1185         6869.92 
           1195         6585.26 
           1205         5949.73 
           1215         4410.58 
           1225         7125.51 
           1235           10169 
           1245         10367.7 
           1255           13138 
           1265         15903.3 
           1275         18756.9 
           1285         23125.4 
           1295         26860.4 
           1305         32936.2 
           1315         38036.2 
           1325         44629.2 
           1335         51530.6 
           1345           61313 
           1355         75324.3 
           1365           86609 
           1375         93415.9 
           1385         97433.4 
           1395          107912 
           1405          127733 
           1415          170305 
           1425          182463 
           1435          208724 
           1442          236850 
           1447          214975 
           1455          231676 
           1465          229033 
           1475          245003 
           1485          268655 
           1495          298447 
           1505          316183 
           1512          336712 
           1517          305635 
           1525          312302 
           1535          312147 
           1545          295209 
           1555          299028 
           1565          289620 
           1575          298437 
           1585          307370 
           1595          319136 
           1605          336523 
           1615          390173 
           1625          539737 
           1635      1.01896e+6 
           1645      2.80637e+6 
           1655        5.027e+6 
           1665      9.94433e+6 
           1672      1.27153e+7 
           1677      1.47674e+7 
           1685      1.70782e+7 
           1695      1.99758e+7 
           1705      2.21435e+7 
           1715      2.39418e+7 
           1725      2.49615e+7 
           1735       2.5896e+7 
           1745      2.62286e+7 
           1755      2.68381e+7 
           1765      2.71564e+7 
           1775      2.75221e+7 
           1785      2.78649e+7 
           1795      2.83469e+7 
           1805      2.82001e+7 
           1815      2.86565e+7 
           1825      2.86996e+7 
           1835      2.93241e+7 
           1845      2.90347e+7 
           1855      2.96214e+7 
           1865       3.0131e+7 
           1875      3.03495e+7 
           1885      3.05722e+7 
           1895      3.08022e+7 
           1905       3.0896e+7 
           1915      3.12213e+7 
           1925      3.14397e+7 
           1935       3.1197e+7 
           1945      3.18152e+7 
           1955      3.19912e+7 
           1967      3.22058e+7 
           1976      3.22344e+7 
           1984      3.22343e+7 
           1995      3.26295e+7 
           2005      3.27247e+7 
           2015      3.28599e+7 
           2025      3.28486e+7 
           2035      3.31915e+7 
           2045      3.33208e+7 
           2055      3.32765e+7 
           2065       3.3433e+7 
           2074      3.36952e+7 
           2078      3.37384e+7 
           2085       3.3786e+7 
           2095      3.39012e+7 
           2105      3.39905e+7 
           2115      3.41027e+7 
           2125      3.39902e+7 
           2135      3.42602e+7 
           2145      3.43845e+7 
           2155      3.44498e+7 
           2165      3.43332e+7 
           2175       3.4508e+7 
           2185      3.46608e+7 
           2195      3.47648e+7 
           2205      3.46671e+7 
           2215      3.42205e+7 
           2225      3.47772e+7 
           2235      3.50007e+7 
           2245      3.50147e+7 
           2255      3.49182e+7 
           2265      3.48632e+7 
           2275       3.4989e+7 
           2285      3.51128e+7 
           2295      3.50671e+7 
           2305      3.51875e+7 
           2315      3.51717e+7 
           2325      3.51332e+7 
           2335      3.47776e+7 
           2345      3.42987e+7 
           2355      3.50576e+7 
           2365      3.43791e+7 
           2375      3.48576e+7 
           2385      3.41328e+7 
           2395      3.47534e+7 
           2405      3.47789e+7 
           2415      3.47686e+7 
           2425      3.53556e+7 
           2435      3.52304e+7 
           2445      3.52547e+7 
           2455      3.53232e+7 
           2465      3.52169e+7 
           2475      3.51703e+7 
           2485      3.49732e+7 
           2495      3.49035e+7 
           2505      3.51393e+7 
           2513      3.47495e+7 
           2518      3.45516e+7 
           2525      3.46344e+7 
           2535      3.48284e+7 
           2545      3.50042e+7 
           2555      3.51353e+7 
           2565      3.47663e+7 
           2575      3.49161e+7 
           2585      3.47648e+7 
           2595       3.4635e+7 
           2605      3.45123e+7 
           2615      3.44488e+7 
           2625      3.44444e+7 
           2635      3.44634e+7 
           2645      3.49674e+7 
           2655      3.49258e+7 
           2665      3.48244e+7 
           2675      3.47993e+7 
           2685      3.48044e+7 
           2695      3.47759e+7 
           2705      3.47463e+7 
           2715      3.45419e+7 
           2725      3.44639e+7 
           2735      3.44727e+7 
           2745       3.3772e+7 
           2755      3.39021e+7 
           2765      3.43161e+7 
           2775       3.4397e+7 
           2785      3.42903e+7 
           2795      3.30809e+7 
           2805       3.3613e+7 
           2815      3.42351e+7 
           2825      3.41768e+7 
           2835      3.40734e+7 
           2845      3.40298e+7 
           2855      3.35834e+7 
           2865      3.39001e+7 
           2875      3.38639e+7 
           2885      3.37146e+7 
           2895      3.37761e+7 
           2910      3.36979e+7 
           2930      3.35085e+7 
           2950      3.33816e+7 
           2970      3.32936e+7 
           2990      3.31501e+7 
           3010      3.30475e+7 
           3030      3.29208e+7 
           3050      3.27986e+7 
           3070      3.26541e+7 
           3090      3.25279e+7 
           3110      3.24045e+7 
           3130      3.22698e+7 
           3150      3.21286e+7 
           3170      3.19993e+7 
           3190      3.18255e+7 
           3210      3.17164e+7 
           3230      3.15354e+7 
           3250      3.14366e+7 
           3270      3.13122e+7 
           3290      3.11773e+7 
           3310      3.10383e+7 
           3330      3.08867e+7 
           3350      3.07295e+7 
           3370      3.05937e+7 
           3390      3.04574e+7 
           3410      3.03312e+7 
           3430      3.01892e+7 
           3450      3.00425e+7 
           3470      2.99033e+7 
           3490      2.97651e+7 
           3510      2.96235e+7 
           3530      2.94822e+7 
           3550      2.93408e+7 
           3570      2.91924e+7 
           3590      2.90528e+7 
           3610      2.89136e+7 
           3630      2.87731e+7 
           3640      2.87034e+7 
           3650      2.87584e+7 
           3670      2.87171e+7 
           3690      2.80968e+7 
           3710      2.77728e+7 
           3730      2.65868e+7 
           3750       3.0275e+7 
           3770      3.09778e+7 
           3790      3.54303e+7 
           3810      4.04236e+7 
           3830      3.36745e+7 
           3850      4.41553e+7 
           3870      4.87007e+7 
           3890      3.03682e+7 
           3910      4.87986e+7 
           3930      5.22546e+7 
           3950      4.86483e+7 
           3970      2.97159e+7 
           3990      4.68211e+7 
           4010      5.21865e+7 
           4030      5.28366e+7 
           4050      5.22081e+7 
           4070      4.99633e+7 
           4090      3.98865e+7 
           4110      3.17917e+7 
           4130      4.76475e+7 
           4150      5.00811e+7 
           4170       5.0436e+7 
           4190      5.02818e+7 
           4210      4.99561e+7 
           4230      4.95333e+7 
           4250      4.90431e+7 
           4270      4.84009e+7 
           4290      4.73877e+7 
           4310          4.5e+7 
           4330      3.50047e+7 
           4350       3.0445e+7 
           4370      4.33013e+7 
           4390      4.53551e+7 
           4410      4.56807e+7 
           4430      4.55706e+7 
           4450      4.53122e+7 
           4470      4.50019e+7 
           4490      4.46635e+7 
           4510      4.43812e+7 
           4530      4.40288e+7 
           4550      4.36662e+7 
           4570      4.33065e+7 
           4590      4.29496e+7 
           4610       4.2599e+7 
           4630      4.22476e+7 
           4650      4.18989e+7 
           4670      4.15529e+7 
           4690      4.11222e+7 
           4710      4.07584e+7 
           4730      4.03875e+7 
           4750       3.9993e+7 
           4770      3.95491e+7 
           4790      3.89896e+7 
           4810      3.81206e+7 
           4830       3.6223e+7 
           4850      2.93792e+7 
           4870      2.45796e+7 
           4890      3.45203e+7 
           4910      3.63726e+7 
           4930      3.67384e+7 
           4950      3.66989e+7 
           4970      3.65216e+7 
           4990      3.62869e+7 
           5010      3.60263e+7 
           5030      3.57955e+7 
           5050      3.55332e+7 
           5070      3.52446e+7 
           5090       3.4958e+7 
           5110      3.46762e+7 
           5130      3.43949e+7 
           5150      3.41169e+7 
           5170      3.38323e+7 
           5190      3.35651e+7 
           5210      3.32996e+7 
           5230      3.30316e+7 
           5250      3.27667e+7 
           5270      3.25036e+7 
           5290      3.22435e+7 
           5310       3.1985e+7 
           5330      3.17282e+7 
           5350      3.14756e+7 
           5370      3.12233e+7 
           5390      3.09752e+7 
           5410      3.07285e+7 
           5430      3.04847e+7 
           5450      3.02424e+7 
           5470      3.00027e+7 
           5490      2.97645e+7 
           5510       2.9529e+7 
           5530      2.92961e+7 
           5550      2.90657e+7 
           5570      2.88367e+7 
           5590      2.86103e+7 
           5610      2.83839e+7 
           5630      2.81612e+7 
           5650      2.79398e+7 
           5670      2.77207e+7 
           5690      2.75029e+7 
           5710      2.72886e+7 
           5730      2.70755e+7 
           5750      2.68647e+7 
           5770       2.6655e+7 
           5790      2.64476e+7 
           5810      2.62424e+7 
           5830      2.60394e+7 
           5850      2.58374e+7 
           5870      2.56376e+7 
           5890      2.54388e+7 
           5910      2.52443e+7 
           5930      2.50497e+7 
           5950      2.48571e+7 
           5970      2.46665e+7 
           5990      2.44768e+7 
           6010      2.42892e+7 
           6030      2.41035e+7 
           6050      2.39197e+7 
           6070      2.37377e+7 
           6090      2.35567e+7 
           6110      2.33785e+7 
           6130      2.32011e+7 
           6150      2.30256e+7 
           6170      2.28508e+7 
           6190      2.26788e+7 
           6210      2.25076e+7 
           6230       2.2339e+7 
           6250      2.21712e+7 
           6270      2.20041e+7 
           6290      2.18397e+7 
           6310      2.16768e+7 
           6330      2.15147e+7 
           6350      2.13542e+7 
           6370      2.11952e+7 
           6390      2.10203e+7 
           6410      2.08288e+7 
           6430      2.06557e+7 
           6450      2.04726e+7 
           6470       2.0267e+7 
           6490      2.00153e+7 
           6510      1.96436e+7 
           6530      1.88926e+7 
           6550      1.65523e+7 
           6570      1.37007e+7 
           6590      1.78709e+7 
           6610      1.87519e+7 
           6630      1.89432e+7 
           6650      1.89376e+7 
           6670       1.8864e+7 
           6690      1.87615e+7 
           6710      1.86448e+7 
           6730      1.85358e+7 
           6750      1.84245e+7 
           6770      1.82911e+7 
           6790       1.8159e+7 
           6810      1.80282e+7 
           6830      1.78985e+7 
           6850      1.77692e+7 
           6870       1.7642e+7 
           6890      1.75151e+7 
           6910      1.73902e+7 
           6930      1.72657e+7 
           6950      1.71423e+7 
           6970      1.70208e+7 
           6990      1.68996e+7 
           7010      1.67795e+7 
           7030      1.66606e+7 
           7050      1.65427e+7 
           7070      1.64258e+7 
           7090      1.63093e+7 
           7110      1.61946e+7 
           7130      1.60809e+7 
           7150      1.59675e+7 
           7170      1.58558e+7 
           7190      1.57444e+7 
           7210      1.56347e+7 
           7230      1.55253e+7 
           7250      1.54168e+7 
           7270        1.531e+7 
           7290      1.52034e+7 
           7310      1.50978e+7 
           7330      1.49931e+7 
           7350      1.48893e+7 
           7370      1.47857e+7 
           7390      1.46837e+7 
           7410      1.45819e+7 
           7430      1.44816e+7 
           7450      1.43816e+7 
           7470      1.42831e+7 
           7490      1.41847e+7 
           7510      1.40879e+7 
           7530      1.39913e+7 
           7550      1.38954e+7 
           7570      1.38011e+7 
           7590      1.37068e+7 
           7610      1.36134e+7 
           7630      1.35214e+7 
           7650      1.34296e+7 
           7670      1.33385e+7 
           7690      1.32482e+7 
           7710      1.31586e+7 
           7730      1.30705e+7 
           7750      1.29824e+7 
           7770      1.28944e+7 
           7790      1.28084e+7 
           7810      1.27225e+7 
           7830      1.26373e+7 
           7850      1.25529e+7 
           7870      1.24691e+7 
           7890       1.2386e+7 
           7910      1.23041e+7 
           7930      1.22224e+7 
           7950      1.21413e+7 
           7970      1.20609e+7 
           7990      1.19811e+7 
           8010       1.1902e+7 
           8030      1.18235e+7 
           8050      1.17456e+7 
           8070      1.16684e+7 
           8090      1.15917e+7 
           8110      1.15157e+7 
           8130      1.14403e+7 
           8150      1.13655e+7 
           8170      1.12913e+7 
           8190      1.12177e+7 
           8210       1.1152e+7 
           8230      1.10823e+7 
           8250      1.10136e+7 
           8270      1.09456e+7 
           8290       1.0878e+7 
           8310       1.0811e+7 
           8330      1.07439e+7 
           8350      1.06769e+7 
           8370      1.06082e+7 
           8390        1.054e+7 
           8410      1.04691e+7 
           8430       1.0402e+7 
           8450       1.0337e+7 
           8470      1.02368e+7 
           8490      1.02127e+7 
           8510      1.00654e+7 
           8530      1.00948e+7 
           8550      9.81215e+6 
           8570       1.0006e+7 
           8590      9.74804e+6 
