# Kurucz ODFNEW /NOVER (2003)
# teff = 23000 K (value for the effective temperature for the model. Temperatures are given in K)
# logg = 4.5 log(cm/s2) (value for Log(G) for the model.)
# meta = -1.5  (value for the Metallicity for the model.)
# lh = 1.25  (l/Hp where l is the  mixing length of the convective element and Hp is the pressure scale height)
# vtur = 2 km/s (Microturbulence velocity)
# alpha = 0.4  (Alpha)
#
# column 1: WAVELENGTH (ANGSTROM), Wavelength in Angstrom
# column 2: FLUX (ERG/CM2/S/A), Flux in erg/cm2/s/A
          147.2     1.72266e-16 
            151     8.89109e-16 
          155.2     4.99615e-15 
          158.8     2.04966e-14 
            162     6.84642e-14 
            166     2.90791e-13 
          170.3     1.28172e-12 
          173.4     3.57778e-12 
          176.8     1.06058e-11 
          180.2     3.02397e-11 
          181.7     4.74408e-11 
          186.1     1.70867e-10 
            191     6.65816e-10 
          193.9       1.4429e-9 
          198.4      4.58774e-9 
          201.8      1.06331e-8 
            205      2.28763e-8 
          210.5      8.08786e-8 
          216.2       2.7984e-7 
          219.8      5.92932e-7 
            223      1.13226e-6 
          226.8      2.38313e-6 
            230      1.82568e-5 
            234      4.28654e-5 
            240     0.000115262 
          246.5     0.000317623 
          252.4     0.000767702 
          256.8       0.0014048 
            260      0.00222677 
            264      0.00380162 
          268.5       0.0067944 
          273.5       0.0126478 
          278.5       0.0230592 
            284       0.0435213 
            290       0.0844394 
            296        0.159079 
            301         0.26461 
            308        0.515469 
            318         1.31902 
            328         3.11657 
            338         7.01397 
            348         14.9953 
            357         28.6429 
            366          52.976 
            375         94.4014 
            385         173.942 
            395         309.327 
            405         534.047 
            414         853.178 
            422         1266.78 
            430         1849.17 
            441         3054.42 
            451         4704.65 
            460         6806.95 
            470         10085.2 
            480         14663.7 
            490         20978.2 
            500         29528.1 
            506          207761 
            512          666804 
            520          838502 
            530      1.16133e+6 
            540      1.28109e+6 
            550      1.79709e+6 
            560      2.14793e+6 
            570      2.62528e+6 
            580      2.68448e+6 
            590      3.52985e+6 
            600      4.31952e+6 
            610      5.11911e+6 
            620      5.88145e+6 
            630      6.85251e+6 
            640      7.67264e+6 
            650      8.82537e+6 
            658      9.97328e+6 
            665      1.08438e+7 
            675      1.20024e+7 
            685      1.34442e+7 
            695      1.55262e+7 
            705      1.71756e+7 
            716      1.93775e+7 
            726      2.13418e+7 
            735      2.35093e+7 
            745      2.60977e+7 
            755      2.87234e+7 
            765      3.13595e+7 
            775       3.4465e+7 
            785       3.7595e+7 
            795      4.05922e+7 
            805      4.40623e+7 
            815      4.74762e+7 
            825      5.14273e+7 
            835      5.43299e+7 
            845       5.9003e+7 
            855      6.29699e+7 
            865      6.77305e+7 
            875      7.24452e+7 
            885      7.75368e+7 
            895       8.2417e+7 
            905       8.6084e+7 
            915      1.27041e+8 
            925      6.26587e+8 
            935      1.97913e+9 
            945      7.76513e+9 
            955     1.37341e+10 
            965     1.90128e+10 
            975      5.72767e+9 
            985     2.44336e+10 
            995     2.40644e+10 
           1005     2.50153e+10 
           1015     2.09814e+10 
           1025      4.41157e+9 
           1035     1.73477e+10 
           1045     2.51996e+10 
           1055     2.47021e+10 
           1065     2.21004e+10 
           1075     2.34427e+10 
           1085     2.16058e+10 
           1095     2.29973e+10 
           1105     2.13149e+10 
           1115     2.10591e+10 
           1125     1.95416e+10 
           1135     2.06525e+10 
           1145     1.89815e+10 
           1155     1.96175e+10 
           1165     1.94296e+10 
           1175     1.64139e+10 
           1185     1.84581e+10 
           1195     1.64515e+10 
           1205      1.2017e+10 
           1215      3.31119e+9 
           1225     1.21038e+10 
           1235     1.58401e+10 
           1245     1.60584e+10 
           1255     1.56337e+10 
           1265     1.53816e+10 
           1275     1.54898e+10 
           1285     1.51315e+10 
           1295     1.31435e+10 
           1305     1.30561e+10 
           1315     1.41901e+10 
           1325     1.36405e+10 
           1335      1.3064e+10 
           1345     1.30908e+10 
           1355     1.30766e+10 
           1365     1.25017e+10 
           1375     1.23359e+10 
           1385     1.22095e+10 
           1395     1.11825e+10 
           1405     1.12685e+10 
           1415      1.1402e+10 
           1425     1.11934e+10 
           1435     1.10619e+10 
           1442     1.10515e+10 
           1447     1.09076e+10 
           1455     1.07065e+10 
           1465     1.04281e+10 
           1475     1.02495e+10 
           1485     1.00002e+10 
           1495      9.82857e+9 
           1505      9.41048e+9 
           1512      9.21578e+9 
           1517      9.24844e+9 
           1525      9.10776e+9 
           1535      8.65436e+9 
           1545        8.671e+9 
           1555      8.35636e+9 
           1565      8.42587e+9 
           1575      8.40275e+9 
           1585      8.24427e+9 
           1595      8.15706e+9 
           1605      7.89515e+9 
           1615      7.75637e+9 
           1625      7.70129e+9 
           1635      7.65388e+9 
           1645      7.45837e+9 
           1655      7.36218e+9 
           1665      7.31301e+9 
           1672      7.11957e+9 
           1677      7.21194e+9 
           1685      7.10183e+9 
           1695      6.92741e+9 
           1705      6.75761e+9 
           1715       6.5685e+9 
           1725      6.47775e+9 
           1735      6.43045e+9 
           1745      6.31329e+9 
           1755      6.27543e+9 
           1765      6.00934e+9 
           1775      5.97984e+9 
           1785      5.91326e+9 
           1795      5.89234e+9 
           1805      5.81914e+9 
           1815      5.64998e+9 
           1825      5.61312e+9 
           1835       5.5087e+9 
           1845      5.25237e+9 
           1855      5.14225e+9 
           1865      5.13642e+9 
           1875      5.15861e+9 
           1885      4.89982e+9 
           1895      4.71386e+9 
           1905      4.83444e+9 
           1915      4.66604e+9 
           1925      4.56798e+9 
           1935      4.60057e+9 
           1945      4.60408e+9 
           1955      4.38046e+9 
           1967      4.45093e+9 
           1976       4.4839e+9 
           1984      4.32129e+9 
           1995      4.19729e+9 
           2005      4.22946e+9 
           2015      4.20958e+9 
           2025       4.1976e+9 
           2035      4.06593e+9 
           2045      4.01419e+9 
           2055      3.89074e+9 
           2065      3.88857e+9 
           2074      3.92076e+9 
           2078      3.81939e+9 
           2085      3.81572e+9 
           2095      3.71002e+9 
           2105      3.72323e+9 
           2115      3.68887e+9 
           2125      3.67392e+9 
           2135      3.61189e+9 
           2145      3.53736e+9 
           2155      3.51953e+9 
           2165       3.4756e+9 
           2175      3.42309e+9 
           2185      3.38315e+9 
           2195      3.34778e+9 
           2205       3.3002e+9 
           2215      3.25811e+9 
           2225      3.20644e+9 
           2235      3.16665e+9 
           2245      3.13514e+9 
           2255      3.08665e+9 
           2265      3.05688e+9 
           2275       3.0166e+9 
           2285      2.98355e+9 
           2295       2.9124e+9 
           2305      2.90491e+9 
           2315      2.86124e+9 
           2325      2.82852e+9 
           2335      2.77823e+9 
           2345      2.74123e+9 
           2355      2.72431e+9 
           2365      2.68368e+9 
           2375      2.65264e+9 
           2385      2.61323e+9 
           2395      2.58567e+9 
           2405      2.55457e+9 
           2415      2.51931e+9 
           2425      2.50268e+9 
           2435      2.46564e+9 
           2445      2.43852e+9 
           2455      2.41432e+9 
           2465      2.38225e+9 
           2475      2.35529e+9 
           2485      2.32716e+9 
           2495      2.26218e+9 
           2505      2.27021e+9 
           2513      2.22595e+9 
           2518      2.23311e+9 
           2525      2.21507e+9 
           2535      2.18725e+9 
           2545      2.14927e+9 
           2555       2.1412e+9 
           2565       2.1124e+9 
           2575      2.09687e+9 
           2585      2.07301e+9 
           2595      2.04879e+9 
           2605      2.03825e+9 
           2615      2.01746e+9 
           2625      1.99648e+9 
           2635      1.97078e+9 
           2645      1.95311e+9 
           2655      1.92837e+9 
           2665      1.89929e+9 
           2675      1.87848e+9 
           2685      1.87162e+9 
           2695      1.83276e+9 
           2705      1.82953e+9 
           2715      1.80892e+9 
           2725      1.77193e+9 
           2735      1.77027e+9 
           2745       1.7399e+9 
           2755      1.72416e+9 
           2765      1.69511e+9 
           2775      1.69573e+9 
           2785      1.67634e+9 
           2795      1.62477e+9 
           2805      1.62834e+9 
           2815      1.62435e+9 
           2825       1.5871e+9 
           2835      1.56842e+9 
           2845      1.57226e+9 
           2855        1.556e+9 
           2865      1.54052e+9 
           2875      1.52412e+9 
           2885      1.50855e+9 
           2895       1.4928e+9 
           2910      1.46922e+9 
           2930      1.43729e+9 
           2950      1.39787e+9 
           2970      1.38154e+9 
           2990      1.35263e+9 
           3010      1.32598e+9 
           3030      1.30045e+9 
           3050       1.2747e+9 
           3070      1.24964e+9 
           3090      1.22317e+9 
           3110      1.20107e+9 
           3130        1.179e+9 
           3150      1.15644e+9 
           3170      1.13376e+9 
           3190      1.10178e+9 
           3210      1.09091e+9 
           3230         1.07e+9 
           3250      1.04992e+9 
           3270      1.03169e+9 
           3290      1.01097e+9 
           3310      9.93978e+8 
           3330      9.75721e+8 
           3350      9.56015e+8 
           3370      9.40488e+8 
           3390      9.23556e+8 
           3410      9.06987e+8 
           3430      8.86675e+8 
           3450      8.67625e+8 
           3470      8.54868e+8 
           3490      8.39778e+8 
           3510      8.27024e+8 
           3530      8.14445e+8 
           3550       8.0063e+8 
           3570      7.91567e+8 
           3590      7.72365e+8 
           3610      7.61547e+8 
           3630       7.4646e+8 
           3640      7.45719e+8 
           3650      7.33551e+8 
           3670      7.24655e+8 
           3690      7.11149e+8 
           3710      6.86341e+8 
           3730      6.56743e+8 
           3750      6.79734e+8 
           3770      6.78902e+8 
           3790      7.25443e+8 
           3810      7.63549e+8 
           3830      6.55743e+8 
           3850      7.95954e+8 
           3870      8.14513e+8 
           3890      6.16924e+8 
           3910       8.0466e+8 
           3930       7.9915e+8 
           3950      7.80309e+8 
           3970      5.74958e+8 
           3990       7.4574e+8 
           4010      7.50666e+8 
           4030      6.98047e+8 
           4050      7.36532e+8 
           4070      7.17621e+8 
           4090      6.40806e+8 
           4110      5.49725e+8 
           4130       6.7013e+8 
           4150      6.68893e+8 
           4170       6.6546e+8 
           4190      6.57062e+8 
           4210      6.46817e+8 
           4230      6.35999e+8 
           4250      6.25084e+8 
           4270      6.11969e+8 
           4290      6.02694e+8 
           4310      5.87481e+8 
           4330      5.14331e+8 
           4350      4.65235e+8 
           4370      5.57117e+8 
           4390      5.35672e+8 
           4410      5.47619e+8 
           4430      5.37348e+8 
           4450      5.31635e+8 
           4470      4.92931e+8 
           4490      5.13198e+8 
           4510       5.0773e+8 
           4530      4.99714e+8 
           4550      4.91745e+8 
           4570      4.84096e+8 
           4590        4.769e+8 
           4610      4.69669e+8 
           4630      4.62562e+8 
           4650      4.54515e+8 
           4670      4.48574e+8 
           4690      4.42136e+8 
           4710       4.2837e+8 
           4730      4.28443e+8 
           4750      4.21737e+8 
           4770      4.16519e+8 
           4790       4.1001e+8 
           4810      4.02504e+8 
           4830      3.93009e+8 
           4850      3.52362e+8 
           4870      3.11382e+8 
           4890       3.7386e+8 
           4910      3.73196e+8 
           4930      3.58022e+8 
           4950      3.64944e+8 
           4970      3.60015e+8 
           4990      3.54866e+8 
           5010      3.44338e+8 
           5030      3.44852e+8 
           5050      3.36985e+8 
           5070      3.35357e+8 
           5090      3.30662e+8 
           5110      3.26059e+8 
           5130      3.21489e+8 
           5150      3.17037e+8 
           5170       3.1277e+8 
           5190       3.0849e+8 
           5210      3.04003e+8 
           5230      3.00181e+8 
           5250      2.96094e+8 
           5270      2.92087e+8 
           5290      2.88187e+8 
           5310      2.84323e+8 
           5330      2.80483e+8 
           5350      2.76665e+8 
           5370      2.73119e+8 
           5390      2.69501e+8 
           5410      2.65955e+8 
           5430      2.62351e+8 
           5450       2.5897e+8 
           5470      2.55607e+8 
           5490      2.52335e+8 
           5510      2.49043e+8 
           5530      2.45828e+8 
           5550      2.42677e+8 
           5570      2.39553e+8 
           5590      2.36504e+8 
           5610      2.33456e+8 
           5630      2.30541e+8 
           5650      2.27436e+8 
           5670      2.24604e+8 
           5690      2.21806e+8 
           5710      2.19123e+8 
           5730      2.16391e+8 
           5750      2.13658e+8 
           5770      2.11059e+8 
           5790      2.08446e+8 
           5810      2.05864e+8 
           5830      2.03334e+8 
           5850      2.00845e+8 
           5870      1.91246e+8 
           5890      1.95379e+8 
           5910      1.93585e+8 
           5930      1.91242e+8 
           5950      1.88894e+8 
           5970      1.86669e+8 
           5990      1.84395e+8 
           6010      1.82231e+8 
           6030      1.80051e+8 
           6050      1.77915e+8 
           6070      1.75804e+8 
           6090      1.73727e+8 
           6110      1.71693e+8 
           6130      1.69673e+8 
           6150      1.67644e+8 
           6170      1.65728e+8 
           6190      1.63804e+8 
           6210       1.6191e+8 
           6230      1.60037e+8 
           6250      1.58176e+8 
           6270      1.56373e+8 
           6290      1.54571e+8 
           6310      1.52798e+8 
           6330      1.51072e+8 
           6350      1.49206e+8 
           6370      1.47593e+8 
           6390      1.45988e+8 
           6410      1.44336e+8 
           6430      1.42737e+8 
           6450      1.41129e+8 
           6470      1.39538e+8 
           6490      1.37991e+8 
           6510      1.36069e+8 
           6530      1.33787e+8 
           6550      1.25815e+8 
           6570      1.10615e+8 
           6590      1.28048e+8 
           6610      1.28551e+8 
           6630      1.27579e+8 
           6650      1.26413e+8 
           6670      1.23505e+8 
           6690      1.22204e+8 
           6710      1.22355e+8 
           6730      1.21038e+8 
           6750      1.19751e+8 
           6770       1.1847e+8 
           6790       1.1716e+8 
           6810      1.15953e+8 
           6830      1.14717e+8 
           6850      1.13503e+8 
           6870      1.12308e+8 
           6890      1.11125e+8 
           6910      1.09954e+8 
           6930      1.08795e+8 
           6950       1.0767e+8 
           6970      1.06549e+8 
           6990      1.05439e+8 
           7010      1.04348e+8 
           7030      1.03267e+8 
           7050      1.02197e+8 
           7070      9.93886e+7 
           7090       1.0011e+8 
           7110      9.90858e+7 
           7130      9.80786e+7 
           7150      9.70738e+7 
           7170      9.60787e+7 
           7190      9.51222e+7 
           7210      9.41604e+7 
           7230      9.29916e+7 
           7250      9.22714e+7 
           7270       9.1351e+7 
           7290      8.96453e+7 
           7310      8.95221e+7 
           7330      8.86486e+7 
           7350      8.77693e+7 
           7370      8.68982e+7 
           7390      8.60422e+7 
           7410      8.51942e+7 
           7430       8.4354e+7 
           7450      8.35487e+7 
           7470      8.27239e+7 
           7490        8.192e+7 
           7510      8.10969e+7 
           7530      8.03411e+7 
           7550      7.95657e+7 
           7570      7.87974e+7 
           7590      7.80361e+7 
           7610      7.72882e+7 
           7630      7.65471e+7 
           7650       7.5819e+7 
           7670      7.50975e+7 
           7690      7.43825e+7 
           7710      7.36739e+7 
           7730      7.29779e+7 
           7750      7.22881e+7 
           7770      7.15358e+7 
           7790      7.09393e+7 
           7810      7.02306e+7 
           7830      6.96142e+7 
           7850      6.90276e+7 
           7870      6.83791e+7 
           7890       6.7694e+7 
           7910      6.71414e+7 
           7930      6.65216e+7 
           7950      6.58714e+7 
           7970      6.51498e+7 
           7990      6.45349e+7 
           8010      6.39429e+7 
           8030       6.3356e+7 
           8050      6.27742e+7 
           8070      6.22205e+7 
           8090      6.15793e+7 
           8110      6.11156e+7 
           8130       6.0593e+7 
           8150      5.99897e+7 
           8170      5.95327e+7 
           8190      5.89222e+7 
           8210       5.8261e+7 
           8230      5.79003e+7 
           8250      5.74151e+7 
           8270      5.66254e+7 
           8290       5.6369e+7 
           8310      5.58961e+7 
           8330      5.53783e+7 
           8350      5.46162e+7 
           8370      5.43233e+7 
           8390      5.39362e+7 
           8410      5.34615e+7 
           8430      5.29436e+7 
           8450      5.20966e+7 
           8470      5.19858e+7 
           8490      5.14192e+7 
           8510      5.09604e+7 
           8530      5.05291e+7 
           8550      4.96292e+7 
           8570      5.01518e+7 
