# Kurucz ODFNEW /NOVER (2003)
# teff = 25000 K (value for the effective temperature for the model. Temperatures are given in K)
# logg = 4.5 log(cm/s2) (value for Log(G) for the model.)
# meta = -2  (value for the Metallicity for the model.)
# lh = 1.25  (l/Hp where l is the  mixing length of the convective element and Hp is the pressure scale height)
# vtur = 2 km/s (Microturbulence velocity)
# alpha = 0.4  (Alpha)
#
# column 1: WAVELENGTH (ANGSTROM), Wavelength in Angstrom
# column 2: FLUX (ERG/CM2/S/A), Flux in erg/cm2/s/A
          147.2     3.26155e-14 
            151     1.56694e-13 
          155.2     8.14408e-13 
          158.8     3.12678e-12 
            162     9.84659e-12 
            166     3.88514e-11 
          170.3     1.58267e-10 
          173.4     4.17142e-10 
          176.8      1.16112e-9 
          180.2      3.10866e-9 
          181.7      4.74374e-9 
          186.1      1.57487e-8 
            191      5.60865e-8 
          193.9      1.15312e-7 
          198.4      3.37905e-7 
          201.8      7.36923e-7 
            205       1.4984e-6 
          210.5      4.81677e-6 
          216.2      1.51337e-5 
          219.8      3.01909e-5 
            223      5.47038e-5 
          226.8     0.000108313 
            230     0.000966464 
            234      0.00219415 
            240      0.00537801 
          246.5       0.0134907 
          252.4       0.0301208 
          256.8       0.0513055 
            260       0.0789404 
            264        0.128003 
          268.5         0.21641 
          273.5        0.379463 
          278.5        0.652749 
            284         1.15822 
            290         2.10641 
            296         3.72928 
            301         5.89039 
            308         10.6124 
            318         25.0646 
            328         54.3257 
            338         112.613 
            348         222.801 
            357         397.985 
            366         690.851 
            375         1158.73 
            385         2003.75 
            395         3353.32 
            405         5463.12 
            414         8303.63 
            422         11813.4 
            430           16548 
            441         25893.2 
            451         38052.4 
            460         52856.1 
            470         74994.6 
            480          104590 
            490          143753 
            500          194724 
            506      1.17663e+6 
            512      3.78161e+6 
            520       4.5514e+6 
            530      6.01748e+6 
            540      6.43179e+6 
            550      8.59703e+6 
            560      9.93263e+6 
            570      1.17135e+7 
            580      1.18215e+7 
            590      1.49642e+7 
            600      1.76152e+7 
            610      2.02326e+7 
            620      2.26841e+7 
            630      2.57569e+7 
            640      2.83035e+7 
            650      3.20465e+7 
            658      3.52076e+7 
            665      3.77577e+7 
            675      4.09956e+7 
            685      4.48832e+7 
            695      5.08418e+7 
            705      5.51028e+7 
            716      6.09778e+7 
            726      6.61755e+7 
            735      7.18835e+7 
            745      7.83019e+7 
            755      8.47406e+7 
            765      9.11528e+7 
            775      9.85753e+7 
            785      1.05953e+8 
            795      1.12996e+8 
            805      1.21031e+8 
            815      1.28839e+8 
            825      1.37574e+8 
            835      1.43543e+8 
            845      1.54443e+8 
            855      1.62936e+8 
            865      1.73067e+8 
            875       1.8303e+8 
            885      1.93279e+8 
            895      2.03296e+8 
            905      2.11197e+8 
            915      2.99894e+8 
            925       1.6855e+9 
            935      4.90182e+9 
            945     1.56834e+10 
            955     2.33099e+10 
            965     3.13961e+10 
            975     1.18088e+10 
            985     3.65296e+10 
            995     3.51586e+10 
           1005     3.63871e+10 
           1015     3.20223e+10 
           1025      9.27745e+9 
           1035     2.82319e+10 
           1045     3.52262e+10 
           1055     3.43686e+10 
           1065     3.16237e+10 
           1075     3.24321e+10 
           1085      2.9955e+10 
           1095     3.15359e+10 
           1105     2.98974e+10 
           1115     2.94035e+10 
           1125      2.7496e+10 
           1135     2.83141e+10 
           1145      2.6582e+10 
           1155     2.69447e+10 
           1165     2.64835e+10 
           1175     2.31286e+10 
           1185     2.50796e+10 
           1195     2.31524e+10 
           1205     1.92388e+10 
           1215      6.51341e+9 
           1225     1.89147e+10 
           1235     2.19859e+10 
           1245     2.17369e+10 
           1255     2.13575e+10 
           1265     2.08603e+10 
           1275     2.07909e+10 
           1285     2.03139e+10 
           1295     1.85385e+10 
           1305     1.85154e+10 
           1315     1.89865e+10 
           1325     1.83326e+10 
           1335     1.76444e+10 
           1345     1.76163e+10 
           1355     1.74807e+10 
           1365     1.68693e+10 
           1375     1.66192e+10 
           1385     1.63508e+10 
           1395     1.53011e+10 
           1405      1.5224e+10 
           1415     1.52615e+10 
           1425         1.5e+10 
           1435     1.47468e+10 
           1442     1.46297e+10 
           1447     1.44651e+10 
           1455     1.42205e+10 
           1465     1.39072e+10 
           1475     1.36446e+10 
           1485     1.33656e+10 
           1495     1.31026e+10 
           1505     1.26611e+10 
           1512     1.25386e+10 
           1517     1.24683e+10 
           1525     1.22549e+10 
           1535     1.17825e+10 
           1545     1.16569e+10 
           1555     1.13427e+10 
           1565     1.13398e+10 
           1575     1.12012e+10 
           1585     1.09966e+10 
           1595     1.08269e+10 
           1605     1.04966e+10 
           1615     1.03012e+10 
           1625     1.02137e+10 
           1635     1.00763e+10 
           1645      9.75951e+9 
           1655      9.73106e+9 
           1665      9.58571e+9 
           1672      9.41209e+9 
           1677       9.4316e+9 
           1685      9.28639e+9 
           1695      9.09335e+9 
           1705      8.90885e+9 
           1715      8.70638e+9 
           1725       8.5737e+9 
           1735      8.46877e+9 
           1745      8.31755e+9 
           1755      8.21459e+9 
           1765      7.95392e+9 
           1775      7.87531e+9 
           1785       7.7749e+9 
           1795      7.69355e+9 
           1805       7.5868e+9 
           1815      7.42314e+9 
           1825      7.32358e+9 
           1835      7.20236e+9 
           1845      6.96136e+9 
           1855       6.7905e+9 
           1865      6.74831e+9 
           1875      6.73106e+9 
           1885      6.48659e+9 
           1895      6.29452e+9 
           1905      6.35806e+9 
           1915      6.16208e+9 
           1925       6.0537e+9 
           1935      6.04099e+9 
           1945       6.0102e+9 
           1955      5.78052e+9 
           1967      5.80543e+9 
           1976      5.78866e+9 
           1984      5.64024e+9 
           1995      5.48015e+9 
           2005      5.50481e+9 
           2015      5.45968e+9 
           2025      5.40515e+9 
           2035      5.28284e+9 
           2045      5.20617e+9 
           2055      5.05589e+9 
           2065      5.00342e+9 
           2074      5.02244e+9 
           2078      4.91676e+9 
           2085      4.90745e+9 
           2095      4.80415e+9 
           2105      4.79254e+9 
           2115      4.74497e+9 
           2125      4.69641e+9 
           2135      4.62533e+9 
           2145      4.54824e+9 
           2155      4.49907e+9 
           2165      4.44097e+9 
           2175      4.37585e+9 
           2185      4.32011e+9 
           2195      4.26559e+9 
           2205      4.20692e+9 
           2215      4.15113e+9 
           2225      4.09244e+9 
           2235      4.03629e+9 
           2245      3.98763e+9 
           2255       3.9316e+9 
           2265      3.88352e+9 
           2275      3.83213e+9 
           2285      3.78344e+9 
           2295      3.69983e+9 
           2305      3.68403e+9 
           2315      3.63428e+9 
           2325      3.58838e+9 
           2335      3.53719e+9 
           2345      3.49407e+9 
           2355      3.45345e+9 
           2365      3.40861e+9 
           2375      3.36474e+9 
           2385      3.32109e+9 
           2395      3.27982e+9 
           2405      3.23951e+9 
           2415      3.19678e+9 
           2425      3.16131e+9 
           2435      3.11983e+9 
           2445      3.08226e+9 
           2455      3.04595e+9 
           2465       3.0079e+9 
           2475      2.97115e+9 
           2485      2.93484e+9 
           2495      2.85575e+9 
           2505      2.86283e+9 
           2513       2.8222e+9 
           2518      2.81647e+9 
           2525       2.7945e+9 
           2535      2.76118e+9 
           2545      2.71649e+9 
           2555      2.69434e+9 
           2565       2.6625e+9 
           2575      2.63407e+9 
           2585      2.60325e+9 
           2595      2.57265e+9 
           2605      2.56054e+9 
           2615      2.53124e+9 
           2625      2.50177e+9 
           2635      2.46942e+9 
           2645      2.44092e+9 
           2655      2.40932e+9 
           2665      2.37583e+9 
           2675      2.34621e+9 
           2685      2.33524e+9 
           2695      2.28926e+9 
           2705      2.28199e+9 
           2715      2.25617e+9 
           2725      2.21123e+9 
           2735      2.20541e+9 
           2745      2.17832e+9 
           2755      2.15499e+9 
           2765      2.11268e+9 
           2775      2.10922e+9 
           2785       2.0855e+9 
           2795       2.0395e+9 
           2805      2.03126e+9 
           2815       2.0178e+9 
           2825      1.97234e+9 
           2835      1.95648e+9 
           2845      1.95248e+9 
           2855       1.9312e+9 
           2865      1.91049e+9 
           2875      1.88989e+9 
           2885      1.86979e+9 
           2895      1.84966e+9 
           2910      1.81992e+9 
           2930      1.78107e+9 
           2950      1.73008e+9 
           2970      1.70788e+9 
           2990      1.67204e+9 
           3010      1.63759e+9 
           3030      1.60443e+9 
           3050      1.57179e+9 
           3070      1.53995e+9 
           3090       1.5073e+9 
           3110      1.47855e+9 
           3130      1.45048e+9 
           3150      1.42172e+9 
           3170      1.39334e+9 
           3190      1.35345e+9 
           3210       1.3389e+9 
           3230      1.31255e+9 
           3250      1.28707e+9 
           3270      1.26394e+9 
           3290       1.2379e+9 
           3310      1.21631e+9 
           3330      1.19332e+9 
           3350      1.16861e+9 
           3370      1.14894e+9 
           3390      1.12762e+9 
           3410      1.10675e+9 
           3430      1.08133e+9 
           3450       1.0575e+9 
           3470      1.04144e+9 
           3490      1.02245e+9 
           3510      1.00634e+9 
           3530       9.9037e+8 
           3550      9.72995e+8 
           3570      9.61562e+8 
           3590      9.37724e+8 
           3610      9.24211e+8 
           3630      9.05221e+8 
           3640      9.04206e+8 
           3650      8.94423e+8 
           3670      8.82995e+8 
           3690      8.66394e+8 
           3710      8.36304e+8 
           3730      8.00986e+8 
           3750      8.20513e+8 
           3770      8.14746e+8 
           3790      8.61667e+8 
           3810      9.01798e+8 
           3830       7.8061e+8 
           3850       9.3249e+8 
           3870      9.48357e+8 
           3890      7.35678e+8 
           3910      9.33587e+8 
           3930      9.26109e+8 
           3950      9.04344e+8 
           3970      6.84313e+8 
           3990      8.65455e+8 
           4010      8.66238e+8 
           4030      8.09367e+8 
           4050      8.48155e+8 
           4070      8.28082e+8 
           4090      7.48747e+8 
           4110      6.47876e+8 
           4130      7.74777e+8 
           4150      7.70302e+8 
           4170      7.65487e+8 
           4190      7.54957e+8 
           4210      7.42721e+8 
           4230      7.30261e+8 
           4250      7.17856e+8 
           4270      7.04349e+8 
           4290      6.92495e+8 
           4310      6.76045e+8 
           4330      6.00572e+8 
           4350      5.45389e+8 
           4370      6.41353e+8 
           4390      6.16835e+8 
           4410      6.28493e+8 
           4430      6.16438e+8 
           4450      6.09464e+8 
           4470      5.67821e+8 
           4490       5.8931e+8 
           4510      5.81501e+8 
           4530      5.72358e+8 
           4550      5.63243e+8 
           4570      5.54391e+8 
           4590       5.4594e+8 
           4610      5.37633e+8 
           4630      5.29413e+8 
           4650      5.20408e+8 
           4670      5.13231e+8 
           4690      5.05489e+8 
           4710      4.90626e+8 
           4730      4.90341e+8 
           4750      4.82798e+8 
           4770      4.76009e+8 
           4790      4.68841e+8 
           4810       4.6044e+8 
           4830      4.50272e+8 
           4850      4.08609e+8 
           4870      3.63039e+8 
           4890      4.28545e+8 
           4910      4.26655e+8 
           4930      4.09932e+8 
           4950      4.16636e+8 
           4970      4.10803e+8 
           4990      4.04899e+8 
           5010      3.93493e+8 
           5030      3.93408e+8 
           5050      3.85083e+8 
           5070      3.82403e+8 
           5090      3.77019e+8 
           5110      3.71722e+8 
           5130       3.6651e+8 
           5150      3.61396e+8 
           5170      3.56407e+8 
           5190      3.51497e+8 
           5210      3.46583e+8 
           5230      3.41899e+8 
           5250      3.37222e+8 
           5270      3.32632e+8 
           5290      3.28116e+8 
           5310      3.23671e+8 
           5330      3.19311e+8 
           5350      3.14993e+8 
           5370      3.10809e+8 
           5390      3.06652e+8 
           5410      3.02574e+8 
           5430      2.98548e+8 
           5450      2.94611e+8 
           5470      2.90735e+8 
           5490      2.86933e+8 
           5510      2.83167e+8 
           5530      2.79484e+8 
           5550      2.75846e+8 
           5570      2.72278e+8 
           5590      2.68766e+8 
           5610      2.65297e+8 
           5630      2.61906e+8 
           5650      2.58521e+8 
           5670      2.55212e+8 
           5690      2.51967e+8 
           5710       2.4883e+8 
           5730      2.45684e+8 
           5750      2.42565e+8 
           5770      2.39563e+8 
           5790      2.36573e+8 
           5810      2.33619e+8 
           5830      2.30722e+8 
           5850      2.27871e+8 
           5870      2.17279e+8 
           5890        2.218e+8 
           5910      2.19557e+8 
           5930      2.16878e+8 
           5950       2.1422e+8 
           5970      2.11635e+8 
           5990      2.09059e+8 
           6010      2.06554e+8 
           6030      2.04067e+8 
           6050      2.01619e+8 
           6070      1.99209e+8 
           6090      1.96836e+8 
           6110        1.945e+8 
           6130       1.9219e+8 
           6150      1.89916e+8 
           6170      1.87687e+8 
           6190      1.85483e+8 
           6210      1.83314e+8 
           6230      1.81178e+8 
           6250      1.79065e+8 
           6270      1.76995e+8 
           6290      1.74948e+8 
           6310      1.72923e+8 
           6330      1.70938e+8 
           6350      1.68938e+8 
           6370      1.67025e+8 
           6390      1.65142e+8 
           6410       1.6326e+8 
           6430      1.61417e+8 
           6450      1.59584e+8 
           6470       1.5778e+8 
           6490      1.56004e+8 
           6510      1.53989e+8 
           6530      1.51484e+8 
           6550      1.43412e+8 
           6570      1.26708e+8 
           6590      1.45294e+8 
           6610      1.45373e+8 
           6630      1.44257e+8 
           6650      1.42786e+8 
           6670      1.39535e+8 
           6690      1.38045e+8 
           6710      1.38169e+8 
           6730      1.36659e+8 
           6750      1.35188e+8 
           6770      1.33725e+8 
           6790      1.32268e+8 
           6810      1.30859e+8 
           6830      1.29456e+8 
           6850      1.28075e+8 
           6870      1.26708e+8 
           6890      1.25362e+8 
           6910       1.2403e+8 
           6930      1.22719e+8 
           6950      1.21429e+8 
           6970      1.20151e+8 
           6990      1.18886e+8 
           7010      1.17649e+8 
           7030      1.16424e+8 
           7050      1.15211e+8 
           7070      1.12028e+8 
           7090      1.12836e+8 
           7110      1.11673e+8 
           7130      1.10521e+8 
           7150      1.09388e+8 
           7170      1.08243e+8 
           7190      1.07161e+8 
           7210      1.06067e+8 
           7230      1.04883e+8 
           7250      1.03925e+8 
           7270      1.02877e+8 
           7290      1.00938e+8 
           7310      1.00802e+8 
           7330      9.98041e+7 
           7350      9.88084e+7 
           7370      9.78221e+7 
           7390      9.68449e+7 
           7410      9.58837e+7 
           7430      9.49315e+7 
           7450      9.40084e+7 
           7470      9.30804e+7 
           7490      9.21676e+7 
           7510      9.12298e+7 
           7530      9.03738e+7 
           7550      8.94858e+7 
           7570      8.86192e+7 
           7590      8.77538e+7 
           7610      8.69029e+7 
           7630      8.60661e+7 
           7650      8.52369e+7 
           7670      8.44151e+7 
           7690      8.36071e+7 
           7710      8.28063e+7 
           7730       8.2019e+7 
           7750      8.12324e+7 
           7770      8.04404e+7 
           7790      7.96988e+7 
           7810      7.88959e+7 
           7830      7.82046e+7 
           7850      7.75498e+7 
           7870      7.68155e+7 
           7890      7.60453e+7 
           7910      7.53963e+7 
           7930       7.4693e+7 
           7950      7.39362e+7 
           7970      7.31148e+7 
           7990      7.24542e+7 
           8010      7.17699e+7 
           8030      7.10973e+7 
           8050       7.0448e+7 
           8070      6.98158e+7 
           8090      6.90969e+7 
           8110      6.85675e+7 
           8130      6.79798e+7 
           8150      6.72892e+7 
           8170      6.67796e+7 
           8190      6.60831e+7 
           8210       6.5415e+7 
           8230      6.50141e+7 
           8250      6.44501e+7 
           8270      6.35494e+7 
           8290      6.32596e+7 
           8310      6.27263e+7 
           8330      6.21377e+7 
           8350      6.12623e+7 
           8370      6.09376e+7 
           8390      6.04975e+7 
           8410      5.99651e+7 
           8430      5.93788e+7 
           8450      5.84279e+7 
           8470      5.83151e+7 
           8490      5.76644e+7 
           8510      5.71752e+7 
           8530      5.66485e+7 
           8550      5.57345e+7 
           8570      5.61876e+7 
