# Kurucz ODFNEW /NOVER (2003)
# teff = 22000 K (value for the effective temperature for the model. Temperatures are given in K)
# logg = 3 log(cm/s2) (value for Log(G) for the model.)
# meta = -1.5  (value for the Metallicity for the model.)
# lh = 1.25  (l/Hp where l is the  mixing length of the convective element and Hp is the pressure scale height)
# vtur = 2 km/s (Microturbulence velocity)
# alpha = 0  (Alpha)
#
# column 1: WAVELENGTH (ANGSTROM), Wavelength in Angstrom
# column 2: FLUX (ERG/CM2/S/A), Flux in erg/cm2/s/A
          147.2     4.63961e-17 
            151     2.69102e-16 
          155.2     1.69573e-15 
          158.8     7.59063e-15 
            162     2.71795e-14 
            166     1.24831e-13 
          170.3     5.91838e-13 
          173.4     1.73144e-12 
          176.8     5.36611e-12 
          180.2     1.59163e-11 
          181.7     2.53698e-11 
          186.1      9.5356e-11 
            191     3.87035e-10 
          193.9      8.5571e-10 
          198.4      2.79035e-9 
          201.8       6.5804e-9 
            205      1.43646e-8 
          210.5      5.17862e-8 
          216.2      1.82399e-7 
          219.8      3.89486e-7 
            223      7.47853e-7 
          226.8      1.58219e-6 
            230      2.52978e-5 
            234      6.20851e-5 
            240     0.000165087 
          246.5     0.000451941 
          252.4      0.00108745 
          256.8      0.00190655 
            260      0.00312028 
            264      0.00528457 
          268.5      0.00937901 
          273.5        0.017322 
          278.5       0.0313537 
            284       0.0588009 
            290        0.113086 
            296        0.211283 
            301        0.346903 
            308        0.652835 
            318         1.70773 
            328         3.97901 
            338         8.89722 
            348         18.8402 
            357         35.9499 
            366         66.2052 
            375          116.53 
            385          213.52 
            395         376.911 
            405         646.038 
            414         1027.08 
            422          1514.1 
            430         2199.46 
            441         3611.73 
            451         5534.97 
            460          7960.1 
            470           11756 
            480         16998.6 
            490         24232.4 
            500         33982.5 
            506          270177 
            512          824872 
            520      1.01572e+6 
            530      1.37911e+6 
            540      1.51183e+6 
            550      2.15938e+6 
            560      2.56467e+6 
            570      3.15414e+6 
            580      3.16222e+6 
            590       4.1832e+6 
            600      5.12258e+6 
            610      6.09935e+6 
            620      6.98939e+6 
            630      8.11596e+6 
            640      8.95542e+6 
            650      1.00277e+7 
            658      1.17327e+7 
            665      1.27375e+7 
            675      1.38984e+7 
            685      1.54554e+7 
            695       1.8107e+7 
            705      1.97989e+7 
            716      2.24698e+7 
            726      2.45311e+7 
            735      2.67792e+7 
            745      3.00141e+7 
            755      3.29558e+7 
            765      3.60086e+7 
            775      3.95255e+7 
            785      4.31852e+7 
            795      4.64444e+7 
            805      5.01746e+7 
            815      5.35659e+7 
            825      5.83505e+7 
            835      6.05977e+7 
            845      6.60889e+7 
            855       7.0463e+7 
            865      7.57411e+7 
            875      8.16417e+7 
            885      8.74502e+7 
            895      9.28108e+7 
            905      9.68335e+7 
            915      2.04198e+8 
            925      3.01163e+9 
            935      6.71518e+9 
            945     1.13564e+10 
            955     1.26949e+10 
            965      1.4432e+10 
            975      6.07324e+9 
            985     1.38643e+10 
            995     1.32141e+10 
           1005     1.39894e+10 
           1015     1.36679e+10 
           1025       8.4373e+9 
           1035     1.19747e+10 
           1045     1.47966e+10 
           1055     1.41621e+10 
           1065     1.28179e+10 
           1075     1.37841e+10 
           1085     1.27542e+10 
           1095     1.38005e+10 
           1105     1.30588e+10 
           1115     1.30704e+10 
           1125     1.20619e+10 
           1135     1.30206e+10 
           1145     1.22655e+10 
           1155     1.26394e+10 
           1165     1.26149e+10 
           1175     1.03041e+10 
           1185     1.22023e+10 
           1195     1.14964e+10 
           1205      9.63446e+9 
           1215      6.24724e+9 
           1225     1.08757e+10 
           1235     1.13709e+10 
           1245     1.12584e+10 
           1255      1.1058e+10 
           1265     1.08944e+10 
           1275     1.10088e+10 
           1285     1.07993e+10 
           1295      9.56636e+9 
           1305      9.82225e+9 
           1315     1.03682e+10 
           1325     1.00119e+10 
           1335      9.63223e+9 
           1345      9.75464e+9 
           1355      9.79545e+9 
           1365       9.4543e+9 
           1375      9.29875e+9 
           1385      9.23331e+9 
           1395       8.3979e+9 
           1405      8.56371e+9 
           1415      8.75845e+9 
           1425      8.59347e+9 
           1435      8.59724e+9 
           1442      8.61688e+9 
           1447      8.50004e+9 
           1455      8.37052e+9 
           1465      8.15781e+9 
           1475      8.06489e+9 
           1485       7.9428e+9 
           1495      7.81313e+9 
           1505      7.53983e+9 
           1512      7.24672e+9 
           1517      7.32836e+9 
           1525      7.27889e+9 
           1535      6.82029e+9 
           1545      6.85745e+9 
           1555      6.60002e+9 
           1565      6.77789e+9 
           1575      6.83364e+9 
           1585      6.74393e+9 
           1595      6.69621e+9 
           1605      6.46518e+9 
           1615      6.36413e+9 
           1625      6.34639e+9 
           1635      6.38667e+9 
           1645      6.23714e+9 
           1655      6.20669e+9 
           1665      6.17055e+9 
           1672      6.03665e+9 
           1677      6.17043e+9 
           1685       6.0609e+9 
           1695      5.90095e+9 
           1705      5.75509e+9 
           1715      5.58275e+9 
           1725      5.53923e+9 
           1735      5.52937e+9 
           1745      5.43575e+9 
           1755      5.43893e+9 
           1765      5.25666e+9 
           1775      5.16842e+9 
           1785      5.16731e+9 
           1795      5.15818e+9 
           1805      5.13645e+9 
           1815      4.92254e+9 
           1825      4.93242e+9 
           1835       4.8543e+9 
           1845      4.57085e+9 
           1855      4.50594e+9 
           1865      4.55155e+9 
           1875      4.60107e+9 
           1885      4.28806e+9 
           1895      4.08147e+9 
           1905      4.26545e+9 
           1915      4.10658e+9 
           1925      3.99296e+9 
           1935      4.09739e+9 
           1945      4.12836e+9 
           1955      3.86199e+9 
           1967      3.99749e+9 
           1976      4.08813e+9 
           1984      3.88984e+9 
           1995      3.78686e+9 
           2005      3.83315e+9 
           2015      3.84215e+9 
           2025        3.863e+9 
           2035      3.68358e+9 
           2045      3.65764e+9 
           2055      3.55174e+9 
           2065      3.55029e+9 
           2074      3.65232e+9 
           2078      3.48708e+9 
           2085      3.51665e+9 
           2095      3.39939e+9 
           2105      3.44504e+9 
           2115      3.41852e+9 
           2125      3.43882e+9 
           2135      3.37899e+9 
           2145      3.27477e+9 
           2155      3.30367e+9 
           2165      3.27362e+9 
           2175      3.22408e+9 
           2185      3.18603e+9 
           2195      3.16614e+9 
           2205      3.12718e+9 
           2215      3.09302e+9 
           2225      3.04017e+9 
           2235      2.99809e+9 
           2245      2.98542e+9 
           2255      2.93425e+9 
           2265      2.91655e+9 
           2275      2.88223e+9 
           2285      2.85663e+9 
           2295      2.77035e+9 
           2305      2.78642e+9 
           2315      2.73913e+9 
           2325      2.71012e+9 
           2335      2.66388e+9 
           2345      2.64504e+9 
           2355      2.62636e+9 
           2365      2.59356e+9 
           2375      2.56054e+9 
           2385      2.52938e+9 
           2395      2.50101e+9 
           2405      2.47368e+9 
           2415      2.43909e+9 
           2425      2.42561e+9 
           2435      2.39003e+9 
           2445      2.36807e+9 
           2455      2.34688e+9 
           2465      2.31802e+9 
           2475      2.29151e+9 
           2485      2.26389e+9 
           2495      2.17346e+9 
           2505      2.21216e+9 
           2513      2.16206e+9 
           2518       2.1785e+9 
           2525      2.16325e+9 
           2535      2.13854e+9 
           2545      2.09832e+9 
           2555      2.09139e+9 
           2565      2.06762e+9 
           2575      2.05187e+9 
           2585      2.02825e+9 
           2595      2.00633e+9 
           2605        1.996e+9 
           2615       1.9752e+9 
           2625      1.95389e+9 
           2635      1.92846e+9 
           2645      1.91207e+9 
           2655      1.89155e+9 
           2665      1.86645e+9 
           2675      1.84768e+9 
           2685      1.83849e+9 
           2695      1.80309e+9 
           2705      1.79689e+9 
           2715      1.77887e+9 
           2725      1.74838e+9 
           2735      1.74232e+9 
           2745      1.71615e+9 
           2755      1.70143e+9 
           2765      1.67491e+9 
           2775       1.6721e+9 
           2785      1.65332e+9 
           2795      1.61503e+9 
           2805      1.61139e+9 
           2815      1.60414e+9 
           2825      1.57529e+9 
           2835      1.55398e+9 
           2845      1.55485e+9 
           2855      1.53834e+9 
           2865      1.52409e+9 
           2875      1.50858e+9 
           2885      1.49375e+9 
           2895      1.47801e+9 
           2910       1.4552e+9 
           2930      1.42623e+9 
           2950      1.38999e+9 
           2970      1.37099e+9 
           2990      1.34327e+9 
           3010      1.31575e+9 
           3030      1.29286e+9 
           3050      1.26806e+9 
           3070       1.2438e+9 
           3090      1.21678e+9 
           3110      1.19655e+9 
           3130      1.17473e+9 
           3150      1.15257e+9 
           3170      1.13012e+9 
           3190      1.10149e+9 
           3210       1.0889e+9 
           3230      1.06845e+9 
           3250      1.04881e+9 
           3270      1.03056e+9 
           3290      1.01038e+9 
           3310      9.93702e+8 
           3330      9.75687e+8 
           3350      9.56518e+8 
           3370      9.41085e+8 
           3390      9.24441e+8 
           3410      9.08121e+8 
           3430      8.87603e+8 
           3450      8.69018e+8 
           3470      8.56463e+8 
           3490      8.42376e+8 
           3510      8.32162e+8 
           3530      8.18496e+8 
           3550      8.04666e+8 
           3570      7.93902e+8 
           3590      7.76516e+8 
           3610      7.63629e+8 
           3630       7.5052e+8 
           3640       7.4842e+8 
           3650      7.33862e+8 
           3670      7.23844e+8 
           3690      6.99556e+8 
           3710      6.96879e+8 
           3730      6.96953e+8 
           3750      7.61147e+8 
           3770      7.59746e+8 
           3790       7.7294e+8 
           3810      7.96327e+8 
           3830      7.17946e+8 
           3850      7.98293e+8 
           3870      7.84705e+8 
           3890      6.88923e+8 
           3910        7.692e+8 
           3930      7.50878e+8 
           3950       7.4409e+8 
           3970      6.39949e+8 
           3990      7.18503e+8 
           4010      7.05942e+8 
           4030      6.79746e+8 
           4050      6.87472e+8 
           4070      6.73955e+8 
           4090      6.49116e+8 
           4110      5.85876e+8 
           4130       6.3742e+8 
           4150      6.28885e+8 
           4170      6.22174e+8 
           4190       6.1378e+8 
           4210      6.04519e+8 
           4230      5.94837e+8 
           4250      5.85059e+8 
           4270      5.73662e+8 
           4290      5.66974e+8 
           4310      5.57445e+8 
           4330      5.30587e+8 
           4350      4.90042e+8 
           4370      5.31827e+8 
           4390      5.17433e+8 
           4410      5.16238e+8 
           4430      5.07306e+8 
           4450      5.01482e+8 
           4470      4.81977e+8 
           4490      4.86195e+8 
           4510      4.79448e+8 
           4530      4.72195e+8 
           4550      4.64959e+8 
           4570      4.57886e+8 
           4590      4.51365e+8 
           4610      4.44745e+8 
           4630      4.38257e+8 
           4650      4.30453e+8 
           4670      4.25461e+8 
           4690      4.19494e+8 
           4710      4.08942e+8 
           4730      4.07091e+8 
           4750      4.00832e+8 
           4770      3.96252e+8 
           4790      3.90586e+8 
           4810      3.84902e+8 
           4830      3.79089e+8 
           4850      3.64357e+8 
           4870      3.31969e+8 
           4890      3.63195e+8 
           4910      3.58726e+8 
           4930      3.48583e+8 
           4950       3.4877e+8 
           4970      3.44138e+8 
           4990      3.39373e+8 
           5010      3.31025e+8 
           5030       3.3014e+8 
           5050      3.23793e+8 
           5070      3.21244e+8 
           5090      3.16892e+8 
           5110      3.12627e+8 
           5130      3.08276e+8 
           5150      3.04153e+8 
           5170       3.0024e+8 
           5190      2.96266e+8 
           5210      2.92261e+8 
           5230      2.88474e+8 
           5250      2.84681e+8 
           5270      2.80924e+8 
           5290      2.77255e+8 
           5310      2.73634e+8 
           5330      2.70086e+8 
           5350      2.66557e+8 
           5370      2.63164e+8 
           5390      2.59762e+8 
           5410      2.56429e+8 
           5430      2.53126e+8 
           5450      2.49902e+8 
           5470       2.4673e+8 
           5490      2.43611e+8 
           5510      2.40543e+8 
           5530      2.37512e+8 
           5550      2.34544e+8 
           5570      2.31588e+8 
           5590      2.28716e+8 
           5610      2.25855e+8 
           5630      2.23077e+8 
           5650      2.20249e+8 
           5670      2.17468e+8 
           5690      2.14696e+8 
           5710      2.12271e+8 
           5730      2.09679e+8 
           5750      2.07072e+8 
           5770      2.04631e+8 
           5790      2.02153e+8 
           5810      1.99714e+8 
           5830      1.97293e+8 
           5850      1.94934e+8 
           5870      1.88261e+8 
           5890      1.90134e+8 
           5910       1.8803e+8 
           5930      1.85767e+8 
           5950      1.83563e+8 
           5970      1.81458e+8 
           5990      1.79303e+8 
           6010      1.77215e+8 
           6030       1.7514e+8 
           6050      1.73109e+8 
           6070      1.71101e+8 
           6090      1.69126e+8 
           6110      1.67172e+8 
           6130      1.65241e+8 
           6150      1.63312e+8 
           6170      1.61463e+8 
           6190      1.59635e+8 
           6210      1.57817e+8 
           6230      1.56029e+8 
           6250      1.54251e+8 
           6270      1.52521e+8 
           6290        1.508e+8 
           6310      1.49098e+8 
           6330      1.47443e+8 
           6350      1.45759e+8 
           6370      1.44158e+8 
           6390      1.42565e+8 
           6410      1.40989e+8 
           6430      1.39439e+8 
           6450      1.37896e+8 
           6470      1.36361e+8 
           6490      1.34869e+8 
           6510       1.3342e+8 
           6530      1.31888e+8 
           6550      1.28607e+8 
           6570      1.16611e+8 
           6590      1.27112e+8 
           6610      1.26335e+8 
           6630      1.24991e+8 
           6650      1.23729e+8 
           6670       1.2154e+8 
           6690      1.20259e+8 
           6710       1.1982e+8 
           6730      1.18534e+8 
           6750      1.17296e+8 
           6770      1.16061e+8 
           6790      1.14782e+8 
           6810      1.13629e+8 
           6830       1.1244e+8 
           6850      1.11271e+8 
           6870      1.10113e+8 
           6890      1.08959e+8 
           6910       1.0784e+8 
           6930      1.06716e+8 
           6950      1.05627e+8 
           6970      1.04541e+8 
           6990      1.03458e+8 
           7010      1.02416e+8 
           7030      1.01369e+8 
           7050       1.0034e+8 
           7070      9.78662e+7 
           7090      9.83116e+7 
           7110      9.73196e+7 
           7130      9.63446e+7 
           7150      9.53716e+7 
           7170      9.44005e+7 
           7190      9.34753e+7 
           7210      9.25443e+7 
           7230      9.13124e+7 
           7250      9.07089e+7 
           7270      8.98185e+7 
           7290       8.8263e+7 
           7310      8.80415e+7 
           7330      8.71901e+7 
           7350      8.63327e+7 
           7370      8.54903e+7 
           7390      8.46557e+7 
           7410      8.38357e+7 
           7430      8.30164e+7 
           7450      8.22251e+7 
           7470      8.14276e+7 
           7490      8.06508e+7 
           7510      7.98411e+7 
           7530      7.91053e+7 
           7550      7.83497e+7 
           7570      7.76075e+7 
           7590      7.68655e+7 
           7610      7.61303e+7 
           7630      7.54146e+7 
           7650      7.46989e+7 
           7670      7.39961e+7 
           7690      7.32932e+7 
           7710      7.26029e+7 
           7730      7.19313e+7 
           7750      7.12532e+7 
           7770      7.05749e+7 
           7790      6.99398e+7 
           7810      6.92362e+7 
           7830      6.86494e+7 
           7850      6.80861e+7 
           7870      6.74546e+7 
           7890      6.67923e+7 
           7910      6.61901e+7 
           7930      6.54732e+7 
           7950      6.48521e+7 
           7970      6.42246e+7 
           7990      6.36733e+7 
           8010      6.30856e+7 
           8030      6.25439e+7 
           8050      6.20184e+7 
           8070      6.15032e+7 
           8090      6.08195e+7 
           8110      6.03137e+7 
           8130      5.98863e+7 
           8150       5.9224e+7 
           8170      5.88385e+7 
           8190      5.82594e+7 
           8210      5.75008e+7 
           8230      5.71661e+7 
           8250      5.66679e+7 
           8270      5.58763e+7 
           8290      5.55906e+7 
           8310      5.51215e+7 
           8330      5.46291e+7 
           8350      5.39117e+7 
           8370      5.34962e+7 
           8390       5.3097e+7 
           8410      5.25923e+7 
           8430      5.20965e+7 
           8450      5.14323e+7 
           8470      5.08242e+7 
           8490      5.10612e+7 
           8510      4.97015e+7 
           8530      5.04654e+7 
           8550      4.81429e+7 
           8570      5.03821e+7 
           8590      4.79294e+7 
