# Kurucz ODFNEW /NOVER (2003)
# teff = 10250 K (value for the effective temperature for the model. Temperatures are given in K)
# logg = 2.5 log(cm/s2) (value for Log(G) for the model.)
# meta = -0.5  (value for the Metallicity for the model.)
# lh = 1.25  (l/Hp where l is the  mixing length of the convective element and Hp is the pressure scale height)
# vtur = 2 km/s (Microturbulence velocity)
# alpha = 0  (Alpha)
#
# column 1: WAVELENGTH (ANGSTROM), Wavelength in Angstrom
# column 2: FLUX (ERG/CM2/S/A), Flux in erg/cm2/s/A
          268.5     7.15602e-23 
          273.5     3.15174e-22 
          278.5     1.25848e-21 
            284     5.38592e-21 
            290      2.4702e-20 
            296     1.06394e-19 
            301      3.4534e-19 
            308     1.68481e-18 
            318     1.43995e-17 
            328      1.0834e-16 
            338     7.23721e-16 
            348     4.34516e-15 
            357     2.00488e-14 
            366     8.57622e-14 
            375     3.41461e-13 
            385     1.47037e-12 
            395     5.87073e-12 
            405     2.18911e-11 
            414     6.77228e-11 
            422     1.77273e-10 
            430     4.46839e-10 
            441      1.51169e-9 
            451      4.33496e-9 
            460      1.07464e-8 
            470      2.82573e-8 
            480      7.12646e-8 
            490      1.72925e-7 
            500      4.04201e-7 
            506      1.29321e-6 
            512      2.50919e-6 
            520      4.53524e-6 
            530      9.34327e-6 
            540      1.83985e-5 
            550      3.61573e-5 
            560      6.85008e-5 
            570     0.000126852 
            580      0.00022634 
            590     0.000407054 
            600     0.000707979 
            610      0.00120987 
            620      0.00202811 
            630      0.00334368 
            640      0.00541447 
            650       0.0086621 
            658       0.0124653 
            665       0.0170047 
            675        0.026191 
            685       0.0398299 
            695       0.0598454 
            705       0.0887278 
            716        0.135111 
            726        0.195685 
            735        0.270574 
            745        0.384152 
            755        0.540015 
            765        0.751817 
            775         1.03769 
            785         1.41949 
            795         1.92291 
            805         2.58869 
            815         3.45583 
            825         4.57721 
            835         6.00357 
            845         7.86145 
            855         10.1945 
            865         13.1398 
            875          16.815 
            885         21.4131 
            895         27.0912 
            905         33.9764 
            915         1060.23 
            925         7422.53 
            935           12001 
            945         23467.5 
            955          132335 
            965          197887 
            975         46481.6 
            985          779999 
            995      1.10668e+6 
           1005      1.14918e+6 
           1015          457425 
           1025         59211.7 
           1035          313566 
           1045      1.84659e+6 
           1055      2.83763e+6 
           1065      2.77466e+6 
           1075      3.68865e+6 
           1085      3.82546e+6 
           1095      4.28061e+6 
           1105      1.38619e+7 
           1115      4.22903e+7 
           1125        4.954e+7 
           1135      5.75406e+7 
           1145      5.28359e+7 
           1155      5.76577e+7 
           1165      6.02417e+7 
           1175      5.06335e+7 
           1185      3.86488e+7 
           1195          634889 
           1205          359625 
           1215         82566.7 
           1225          345593 
           1235      3.19815e+6 
           1245      4.21833e+7 
           1255      7.59211e+7 
           1265      5.68193e+7 
           1275      1.08014e+8 
           1285      1.35011e+8 
           1295      1.13442e+8 
           1305      6.78966e+7 
           1315      1.27936e+8 
           1325      1.44859e+8 
           1335      1.23119e+8 
           1345      1.64324e+8 
           1355      1.56525e+8 
           1365      1.32836e+8 
           1375      1.51415e+8 
           1385      1.57027e+8 
           1395      1.61006e+8 
           1405      1.62763e+8 
           1415       1.4799e+8 
           1425      1.57792e+8 
           1435       1.4623e+8 
           1442      1.61614e+8 
           1447      1.74562e+8 
           1455       1.7255e+8 
           1465      1.59205e+8 
           1475      1.50848e+8 
           1485      1.60643e+8 
           1495      1.68995e+8 
           1505      1.69834e+8 
           1512      1.57921e+8 
           1517       1.6927e+8 
           1525      1.57312e+8 
           1535      1.47488e+8 
           1545       1.6753e+8 
           1555      1.49584e+8 
           1565      1.41075e+8 
           1575      1.44746e+8 
           1585      1.59331e+8 
           1595      1.66861e+8 
           1605      1.55502e+8 
           1615      1.56124e+8 
           1625      1.43152e+8 
           1635      1.48889e+8 
           1645       1.5321e+8 
           1655      1.35115e+8 
           1665      1.50883e+8 
           1672      1.11375e+8 
           1677      1.43253e+8 
           1685      1.57447e+8 
           1695      1.48724e+8 
           1705      1.40142e+8 
           1715      1.36078e+8 
           1725      1.34986e+8 
           1735      1.41933e+8 
           1745      1.39865e+8 
           1755       1.5266e+8 
           1765      1.33702e+8 
           1775      1.45807e+8 
           1785      1.44616e+8 
           1795      1.56198e+8 
           1805      1.50101e+8 
           1815      1.48303e+8 
           1825      1.43357e+8 
           1835       1.3814e+8 
           1845      1.30128e+8 
           1855      1.31936e+8 
           1865      1.32118e+8 
           1875      1.42199e+8 
           1885      1.38786e+8 
           1895      1.34787e+8 
           1905      1.32763e+8 
           1915      1.34318e+8 
           1925      1.34807e+8 
           1935      1.35268e+8 
           1945      1.39338e+8 
           1955      1.35639e+8 
           1967      1.41331e+8 
           1976      1.41224e+8 
           1984      1.36709e+8 
           1995      1.31334e+8 
           2005       1.3296e+8 
           2015      1.25047e+8 
           2025      1.29557e+8 
           2035      1.27886e+8 
           2045      1.31746e+8 
           2055      1.25124e+8 
           2065      1.23897e+8 
           2074       1.2948e+8 
           2078      1.30771e+8 
           2085      1.30926e+8 
           2095      1.25988e+8 
           2105      1.24241e+8 
           2115      1.23557e+8 
           2125      1.24658e+8 
           2135       1.0903e+8 
           2145      1.19126e+8 
           2155      1.21731e+8 
           2165      1.16172e+8 
           2175      1.13808e+8 
           2185      1.12572e+8 
           2195        1.195e+8 
           2205      1.14777e+8 
           2215      1.06057e+8 
           2225      1.02366e+8 
           2235      1.12968e+8 
           2245      1.02225e+8 
           2255      1.00772e+8 
           2265      1.02506e+8 
           2275      1.08012e+8 
           2285      1.10604e+8 
           2295      1.04764e+8 
           2305      1.01482e+8 
           2315      9.77951e+7 
           2325      9.79523e+7 
           2335      9.22438e+7 
           2345      8.64713e+7 
           2355      9.62877e+7 
           2365       8.6517e+7 
           2375      9.12199e+7 
           2385      8.07804e+7 
           2395      8.88161e+7 
           2405      8.40864e+7 
           2415      8.65889e+7 
           2425      9.14753e+7 
           2435      8.74787e+7 
           2445      9.35896e+7 
           2455      8.98409e+7 
           2465        8.969e+7 
           2475      8.61131e+7 
           2485      9.16929e+7 
           2495      8.86294e+7 
           2505      9.56439e+7 
           2513      8.73941e+7 
           2518      9.00658e+7 
           2525      8.39064e+7 
           2535      8.34685e+7 
           2545      8.30349e+7 
           2555      8.72107e+7 
           2565      8.61484e+7 
           2575      9.18554e+7 
           2585      9.08078e+7 
           2595      8.94715e+7 
           2605      8.55716e+7 
           2615      8.51277e+7 
           2625      8.85808e+7 
           2635      8.91197e+7 
           2645      9.68422e+7 
           2655      9.50772e+7 
           2665      8.85673e+7 
           2675       9.1934e+7 
           2685      9.10675e+7 
           2695      8.78669e+7 
           2705      8.98803e+7 
           2715      8.59945e+7 
           2725      8.67546e+7 
           2735      9.23211e+7 
           2745      8.03603e+7 
           2755      8.04431e+7 
           2765       8.2878e+7 
           2775      8.78051e+7 
           2785      8.71659e+7 
           2795      7.35324e+7 
           2805      7.98321e+7 
           2815       8.8779e+7 
           2825       8.9006e+7 
           2835      8.54168e+7 
           2845      8.26158e+7 
           2855      8.13726e+7 
           2865      8.48949e+7 
           2875      8.25415e+7 
           2885       8.4428e+7 
           2895      8.16342e+7 
           2910      8.79707e+7 
           2930       8.4685e+7 
           2950      8.44021e+7 
           2970      8.47213e+7 
           2990      8.46325e+7 
           3010      8.59067e+7 
           3030      8.49035e+7 
           3050      8.36763e+7 
           3070      8.24656e+7 
           3090       8.3039e+7 
           3110      8.10941e+7 
           3130      8.02418e+7 
           3150      8.06613e+7 
           3170      7.97179e+7 
           3190      7.73517e+7 
           3210      7.83359e+7 
           3230       7.7051e+7 
           3250      7.69616e+7 
           3270      7.68017e+7 
           3290      7.66852e+7 
           3310      7.65109e+7 
           3330      7.51223e+7 
           3350      7.39192e+7 
           3370      7.37244e+7 
           3390      7.28145e+7 
           3410      7.33625e+7 
           3430      7.27944e+7 
           3450      7.23548e+7 
           3470       7.1348e+7 
           3490      7.08295e+7 
           3510      7.08625e+7 
           3530      7.06725e+7 
           3550      7.02042e+7 
           3570      6.93992e+7 
           3590       6.8859e+7 
           3610      6.83525e+7 
           3630      6.77386e+7 
           3640       6.7529e+7 
           3650      6.86158e+7 
           3670      6.73385e+7 
           3690      6.64418e+7 
           3710      7.98505e+7 
           3730      9.67189e+7 
           3750      1.33868e+8 
           3770      1.35168e+8 
           3790      1.51071e+8 
           3810      1.64952e+8 
           3830      1.37122e+8 
           3850      1.69347e+8 
           3870      1.74421e+8 
           3890       1.2813e+8 
           3910      1.70087e+8 
           3930      1.67952e+8 
           3950      1.67294e+8 
           3970      1.20382e+8 
           3990       1.6217e+8 
           4010      1.61794e+8 
           4030      1.58821e+8 
           4050       1.5812e+8 
           4070      1.54832e+8 
           4090      1.43685e+8 
           4110      1.17079e+8 
           4130      1.47408e+8 
           4150      1.47761e+8 
           4170      1.45268e+8 
           4190      1.43843e+8 
           4210      1.42212e+8 
           4230      1.39913e+8 
           4250      1.37896e+8 
           4270      1.36035e+8 
           4290      1.34526e+8 
           4310       1.3141e+8 
           4330       1.1831e+8 
           4350      1.02886e+8 
           4370      1.27229e+8 
           4390      1.24909e+8 
           4410      1.24313e+8 
           4430      1.22867e+8 
           4450      1.21465e+8 
           4470      1.19358e+8 
           4490      1.16995e+8 
           4510      1.16261e+8 
           4530      1.14714e+8 
           4550      1.12316e+8 
           4570      1.12354e+8 
           4590      1.10123e+8 
           4610      1.10088e+8 
           4630      1.07503e+8 
           4650      1.07347e+8 
           4670      1.05811e+8 
           4690      1.04604e+8 
           4710      1.02566e+8 
           4730      1.02056e+8 
           4750      1.00801e+8 
           4770      9.97386e+7 
           4790      9.85134e+7 
           4810      9.71276e+7 
           4830      9.54173e+7 
           4850      8.68948e+7 
           4870      7.28603e+7 
           4890      9.18597e+7 
           4910      9.13832e+7 
           4930      8.98202e+7 
           4950       8.9345e+7 
           4970      8.83802e+7 
           4990      8.72118e+7 
           5010      8.53191e+7 
           5030      8.49472e+7 
           5050      8.34544e+7 
           5070      8.31197e+7 
           5090      8.21653e+7 
           5110      8.10891e+7 
           5130      8.02963e+7 
           5150      7.91824e+7 
           5170      7.78127e+7 
           5190      7.71848e+7 
           5210      7.64726e+7 
           5230      7.52594e+7 
           5250       7.4832e+7 
           5270      7.34864e+7 
           5290      7.32388e+7 
           5310      7.19372e+7 
           5330      7.15257e+7 
           5350      7.08629e+7 
           5370      7.00264e+7 
           5390      6.92613e+7 
           5410      6.84104e+7 
           5430      6.76518e+7 
           5450      6.70179e+7 
           5470      6.62367e+7 
           5490        6.554e+7 
           5510      6.47734e+7 
           5530      6.41111e+7 
           5550      6.34676e+7 
           5570      6.27637e+7 
           5590      6.21008e+7 
           5610      6.14733e+7 
           5630      6.08079e+7 
           5650      6.00666e+7 
           5670      5.94597e+7 
           5690      5.88737e+7 
           5710      5.82551e+7 
           5730      5.76346e+7 
           5750       5.7019e+7 
           5770      5.64219e+7 
           5790      5.57844e+7 
           5810       5.5218e+7 
           5830      5.46392e+7 
           5850      5.40835e+7 
           5870      5.33056e+7 
           5890      5.28714e+7 
           5910      5.24063e+7 
           5930      5.18799e+7 
           5950      5.12326e+7 
           5970      5.07821e+7 
           5990      5.01822e+7 
           6010      4.97726e+7 
           6030      4.92699e+7 
           6050      4.87512e+7 
           6070      4.82618e+7 
           6090      4.77726e+7 
           6110      4.72959e+7 
           6130      4.68133e+7 
           6150      4.61418e+7 
           6170      4.58778e+7 
           6190      4.54275e+7 
           6210       4.4981e+7 
           6230      4.45131e+7 
           6250      4.39056e+7 
           6270      4.36575e+7 
           6290      4.32185e+7 
           6310      4.27538e+7 
           6330      4.23694e+7 
           6350      4.16684e+7 
           6370      4.13441e+7 
           6390      4.11281e+7 
           6410      4.07077e+7 
           6430      4.03383e+7 
           6450      3.98431e+7 
           6470      3.95764e+7 
           6490      3.91406e+7 
           6510      3.87093e+7 
           6530      3.81749e+7 
           6550      3.58504e+7 
           6570      2.96636e+7 
           6590      3.68331e+7 
           6610      3.68761e+7 
           6630      3.66249e+7 
           6650      3.63078e+7 
           6670      3.59329e+7 
           6690      3.56039e+7 
           6710      3.52991e+7 
           6730      3.49548e+7 
           6750      3.46405e+7 
           6770      3.43219e+7 
           6790      3.39991e+7 
           6810      3.36843e+7 
           6830      3.33638e+7 
           6850        3.306e+7 
           6870      3.27593e+7 
           6890      3.24638e+7 
           6910       3.2161e+7 
           6930      3.18595e+7 
           6950      3.15805e+7 
           6970      3.12948e+7 
           6990       3.1018e+7 
           7010      3.07171e+7 
           7030      3.04603e+7 
           7050      3.01573e+7 
           7070      2.98867e+7 
           7090      2.96486e+7 
           7110      2.93583e+7 
           7130      2.91123e+7 
           7150      2.88554e+7 
           7170       2.8603e+7 
           7190      2.83494e+7 
           7210      2.81032e+7 
           7230      2.78391e+7 
           7250      2.76026e+7 
           7270      2.73654e+7 
           7290      2.71197e+7 
           7310      2.68778e+7 
           7330      2.66528e+7 
           7350      2.64284e+7 
           7370      2.62013e+7 
           7390      2.59727e+7 
           7410      2.57442e+7 
           7430      2.55034e+7 
           7450      2.52927e+7 
           7470      2.50555e+7 
           7490      2.48621e+7 
           7510      2.46423e+7 
           7530      2.44531e+7 
           7550      2.42464e+7 
           7570      2.40403e+7 
           7590      2.38352e+7 
           7610      2.36386e+7 
           7630      2.34372e+7 
           7650      2.32324e+7 
           7670      2.30428e+7 
           7690      2.28499e+7 
           7710      2.26497e+7 
           7730      2.24728e+7 
           7750      2.22861e+7 
           7770      2.18033e+7 
           7790      2.19181e+7 
           7810      2.17399e+7 
           7830      2.15583e+7 
           7850      2.13636e+7 
           7870        2.115e+7 
           7890      2.09442e+7 
           7910      2.08577e+7 
           7930      2.06927e+7 
           7950      2.04928e+7 
           7970       2.0358e+7 
           7990      2.01011e+7 
           8010      2.00296e+7 
           8030       1.9868e+7 
           8050      1.97078e+7 
           8070      1.95477e+7 
           8090      1.93919e+7 
           8110       1.9234e+7 
           8130      1.90847e+7 
           8150      1.89322e+7 
           8170      1.87832e+7 
           8190      1.86146e+7 
           8210      1.85268e+7 
           8230      1.83762e+7 
           8250      1.82884e+7 
           8270      1.81763e+7 
           8290      1.80175e+7 
           8310      1.78845e+7 
           8330      1.76896e+7 
           8350      1.75347e+7 
           8370      1.72655e+7 
           8390      1.71121e+7 
           8410       1.6904e+7 
           8430      1.70328e+7 
           8450      1.68393e+7 
           8470      1.61555e+7 
           8490      1.74096e+7 
           8510      1.58349e+7 
           8530      1.75926e+7 
           8550      1.52815e+7 
           8570      1.77862e+7 
           8590       1.6517e+7 
           8610       1.6018e+7 
           8630      1.80107e+7 
           8650      1.76013e+7 
           8670      1.44966e+7 
           8690      1.77928e+7 
           8710      1.79769e+7 
           8730      1.75847e+7 
           8750      1.41146e+7 
           8770      1.69461e+7 
           8790      1.74615e+7 
           8810      1.73619e+7 
           8830      1.71384e+7 
           8850      1.61755e+7 
           8870      1.36721e+7 
           8890      1.66227e+7 
           8910      1.66801e+7 
           8930       1.6572e+7 
           8950      1.64984e+7 
           8970      1.63308e+7 
           8990      1.60457e+7 
           9010      1.33906e+7 
           9030      1.46661e+7 
           9050      1.57601e+7 
           9070      1.56508e+7 
           9090       1.5525e+7 
           9110      1.54937e+7 
           9130      1.53829e+7 
           9150      1.52951e+7 
           9170      1.51527e+7 
