# Kurucz ODFNEW /NOVER (2003)
# teff = 37000 K (value for the effective temperature for the model. Temperatures are given in K)
# logg = 5 log(cm/s2) (value for Log(G) for the model.)
# meta = 0.2  (value for the Metallicity for the model.)
# lh = 1.25  (l/Hp where l is the  mixing length of the convective element and Hp is the pressure scale height)
# vtur = 2 km/s (Microturbulence velocity)
# alpha = 0.4  (Alpha)
#
# column 1: WAVELENGTH (ANGSTROM), Wavelength in Angstrom
# column 2: FLUX (ERG/CM2/S/A), Flux in erg/cm2/s/A
          147.2      0.00305239 
            151      0.00710847 
          155.2       0.0170183 
          158.8       0.0347068 
            162       0.0633667 
            166        0.131827 
          170.3        0.275837 
          173.4        0.463338 
          176.8        0.808025 
          180.2         1.36203 
          181.7         1.73012 
          186.1          3.2818 
            191         6.47692 
          193.9         9.51974 
          198.4         17.0627 
          201.8         25.8389 
            205         37.7518 
          210.5         70.6268 
          216.2         129.092 
          219.8         189.612 
            223          261.42 
          226.8         396.524 
            230          126115 
            234          292688 
            240          411623 
          246.5          602838 
          252.4          975209 
          256.8       1.3102e+6 
            260      1.89106e+6 
            264      3.08228e+6 
          268.5      4.65392e+6 
          273.5      5.85474e+6 
          278.5      6.37837e+6 
            284      1.22002e+7 
            290      1.63539e+7 
            296      1.92849e+7 
            301      3.31448e+7 
            308      6.15505e+7 
            318      1.14735e+8 
            328      1.52686e+8 
            338      2.55642e+8 
            348      3.61194e+8 
            357      6.77823e+8 
            366      1.51318e+9 
            375      1.70905e+9 
            385      2.29304e+9 
            395      4.75593e+9 
            405      6.29433e+9 
            414      7.12088e+9 
            422      7.34593e+9 
            430      7.09021e+9 
            441      7.94425e+9 
            451      8.48063e+9 
            460      7.49667e+9 
            470       8.1864e+9 
            480      9.23412e+9 
            490      7.85389e+9 
            500      9.88342e+9 
            506      9.53462e+9 
            512     4.58984e+10 
            520     4.17676e+10 
            530     3.75361e+10 
            540     3.45413e+10 
            550     3.46354e+10 
            560     4.61626e+10 
            570     5.09588e+10 
            580     4.78359e+10 
            590     4.90798e+10 
            600     3.47114e+10 
            610     4.16842e+10 
            620     5.22364e+10 
            630     4.97797e+10 
            640     5.14324e+10 
            650     4.79102e+10 
            658      3.5714e+10 
            665     4.58226e+10 
            675     5.25383e+10 
            685     4.07002e+10 
            695     5.13277e+10 
            705      3.7477e+10 
            716     5.34161e+10 
            726     5.22206e+10 
            735     5.21839e+10 
            745      4.6544e+10 
            755     4.63905e+10 
            765     4.66089e+10 
            775     4.81875e+10 
            785     4.59827e+10 
            795     4.79882e+10 
            805     4.52593e+10 
            815     4.50544e+10 
            825     4.70961e+10 
            835     3.68779e+10 
            845     4.45185e+10 
            855     4.31611e+10 
            865     4.45026e+10 
            875     4.41363e+10 
            885     4.38372e+10 
            895      4.3506e+10 
            905     4.18148e+10 
            915     3.67822e+10 
            925     6.98576e+10 
            935     1.02428e+11 
            945     1.34113e+11 
            955     1.52431e+11 
            965     1.77821e+11 
            975     9.29355e+10 
            985     1.49655e+11 
            995     1.29801e+11 
           1005     1.31796e+11 
           1015     1.38727e+11 
           1025     1.06877e+11 
           1035     1.36319e+11 
           1045     1.52134e+11 
           1055      1.4487e+11 
           1065     1.23974e+11 
           1075     1.29437e+11 
           1085     1.16469e+11 
           1095     1.26376e+11 
           1105      1.1957e+11 
           1115     1.17644e+11 
           1125     9.60379e+10 
           1135     1.11756e+11 
           1145      1.0785e+11 
           1155     9.87527e+10 
           1165     9.63846e+10 
           1175     7.14452e+10 
           1185      8.9086e+10 
           1195     8.45199e+10 
           1205     8.14858e+10 
           1215     6.23525e+10 
           1225     7.77095e+10 
           1235     8.20729e+10 
           1245     7.96053e+10 
           1255     7.92267e+10 
           1265     8.01709e+10 
           1275     8.19633e+10 
           1285     8.15345e+10 
           1295     7.66634e+10 
           1305     7.57518e+10 
           1315     7.85321e+10 
           1325     7.58362e+10 
           1335     7.37827e+10 
           1345     7.20358e+10 
           1355     7.06933e+10 
           1365     6.76211e+10 
           1375     6.53798e+10 
           1385     6.33413e+10 
           1395      5.1698e+10 
           1405     5.18617e+10 
           1415     6.08005e+10 
           1425      5.4377e+10 
           1435     5.76887e+10 
           1442      5.6418e+10 
           1447     5.61997e+10 
           1455     5.34836e+10 
           1465     5.25154e+10 
           1475     5.22923e+10 
           1485     5.23165e+10 
           1495     5.05756e+10 
           1505     4.93585e+10 
           1512     4.89668e+10 
           1517     4.87935e+10 
           1525     4.71214e+10 
           1535     4.16953e+10 
           1545     3.47765e+10 
           1555     3.52265e+10 
           1565     3.89092e+10 
           1575     4.02923e+10 
           1585     3.96865e+10 
           1595     4.00789e+10 
           1605     3.77764e+10 
           1615     3.60375e+10 
           1625     3.66354e+10 
           1635     3.63817e+10 
           1645     3.59296e+10 
           1655     3.64347e+10 
           1665     3.52224e+10 
           1672     3.30213e+10 
           1677     3.76726e+10 
           1685     3.61706e+10 
           1695     3.50317e+10 
           1705     3.43343e+10 
           1715      3.2986e+10 
           1725     3.14854e+10 
           1735     3.25315e+10 
           1745     3.22723e+10 
           1755     3.15508e+10 
           1765     3.09017e+10 
           1775     2.99195e+10 
           1785     3.02355e+10 
           1795     2.93477e+10 
           1805     2.91009e+10 
           1815     2.84918e+10 
           1825     2.78252e+10 
           1835     2.77454e+10 
           1845      2.6797e+10 
           1855     2.67946e+10 
           1865     2.66488e+10 
           1875     2.57588e+10 
           1885     2.49529e+10 
           1895     2.47857e+10 
           1905     2.49113e+10 
           1915     2.42532e+10 
           1925     2.28297e+10 
           1935      2.3838e+10 
           1945     2.38156e+10 
           1955     2.20684e+10 
           1967     2.26383e+10 
           1976     2.27288e+10 
           1984       2.223e+10 
           1995     2.16495e+10 
           2005     2.18502e+10 
           2015     2.15995e+10 
           2025     2.13132e+10 
           2035     2.07204e+10 
           2045     2.03371e+10 
           2055     1.57756e+10 
           2065      1.5071e+10 
           2074     1.53206e+10 
           2078     1.53219e+10 
           2085     1.59913e+10 
           2095     1.71317e+10 
           2105     1.82769e+10 
           2115     1.85349e+10 
           2125      1.7962e+10 
           2135     1.79239e+10 
           2145     1.76368e+10 
           2155     1.75108e+10 
           2165     1.65554e+10 
           2175     1.70836e+10 
           2185     1.63555e+10 
           2195     1.67627e+10 
           2205      1.6494e+10 
           2215     1.56037e+10 
           2225     1.59736e+10 
           2235     1.57571e+10 
           2245     1.54541e+10 
           2255     1.47357e+10 
           2265      1.5034e+10 
           2275     1.48839e+10 
           2285     1.43297e+10 
           2295     1.34097e+10 
           2305     1.36098e+10 
           2315     1.37027e+10 
           2325     1.36764e+10 
           2335     1.35166e+10 
           2345     1.32906e+10 
           2355     1.30014e+10 
           2365     1.27704e+10 
           2375     1.24621e+10 
           2385     1.17644e+10 
           2395     1.19895e+10 
           2405     1.20059e+10 
           2415     1.18046e+10 
           2425     1.17523e+10 
           2435      1.1527e+10 
           2445     1.13957e+10 
           2455     1.12012e+10 
           2465     1.10962e+10 
           2475     1.09545e+10 
           2485     1.06078e+10 
           2495      8.09435e+9 
           2505     1.00897e+10 
           2513      9.59844e+9 
           2518      9.84556e+9 
           2525      1.0158e+10 
           2535     1.00985e+10 
           2545      9.88787e+9 
           2555      9.77311e+9 
           2565      9.62434e+9 
           2575      9.54575e+9 
           2585      9.42919e+9 
           2595       9.1933e+9 
           2605      9.18615e+9 
           2615      8.98325e+9 
           2625      8.93845e+9 
           2635      8.83981e+9 
           2645      8.68262e+9 
           2655      8.60345e+9 
           2665       8.4223e+9 
           2675      8.17782e+9 
           2685      8.21421e+9 
           2695      8.07712e+9 
           2705      8.03038e+9 
           2715      7.90131e+9 
           2725      7.77849e+9 
           2735      7.51371e+9 
           2745      7.64806e+9 
           2755      7.52662e+9 
           2765       7.4161e+9 
           2775      7.37058e+9 
           2785      7.22157e+9 
           2795      6.98529e+9 
           2805      7.03852e+9 
           2815       6.9924e+9 
           2825      6.89059e+9 
           2835        6.783e+9 
           2845      6.76007e+9 
           2855       6.6504e+9 
           2865      6.53659e+9 
           2875      6.46248e+9 
           2885       6.3983e+9 
           2895      6.29708e+9 
           2910       6.1398e+9 
           2930      6.06329e+9 
           2950      5.89737e+9 
           2970      5.75372e+9 
           2990      5.57208e+9 
           3010      5.40181e+9 
           3030       5.2462e+9 
           3050      5.18856e+9 
           3070       5.0904e+9 
           3090      4.94778e+9 
           3110      4.88084e+9 
           3130      4.74137e+9 
           3150      4.66389e+9 
           3170      4.54712e+9 
           3190      4.45696e+9 
           3210      4.30032e+9 
           3230      4.25553e+9 
           3250      4.18299e+9 
           3270      4.03932e+9 
           3290      3.98374e+9 
           3310      3.89002e+9 
           3330      3.79587e+9 
           3350      3.69327e+9 
           3370      3.62867e+9 
           3390       3.5768e+9 
           3410      3.49738e+9 
           3430      3.44327e+9 
           3450      3.33699e+9 
           3470      3.29144e+9 
           3490      3.22939e+9 
           3510      3.16456e+9 
           3530      3.10462e+9 
           3550      3.03655e+9 
           3570      2.98046e+9 
           3590      2.91226e+9 
           3610      2.85427e+9 
           3630      2.79466e+9 
           3640      2.74771e+9 
           3650       2.5716e+9 
           3670      2.52919e+9 
           3690      2.47941e+9 
           3710      2.39664e+9 
           3730        2.382e+9 
           3750      2.35942e+9 
           3770      2.30821e+9 
           3790      2.35845e+9 
           3810       2.3989e+9 
           3830      2.19857e+9 
           3850      2.37998e+9 
           3870      2.31764e+9 
           3890      2.04531e+9 
           3910      2.32051e+9 
           3930      2.26615e+9 
           3950      2.18734e+9 
           3970      1.87728e+9 
           3990      2.14592e+9 
           4010      2.11532e+9 
           4030      2.02782e+9 
           4050      2.05555e+9 
           4070      1.96692e+9 
           4090      1.84013e+9 
           4110      1.69926e+9 
           4130      1.87728e+9 
           4150      1.85531e+9 
           4170      1.84839e+9 
           4190      1.80465e+9 
           4210      1.76165e+9 
           4230      1.75533e+9 
           4250      1.70462e+9 
           4270      1.67235e+9 
           4290      1.63738e+9 
           4310      1.59259e+9 
           4330      1.48995e+9 
           4350      1.39471e+9 
           4370      1.52431e+9 
           4390      1.48941e+9 
           4410      1.47435e+9 
           4430      1.46366e+9 
           4450       1.4358e+9 
           4470      1.38416e+9 
           4490      1.39236e+9 
           4510       1.3617e+9 
           4530      1.34664e+9 
           4550      1.30766e+9 
           4570      1.30863e+9 
           4590      1.28175e+9 
           4610      1.25712e+9 
           4630      1.22646e+9 
           4650      1.16738e+9 
           4670      1.19188e+9 
           4690      1.15654e+9 
           4710      1.15073e+9 
           4730      1.15912e+9 
           4750      1.13906e+9 
           4770      1.12466e+9 
           4790      1.10661e+9 
           4810      1.08575e+9 
           4830      1.06258e+9 
           4850      1.00045e+9 
           4870      9.16119e+8 
           4890      1.01114e+9 
           4910      9.99701e+8 
           4930       9.7392e+8 
           4950      9.68957e+8 
           4970      9.62684e+8 
           4990      9.48129e+8 
           5010       9.1815e+8 
           5030      9.13306e+8 
           5050       9.0062e+8 
           5070      8.92488e+8 
           5090      8.78538e+8 
           5110       8.6534e+8 
           5130      8.52222e+8 
           5150      8.39848e+8 
           5170      8.26358e+8 
           5190      8.15512e+8 
           5210      8.04142e+8 
           5230      7.92907e+8 
           5250      7.79182e+8 
           5270      7.67026e+8 
           5290      7.59299e+8 
           5310      7.47978e+8 
           5330      7.37588e+8 
           5350      7.27398e+8 
           5370      7.16973e+8 
           5390      7.06255e+8 
           5410      6.84619e+8 
           5430      6.87149e+8 
           5450       6.7765e+8 
           5470      6.68058e+8 
           5490      6.58949e+8 
           5510      6.49174e+8 
           5530      6.40914e+8 
           5550       6.3245e+8 
           5570      6.23521e+8 
           5590      6.12822e+8 
           5610      6.07048e+8 
           5630      5.98868e+8 
           5650      5.90647e+8 
           5670      5.82164e+8 
           5690      5.66524e+8 
           5710      5.46108e+8 
           5730      5.39434e+8 
           5750      5.31757e+8 
           5770      5.25904e+8 
           5790      5.18996e+8 
           5810       5.1092e+8 
           5830       5.0475e+8 
           5850      5.00203e+8 
           5870      4.84971e+8 
           5890      4.88285e+8 
           5910      4.84037e+8 
           5930      4.79352e+8 
           5950      4.74837e+8 
           5970      4.71037e+8 
           5990      4.66459e+8 
           6010      4.62483e+8 
           6030       4.5769e+8 
           6050      4.53588e+8 
           6070      4.48549e+8 
           6090      4.43261e+8 
           6110      4.37438e+8 
           6130      4.32242e+8 
           6150      4.26228e+8 
           6170      4.21005e+8 
           6190      4.16549e+8 
           6210      4.11662e+8 
           6230      4.06247e+8 
           6250      4.01105e+8 
           6270      3.96596e+8 
           6290      3.91735e+8 
           6310      3.86115e+8 
           6330      3.82381e+8 
           6350      3.77416e+8 
           6370      3.73342e+8 
           6390      3.68858e+8 
           6410      3.63709e+8 
           6430      3.60165e+8 
           6450      3.55589e+8 
           6470      3.50902e+8 
           6490      3.46685e+8 
           6510      3.41669e+8 
           6530      3.36275e+8 
           6550       3.2504e+8 
           6570      2.95074e+8 
           6590      3.24498e+8 
           6610      3.23063e+8 
           6630      3.19994e+8 
           6650      3.16147e+8 
           6670      3.08758e+8 
           6690      3.04735e+8 
           6710      3.04377e+8 
           6730       3.0104e+8 
           6750      2.98151e+8 
           6770      2.95249e+8 
           6790      2.91706e+8 
           6810      2.88736e+8 
           6830      2.85384e+8 
           6850      2.82171e+8 
           6870       2.7883e+8 
           6890      2.73896e+8 
           6910      2.71935e+8 
           6930      2.69991e+8 
           6950       2.6698e+8 
           6970      2.64055e+8 
           6990       2.6105e+8 
           7010      2.57769e+8 
           7030      2.54772e+8 
           7050      2.52047e+8 
           7070      2.46712e+8 
           7090      2.47188e+8 
           7110      2.44346e+8 
           7130      2.41777e+8 
           7150      2.39313e+8 
           7170      2.35672e+8 
           7190      2.33502e+8 
           7210      2.31709e+8 
           7230      2.28447e+8 
           7250       2.2655e+8 
           7270      2.24407e+8 
           7290       2.2081e+8 
           7310      2.19498e+8 
           7330      2.17369e+8 
           7350      2.15072e+8 
           7370      2.12775e+8 
           7390      2.10646e+8 
           7410      2.08364e+8 
           7430      2.06289e+8 
           7450      2.03941e+8 
           7470      2.01675e+8 
           7490      1.99196e+8 
           7510      1.97783e+8 
           7530      1.95763e+8 
           7550      1.93862e+8 
           7570      1.91846e+8 
           7590      1.88214e+8 
           7610      1.87506e+8 
           7630      1.85955e+8 
           7650      1.84031e+8 
           7670      1.82329e+8 
           7690      1.79796e+8 
           7710      1.78427e+8 
           7730      1.75979e+8 
           7750      1.75104e+8 
           7770      1.73473e+8 
           7790      1.71745e+8 
           7810      1.70033e+8 
           7830      1.68367e+8 
           7850      1.66501e+8 
           7870      1.64689e+8 
           7890      1.63189e+8 
           7910      1.61872e+8 
           7930      1.60301e+8 
           7950      1.58822e+8 
           7970      1.57071e+8 
           7990      1.55678e+8 
           8010       1.5422e+8 
           8030      1.52624e+8 
           8050      1.51302e+8 
           8070       1.4983e+8 
           8090      1.48359e+8 
           8110      1.46437e+8 
           8130      1.45586e+8 
           8150       1.4413e+8 
           8170      1.42725e+8 
           8190      1.40799e+8 
           8210      1.37408e+8 
           8230      1.35457e+8 
           8250       1.3479e+8 
           8270      1.33263e+8 
           8290      1.32505e+8 
           8310      1.31443e+8 
           8330      1.29868e+8 
           8350      1.28474e+8 
           8370      1.27624e+8 
           8390      1.26722e+8 
           8410      1.25491e+8 
           8430      1.24446e+8 
           8450      1.23013e+8 
           8470      1.22249e+8 
           8490      1.21088e+8 
           8510      1.19688e+8 
           8530      1.18956e+8 
           8550      1.17921e+8 
           8570      1.17069e+8 
