# Kurucz ODFNEW /NOVER (2003)
# teff = 8250 K (value for the effective temperature for the model. Temperatures are given in K)
# logg = 4.5 log(cm/s2) (value for Log(G) for the model.)
# meta = 0  (value for the Metallicity for the model.)
# lh = 1.25  (l/Hp where l is the  mixing length of the convective element and Hp is the pressure scale height)
# vtur = 2 km/s (Microturbulence velocity)
# alpha = 0  (Alpha)
#
# column 1: WAVELENGTH (ANGSTROM), Wavelength in Angstrom
# column 2: FLUX (ERG/CM2/S/A), Flux in erg/cm2/s/A
            318     1.20778e-23 
            328     2.38719e-22 
            338     2.52041e-21 
            348     2.28811e-20 
            357     1.49271e-19 
            366     8.85155e-19 
            375     4.80472e-18 
            385     2.38481e-18 
            395     1.17661e-17 
            405     5.33818e-17 
            414     1.94842e-16 
            422     5.85813e-16 
            430      1.6856e-15 
            441     6.74228e-15 
            451      2.2311e-14 
            460     6.24452e-14 
            470     1.86472e-13 
            480     5.29907e-13 
            490     1.43855e-12 
            500     3.73625e-12 
            506     8.59543e-12 
            512      1.6623e-11 
            520     3.32954e-11 
            530     7.73925e-11 
            540     1.70717e-10 
            550     3.70515e-10 
            560      7.7471e-10 
            570      1.57371e-9 
            580      3.07353e-9 
            590      5.99206e-9 
            600      1.12642e-8 
            610      2.07145e-8 
            620      3.72309e-8 
            630      6.55437e-8 
            640      1.13148e-7 
            650      1.91789e-7 
            658       2.8867e-7 
            665      4.08637e-7 
            675      6.63234e-7 
            685      1.05939e-6 
            695      1.66641e-6 
            705      2.57285e-6 
            716      4.11307e-6 
            726      6.19384e-6 
            735      8.85643e-6 
            745      1.30193e-5 
            755      1.89255e-5 
            765      2.72074e-5 
            775      3.86912e-5 
            785      5.44952e-5 
            795      7.52297e-5 
            805     0.000104381 
            815     0.000143188 
            825     0.000194131 
            835     0.000260935 
            845     0.000347924 
            855     0.000460207 
            865     0.000604096 
            875     0.000784827 
            885      0.00101822 
            895      0.00130854 
            905      0.00166345 
            915        0.636083 
            925         2.20858 
            935         2.89817 
            945         3.79583 
            955         5.13404 
            965         6.53959 
            975         7.81814 
            985         9.97558 
            995         11.9717 
           1005         15.5071 
           1015         18.9987 
           1025         21.6204 
           1035         27.9512 
           1045         34.0705 
           1055         41.1618 
           1065         48.6728 
           1075         59.1911 
           1085         71.1521 
           1095         83.2746 
           1105         214.207 
           1115         621.597 
           1125         867.211 
           1135         1190.56 
           1145         1458.18 
           1155         1579.58 
           1165            2079 
           1175         2411.07 
           1185         2516.52 
           1195         1532.19 
           1205         1453.24 
           1215         377.565 
           1225         1631.44 
           1235         3546.17 
           1245         6792.44 
           1255         13670.4 
           1265         13674.1 
           1275         19638.7 
           1285         26992.6 
           1295         32013.7 
           1305         28819.5 
           1315         39376.1 
           1325           45479 
           1335         49706.4 
           1345         59290.9 
           1355         60511.9 
           1365         66298.8 
           1375         71740.2 
           1385         75879.1 
           1395         85614.8 
           1405         94196.4 
           1415         98168.2 
           1425          108149 
           1435          108835 
           1442          125029 
           1447          131301 
           1455          144988 
           1465          146323 
           1475          158863 
           1485          173244 
           1495          191852 
           1505          208887 
           1512          210879 
           1517          225862 
           1525          239552 
           1535          368651 
           1545          673561 
           1555          651791 
           1565          590160 
           1575          923165 
           1585      1.20562e+6 
           1595      1.33018e+6 
           1605      1.42733e+6 
           1615      1.76533e+6 
           1625      1.92286e+6 
           1635      3.05854e+6 
           1645      6.42077e+6 
           1655      3.51006e+6 
           1665      7.62883e+6 
           1672      4.17968e+6 
           1677       9.9902e+6 
           1685      1.36761e+7 
           1695      9.24126e+6 
           1705      1.16963e+7 
           1715      1.66717e+7 
           1725      1.74259e+7 
           1735      2.20026e+7 
           1745      2.08777e+7 
           1755      2.58877e+7 
           1765      1.69534e+7 
           1775      2.37484e+7 
           1785       2.4235e+7 
           1795      3.03416e+7 
           1805      2.50931e+7 
           1815      2.65042e+7 
           1825      2.35666e+7 
           1835      2.26537e+7 
           1845      1.90732e+7 
           1855      2.25587e+7 
           1865      2.61971e+7 
           1875      2.53869e+7 
           1885      2.62231e+7 
           1895      2.79162e+7 
           1905      2.54324e+7 
           1915      2.82165e+7 
           1925      2.74249e+7 
           1935      2.00528e+7 
           1945      2.97866e+7 
           1955      3.02308e+7 
           1967      3.32837e+7 
           1976      3.23395e+7 
           1984      3.05307e+7 
           1995      3.00871e+7 
           2005      2.76585e+7 
           2015      2.75025e+7 
           2025      2.51837e+7 
           2035      2.92516e+7 
           2045      3.19822e+7 
           2055      3.03407e+7 
           2065      2.91782e+7 
           2074      3.39098e+7 
           2078      3.59954e+7 
           2085      3.44611e+7 
           2095      3.21441e+7 
           2105      2.96357e+7 
           2115      3.06287e+7 
           2125      3.17719e+7 
           2135      2.52243e+7 
           2145      3.04764e+7 
           2155      3.03191e+7 
           2165      2.77771e+7 
           2175      2.74801e+7 
           2185      2.95341e+7 
           2195      3.20281e+7 
           2205      3.03125e+7 
           2215      2.65127e+7 
           2225      2.64065e+7 
           2235      3.14938e+7 
           2245      2.79765e+7 
           2255      2.58049e+7 
           2265      2.56194e+7 
           2275      2.79219e+7 
           2285      2.98116e+7 
           2295      2.66692e+7 
           2305      2.78742e+7 
           2315      2.68972e+7 
           2325      2.62231e+7 
           2335      2.29345e+7 
           2345      1.87569e+7 
           2355      2.61835e+7 
           2365      1.97706e+7 
           2375      2.31329e+7 
           2385      1.71244e+7 
           2395      2.00403e+7 
           2405      1.94819e+7 
           2415      1.99984e+7 
           2425      2.46225e+7 
           2435      2.35363e+7 
           2445      2.58643e+7 
           2455      2.55065e+7 
           2465      2.56118e+7 
           2475      2.33604e+7 
           2485      2.37346e+7 
           2495      2.23156e+7 
           2505      2.79361e+7 
           2513      2.26395e+7 
           2518      2.28141e+7 
           2525       2.0495e+7 
           2535      1.91987e+7 
           2545      1.80675e+7 
           2555      2.08614e+7 
           2565      2.08422e+7 
           2575       2.4509e+7 
           2585      2.49184e+7 
           2595      2.41903e+7 
           2605      2.25321e+7 
           2615      2.12042e+7 
           2625      2.57503e+7 
           2635      2.64961e+7 
           2645      3.18905e+7 
           2655      3.27885e+7 
           2665      2.72407e+7 
           2675      2.98888e+7 
           2685      2.99158e+7 
           2695      2.71231e+7 
           2705       2.8812e+7 
           2715      2.59921e+7 
           2725      2.65936e+7 
           2735      2.92974e+7 
           2745      2.17577e+7 
           2755      2.35075e+7 
           2765      2.51408e+7 
           2775      2.85044e+7 
           2785      2.55781e+7 
           2795      1.29603e+7 
           2805       1.6438e+7 
           2815      2.96768e+7 
           2825      3.18609e+7 
           2835      3.01811e+7 
           2845      2.84953e+7 
           2855      2.57553e+7 
           2865       3.0104e+7 
           2875      2.94273e+7 
           2885      2.97234e+7 
           2895      2.81191e+7 
           2910       3.2894e+7 
           2930      3.10054e+7 
           2950      3.07422e+7 
           2970      3.20627e+7 
           2990      3.21299e+7 
           3010      3.26824e+7 
           3030      3.23266e+7 
           3050      3.22645e+7 
           3070      3.25941e+7 
           3090      3.30041e+7 
           3110       3.1989e+7 
           3130      3.18303e+7 
           3150      3.27645e+7 
           3170      3.25571e+7 
           3190      3.04494e+7 
           3210      3.14305e+7 
           3230      2.98852e+7 
           3250      3.11609e+7 
           3270       3.1951e+7 
           3290      3.20844e+7 
           3310      3.25763e+7 
           3330      3.17891e+7 
           3350      3.13465e+7 
           3370      3.09142e+7 
           3390      3.10147e+7 
           3410      3.11324e+7 
           3430      3.12786e+7 
           3450       3.1049e+7 
           3470      3.06617e+7 
           3490      3.06497e+7 
           3510      3.11808e+7 
           3530      3.08708e+7 
           3550      3.16181e+7 
           3570      3.01829e+7 
           3590      2.99119e+7 
           3610      2.99918e+7 
           3630      3.01969e+7 
           3640      2.98066e+7 
           3650      3.10998e+7 
           3670      3.08597e+7 
           3690      2.97486e+7 
           3710       2.9675e+7 
           3730      2.89027e+7 
           3750      3.42961e+7 
           3770      3.63399e+7 
           3790       4.3802e+7 
           3810      5.07372e+7 
           3830       4.0375e+7 
           3850      5.61949e+7 
           3870      6.31995e+7 
           3890      3.73042e+7 
           3910      6.32215e+7 
           3930      5.72428e+7 
           3950      6.29617e+7 
           3970      3.48909e+7 
           3990      6.23682e+7 
           4010      7.18733e+7 
           4030      7.24723e+7 
           4050       7.1423e+7 
           4070      6.70999e+7 
           4090      5.23067e+7 
           4110      4.03557e+7 
           4130      6.39275e+7 
           4150      6.89083e+7 
           4170      6.93863e+7 
           4190      6.86268e+7 
           4210      6.86416e+7 
           4230      6.65981e+7 
           4250      6.68988e+7 
           4270      6.42921e+7 
           4290      6.41833e+7 
           4310      5.80889e+7 
           4330      4.45491e+7 
           4350      3.81458e+7 
           4370      5.84676e+7 
           4390      6.12651e+7 
           4410      6.09451e+7 
           4430      6.02252e+7 
           4450      6.12032e+7 
           4470      6.08811e+7 
           4490      6.00746e+7 
           4510      6.12803e+7 
           4530      5.92111e+7 
           4550      5.83005e+7 
           4570      5.95807e+7 
           4590       5.7734e+7 
           4610      5.83882e+7 
           4630      5.68796e+7 
           4650      5.70604e+7 
           4670      5.68197e+7 
           4690      5.46406e+7 
           4710      5.25269e+7 
           4730      5.48081e+7 
           4750      5.44644e+7 
           4770        5.355e+7 
           4790      5.26999e+7 
           4810      5.11667e+7 
           4830      4.79565e+7 
           4850      3.67865e+7 
           4870      2.96928e+7 
           4890      4.47073e+7 
           4910      4.80583e+7 
           4930      4.79698e+7 
           4950      4.87669e+7 
           4970      4.90112e+7 
           4990      4.75252e+7 
           5010      4.61829e+7 
           5030      4.70776e+7 
           5050      4.61914e+7 
           5070      4.67085e+7 
           5090      4.60586e+7 
           5110      4.59123e+7 
           5130      4.50611e+7 
           5150       4.4138e+7 
           5170      4.30882e+7 
           5190      4.27036e+7 
           5210      4.28663e+7 
           5230      4.23586e+7 
           5250      4.29195e+7 
           5270      4.05556e+7 
           5290      4.18905e+7 
           5310      4.13444e+7 
           5330      3.99089e+7 
           5350      4.07746e+7 
           5370       4.0214e+7 
           5390      3.98448e+7 
           5410      3.89638e+7 
           5430      3.91284e+7 
           5450      3.90535e+7 
           5470      3.86086e+7 
           5490      3.83665e+7 
           5510       3.8122e+7 
           5530      3.75992e+7 
           5550      3.75378e+7 
           5570      3.69275e+7 
           5590      3.64925e+7 
           5610      3.63573e+7 
           5630      3.62694e+7 
           5650      3.58809e+7 
           5670       3.5354e+7 
           5690      3.52316e+7 
           5710      3.48858e+7 
           5730      3.49204e+7 
           5750      3.43782e+7 
           5770      3.41686e+7 
           5790      3.38161e+7 
           5810      3.35792e+7 
           5830      3.33437e+7 
           5850      3.29477e+7 
           5870      3.26765e+7 
           5890      3.19587e+7 
           5910      3.21127e+7 
           5930      3.18376e+7 
           5950      3.15536e+7 
           5970      3.13109e+7 
           5990      3.09509e+7 
           6010      3.05461e+7 
           6030      3.03738e+7 
           6050      3.01857e+7 
           6070      3.00188e+7 
           6090      2.96869e+7 
           6110      2.93556e+7 
           6130      2.88616e+7 
           6150      2.84122e+7 
           6170      2.82738e+7 
           6190      2.84493e+7 
           6210      2.82185e+7 
           6230      2.78415e+7 
           6250      2.72402e+7 
           6270      2.75181e+7 
           6290      2.72977e+7 
           6310       2.6877e+7 
           6330      2.67206e+7 
           6350      2.63022e+7 
           6370      2.61354e+7 
           6390      2.60523e+7 
           6410      2.56342e+7 
           6430      2.55242e+7 
           6450      2.50302e+7 
           6470      2.49468e+7 
           6490      2.44668e+7 
           6510      2.41087e+7 
           6530      2.30583e+7 
           6550      1.96784e+7 
           6570      1.58058e+7 
           6590      2.15646e+7 
           6610      2.29458e+7 
           6630      2.32387e+7 
           6650      2.32235e+7 
           6670      2.30751e+7 
           6690      2.30014e+7 
           6710      2.28243e+7 
           6730      2.26589e+7 
           6750      2.23917e+7 
           6770      2.23582e+7 
           6790      2.21679e+7 
           6810      2.19891e+7 
           6830      2.17822e+7 
           6850      2.15998e+7 
           6870      2.14742e+7 
           6890      2.13092e+7 
           6910      2.11332e+7 
           6930       2.0951e+7 
           6950      2.07963e+7 
           6970      2.06181e+7 
           6990      2.04795e+7 
           7010      2.01788e+7 
           7030      2.00939e+7 
           7050       1.9977e+7 
           7070      1.98318e+7 
           7090      1.96781e+7 
           7110      1.91927e+7 
           7130      1.92711e+7 
           7150      1.91451e+7 
           7170       1.8993e+7 
           7190      1.88175e+7 
           7210      1.87169e+7 
           7230      1.85738e+7 
           7250      1.83948e+7 
           7270      1.83301e+7 
           7290      1.80957e+7 
           7310      1.80116e+7 
           7330      1.78678e+7 
           7350      1.77833e+7 
           7370      1.76529e+7 
           7390      1.74506e+7 
           7410      1.72453e+7 
           7430      1.71008e+7 
           7450       1.7024e+7 
           7470      1.68256e+7 
           7490      1.67419e+7 
           7510      1.66803e+7 
           7530      1.65752e+7 
           7550      1.64967e+7 
           7570      1.63518e+7 
           7590      1.62396e+7 
           7610      1.61108e+7 
           7630      1.59986e+7 
           7650      1.58571e+7 
           7670       1.5665e+7 
           7690      1.55868e+7 
           7710      1.54788e+7 
           7730      1.54114e+7 
           7750      1.52624e+7 
           7770      1.48725e+7 
           7790      1.50924e+7 
           7810      1.49639e+7 
           7830      1.47972e+7 
           7850      1.46571e+7 
           7870       1.4556e+7 
           7890      1.44302e+7 
           7910      1.43357e+7 
           7930      1.41969e+7 
           7950      1.40881e+7 
           7970        1.412e+7 
           7990      1.39025e+7 
           8010      1.38842e+7 
           8030      1.37655e+7 
           8050      1.36873e+7 
           8070      1.35895e+7 
           8090      1.34815e+7 
           8110      1.34208e+7 
           8130        1.334e+7 
           8150      1.32412e+7 
           8170      1.31471e+7 
           8190      1.28785e+7 
           8210      1.28365e+7 
           8230      1.27392e+7 
           8250      1.26764e+7 
           8270      1.27236e+7 
           8290      1.26251e+7 
           8310      1.25147e+7 
           8330      1.23282e+7 
           8350      1.23621e+7 
           8370      1.23047e+7 
           8390      1.21782e+7 
           8410      1.21246e+7 
           8430      1.20078e+7 
           8450      1.17663e+7 
           8470      1.17633e+7 
           8490      1.17487e+7 
           8510      1.12899e+7 
           8530      1.16155e+7 
           8550      1.05579e+7 
           8570      1.16002e+7 
           8590      1.10464e+7 
           8610      1.08528e+7 
           8630      1.14834e+7 
           8650      1.10915e+7 
           8670      9.51986e+6 
           8690      1.10161e+7 
           8710      1.14085e+7 
           8730      1.09816e+7 
           8750      9.10104e+6 
           8770      1.05305e+7 
           8790      1.12442e+7 
           8810      1.12699e+7 
           8830      1.09126e+7 
           8850      9.85035e+6 
           8870      8.54666e+6 
           8890      1.04569e+7 
           8910      1.09254e+7 
           8930      1.10003e+7 
           8950      1.10457e+7 
           8970      1.07848e+7 
           8990      1.02079e+7 
           9010      8.25342e+6 
           9030       8.9843e+6 
           9050      1.02174e+7 
           9070      1.03313e+7 
           9090      1.02736e+7 
           9110      1.05136e+7 
           9130      1.05498e+7 
           9150      1.04821e+7 
           9170      1.02832e+7 
           9190       9.9312e+6 
           9210       9.1211e+6 
           9230      7.24203e+6 
           9250      8.76676e+6 
           9270      9.44926e+6 
           9290      9.88529e+6 
           9310      9.95979e+6 
           9330       9.9392e+6 
           9350      9.91741e+6 
