# Kurucz ODFNEW /NOVER (2003)
# teff = 20000 K (value for the effective temperature for the model. Temperatures are given in K)
# logg = 3 log(cm/s2) (value for Log(G) for the model.)
# meta = -0.5  (value for the Metallicity for the model.)
# lh = 1.25  (l/Hp where l is the  mixing length of the convective element and Hp is the pressure scale height)
# vtur = 2 km/s (Microturbulence velocity)
# alpha = 0  (Alpha)
#
# column 1: WAVELENGTH (ANGSTROM), Wavelength in Angstrom
# column 2: FLUX (ERG/CM2/S/A), Flux in erg/cm2/s/A
          147.2     2.99414e-20 
            151     1.90223e-19 
          155.2     1.33093e-18 
          158.8     6.53562e-18 
            162     2.54555e-17 
            166     1.29878e-16 
          170.3     6.90184e-16 
          173.4      2.1914e-15 
          176.8     7.43643e-15 
          180.2     2.41361e-14 
          181.7      4.0026e-14 
          186.1     1.68724e-13 
            191     7.75899e-13 
          193.9     1.84751e-12 
          198.4     6.75159e-12 
          201.8     1.72984e-11 
            205     4.07468e-11 
          210.5     1.67423e-10 
          216.2      6.7055e-10 
          219.8      1.55161e-9 
            223      3.19723e-9 
          226.8      7.34735e-9 
            230      1.27846e-7 
            234      3.32022e-7 
            240      9.92643e-7 
          246.5      3.05669e-6 
          252.4      8.15779e-6 
          256.8      1.58532e-5 
            260       2.6813e-5 
            264      4.85928e-5 
          268.5      9.27241e-5 
          273.5      0.00018509 
          278.5     0.000361972 
            284      0.00073953 
            290      0.00154907 
            296      0.00314421 
            301       0.0055436 
            308       0.0116711 
            318       0.0337609 
            328       0.0879073 
            338        0.220404 
            348        0.517636 
            357         1.10832 
            366         2.22824 
            375          4.2325 
            385         8.42517 
            395         16.1241 
            405         29.8168 
            414         50.6552 
            422         78.8262 
            430         121.108 
            441         213.565 
            451         347.964 
            460         527.314 
            470          825.36 
            480         1259.67 
            490         1895.26 
            500         2797.29 
            506         22977.3 
            512          128766 
            520          164178 
            530          235412 
            540          267121 
            550          411413 
            560          505125 
            570          654969 
            580          649074 
            590          904183 
            600      1.15886e+6 
            610       1.4483e+6 
            620      1.69587e+6 
            630      2.01122e+6 
            640      2.21531e+6 
            650      2.35364e+6 
            658      3.07847e+6 
            665      3.38765e+6 
            675      3.74005e+6 
            685       4.1976e+6 
            695      5.14774e+6 
            705      5.69007e+6 
            716      6.60145e+6 
            726      7.28477e+6 
            735      7.97357e+6 
            745      9.24541e+6 
            755      1.03437e+7 
            765      1.15344e+7 
            775      1.28889e+7 
            785      1.42885e+7 
            795      1.54936e+7 
            805      1.68655e+7 
            815      1.81557e+7 
            825      2.02029e+7 
            835      2.06394e+7 
            845      2.30161e+7 
            855      2.47834e+7 
            865      2.70408e+7 
            875      2.96409e+7 
            885      3.25005e+7 
            895      3.49016e+7 
            905      3.59943e+7 
            915      7.22568e+7 
            925      1.00511e+9 
            935      2.76092e+9 
            945      5.26942e+9 
            955      6.58432e+9 
            965       7.2868e+9 
            975       1.4785e+9 
            985      6.46465e+9 
            995        6.577e+9 
           1005       7.8078e+9 
           1015      7.75454e+9 
           1025      4.18028e+9 
           1035      5.59419e+9 
           1045      9.17584e+9 
           1055      8.51972e+9 
           1065      7.20526e+9 
           1075      8.40353e+9 
           1085      7.33794e+9 
           1095      8.53358e+9 
           1105      7.63687e+9 
           1115      7.41565e+9 
           1125       6.4953e+9 
           1135      8.19653e+9 
           1145      7.52008e+9 
           1155      7.83492e+9 
           1165      7.95914e+9 
           1175      5.54906e+9 
           1185        7.913e+9 
           1195      6.80634e+9 
           1205      3.97246e+9 
           1215      3.19125e+9 
           1225      6.59002e+9 
           1235      7.57892e+9 
           1245      7.61224e+9 
           1255      7.43999e+9 
           1265      7.24231e+9 
           1275      7.57202e+9 
           1285      7.43774e+9 
           1295       5.2611e+9 
           1305      5.58206e+9 
           1315      7.21597e+9 
           1325      6.80661e+9 
           1335      6.21546e+9 
           1345      6.77187e+9 
           1355      6.69876e+9 
           1365      6.19436e+9 
           1375      6.13527e+9 
           1385      6.12555e+9 
           1395      5.03487e+9 
           1405      5.38445e+9 
           1415      5.61757e+9 
           1425      5.62657e+9 
           1435      5.73503e+9 
           1442      5.85885e+9 
           1447      5.72828e+9 
           1455      5.61297e+9 
           1465      5.28314e+9 
           1475      5.30109e+9 
           1485      5.22755e+9 
           1495      5.14656e+9 
           1505      4.81526e+9 
           1512      4.31992e+9 
           1517      4.48368e+9 
           1525      4.60847e+9 
           1535      4.08559e+9 
           1545      4.15503e+9 
           1555      3.96465e+9 
           1565      4.17579e+9 
           1575      4.37458e+9 
           1585       4.3479e+9 
           1595      4.36181e+9 
           1605      4.31831e+9 
           1615      4.27034e+9 
           1625      4.17828e+9 
           1635       4.3631e+9 
           1645      4.32469e+9 
           1655      4.21124e+9 
           1665      4.34332e+9 
           1672      4.18534e+9 
           1677      4.36216e+9 
           1685      4.30955e+9 
           1695      4.09364e+9 
           1705      3.94597e+9 
           1715      3.75048e+9 
           1725      3.73004e+9 
           1735      3.86288e+9 
           1745      3.75341e+9 
           1755      3.81778e+9 
           1765      3.66895e+9 
           1775      3.55717e+9 
           1785      3.59026e+9 
           1795      3.69664e+9 
           1805      3.71107e+9 
           1815      3.34482e+9 
           1825      3.48505e+9 
           1835      3.37658e+9 
           1845      3.11198e+9 
           1855      3.03505e+9 
           1865      3.09996e+9 
           1875      3.29684e+9 
           1885      2.95469e+9 
           1895      2.74934e+9 
           1905      2.98921e+9 
           1915      2.81621e+9 
           1925      2.70864e+9 
           1935      2.84905e+9 
           1945      2.89222e+9 
           1955      2.64428e+9 
           1967       2.8609e+9 
           1976      2.96785e+9 
           1984      2.76528e+9 
           1995      2.70136e+9 
           2005      2.79368e+9 
           2015      2.75767e+9 
           2025      2.85067e+9 
           2035       2.6114e+9 
           2045       2.6561e+9 
           2055      2.58508e+9 
           2065      2.59695e+9 
           2074      2.74366e+9 
           2078      2.47818e+9 
           2085      2.59997e+9 
           2095      2.46001e+9 
           2105      2.52214e+9 
           2115      2.52538e+9 
           2125      2.55949e+9 
           2135        2.513e+9 
           2145      2.37991e+9 
           2155       2.4832e+9 
           2165      2.46755e+9 
           2175      2.43679e+9 
           2185       2.3664e+9 
           2195      2.39845e+9 
           2205       2.3707e+9 
           2215      2.32999e+9 
           2225       2.2725e+9 
           2235      2.26608e+9 
           2245      2.27561e+9 
           2255      2.20228e+9 
           2265      2.23164e+9 
           2275      2.20449e+9 
           2285      2.20869e+9 
           2295      2.09886e+9 
           2305      2.14075e+9 
           2315       2.0799e+9 
           2325      2.05641e+9 
           2335      1.98756e+9 
           2345       1.9801e+9 
           2355      1.99715e+9 
           2365      1.95955e+9 
           2375      1.93987e+9 
           2385      1.91172e+9 
           2395      1.91431e+9 
           2405      1.87289e+9 
           2415      1.85657e+9 
           2425      1.86577e+9 
           2435      1.81292e+9 
           2445      1.81867e+9 
           2455      1.82001e+9 
           2465      1.77948e+9 
           2475      1.75935e+9 
           2485      1.74741e+9 
           2495      1.65331e+9 
           2505       1.7129e+9 
           2513      1.64015e+9 
           2518      1.68783e+9 
           2525      1.65621e+9 
           2535       1.6298e+9 
           2545      1.59224e+9 
           2555      1.62072e+9 
           2565       1.5935e+9 
           2575      1.60189e+9 
           2585      1.58495e+9 
           2595      1.57058e+9 
           2605      1.56232e+9 
           2615      1.54389e+9 
           2625       1.5286e+9 
           2635       1.5136e+9 
           2645       1.5179e+9 
           2655      1.50862e+9 
           2665      1.47128e+9 
           2675      1.47156e+9 
           2685      1.46376e+9 
           2695      1.42662e+9 
           2705      1.42083e+9 
           2715      1.40762e+9 
           2725      1.38696e+9 
           2735      1.38796e+9 
           2745      1.34237e+9 
           2755      1.33974e+9 
           2765      1.33125e+9 
           2775      1.33816e+9 
           2785       1.3191e+9 
           2795      1.27688e+9 
           2805      1.28958e+9 
           2815      1.28742e+9 
           2825      1.26756e+9 
           2835      1.23004e+9 
           2845      1.24049e+9 
           2855      1.22909e+9 
           2865      1.22709e+9 
           2875      1.21274e+9 
           2885      1.20303e+9 
           2895      1.18871e+9 
           2910      1.17128e+9 
           2930      1.14718e+9 
           2950        1.119e+9 
           2970      1.10646e+9 
           2990      1.08264e+9 
           3010      1.05928e+9 
           3030      1.04895e+9 
           3050      1.02957e+9 
           3070      1.01112e+9 
           3090      9.85965e+8 
           3110      9.72857e+8 
           3130       9.5585e+8 
           3150      9.38739e+8 
           3170      9.19245e+8 
           3190        8.975e+8 
           3210      8.88362e+8 
           3230      8.72123e+8 
           3250      8.57463e+8 
           3270       8.4232e+8 
           3290      8.26646e+8 
           3310       8.1397e+8 
           3330      7.99534e+8 
           3350      7.84342e+8 
           3370      7.72042e+8 
           3390      7.59287e+8 
           3410      7.46519e+8 
           3430      7.29897e+8 
           3450      7.15129e+8 
           3470      7.05126e+8 
           3490      6.93913e+8 
           3510      6.85783e+8 
           3530      6.75524e+8 
           3550      6.64467e+8 
           3570      6.55949e+8 
           3590      6.40827e+8 
           3610      6.29785e+8 
           3630      6.20949e+8 
           3640      6.19646e+8 
           3650      6.07603e+8 
           3670      5.99935e+8 
           3690      5.79145e+8 
           3710        5.805e+8 
           3730      5.84743e+8 
           3750      6.49729e+8 
           3770      6.50488e+8 
           3790      6.65698e+8 
           3810      6.88884e+8 
           3830      6.15782e+8 
           3850      6.93477e+8 
           3870      6.81398e+8 
           3890      5.91256e+8 
           3910      6.72283e+8 
           3930      6.50457e+8 
           3950      6.49778e+8 
           3970      5.49262e+8 
           3990       6.2709e+8 
           4010      6.18273e+8 
           4030      5.92782e+8 
           4050      6.01825e+8 
           4070      5.86351e+8 
           4090      5.63176e+8 
           4110      5.05633e+8 
           4130      5.54662e+8 
           4150      5.49416e+8 
           4170      5.44353e+8 
           4190      5.38418e+8 
           4210      5.31486e+8 
           4230       5.2203e+8 
           4250      5.12665e+8 
           4270      5.00208e+8 
           4290       4.9664e+8 
           4310      4.87235e+8 
           4330      4.60923e+8 
           4350      4.23566e+8 
           4370      4.64419e+8 
           4390      4.53766e+8 
           4410      4.52817e+8 
           4430      4.45186e+8 
           4450      4.40718e+8 
           4470      4.23132e+8 
           4490      4.26117e+8 
           4510      4.22253e+8 
           4530      4.15192e+8 
           4550      4.09202e+8 
           4570      4.03031e+8 
           4590       3.9747e+8 
           4610       3.9082e+8 
           4630      3.85061e+8 
           4650      3.77574e+8 
           4670      3.74503e+8 
           4690      3.70305e+8 
           4710      3.59134e+8 
           4730      3.57165e+8 
           4750      3.51909e+8 
           4770      3.50123e+8 
           4790      3.44792e+8 
           4810      3.39048e+8 
           4830      3.34099e+8 
           4850      3.20074e+8 
           4870       2.8951e+8 
           4890      3.20657e+8 
           4910      3.16925e+8 
           4930      3.07275e+8 
           4950      3.08041e+8 
           4970      3.04453e+8 
           4990      3.00021e+8 
           5010      2.90576e+8 
           5030      2.91679e+8 
           5050      2.84957e+8 
           5070      2.84091e+8 
           5090      2.80263e+8 
           5110      2.76328e+8 
           5130      2.71658e+8 
           5150      2.68259e+8 
           5170      2.65737e+8 
           5190      2.62252e+8 
           5210      2.57911e+8 
           5230      2.55364e+8 
           5250      2.52096e+8 
           5270      2.48681e+8 
           5290      2.45659e+8 
           5310      2.42369e+8 
           5330      2.39201e+8 
           5350      2.35837e+8 
           5370      2.33313e+8 
           5390      2.30275e+8 
           5410      2.27391e+8 
           5430      2.24122e+8 
           5450      2.21427e+8 
           5470      2.18653e+8 
           5490      2.16037e+8 
           5510      2.13392e+8 
           5530      2.10657e+8 
           5550      2.08175e+8 
           5570      2.05493e+8 
           5590       2.0306e+8 
           5610      2.00394e+8 
           5630      1.98141e+8 
           5650      1.94959e+8 
           5670      1.92426e+8 
           5690      1.90063e+8 
           5710      1.88433e+8 
           5730      1.86179e+8 
           5750      1.83793e+8 
           5770      1.81864e+8 
           5790      1.79666e+8 
           5810      1.77516e+8 
           5830      1.75281e+8 
           5850      1.73303e+8 
           5870      1.67193e+8 
           5890      1.68416e+8 
           5910      1.67105e+8 
           5930      1.65048e+8 
           5950      1.62951e+8 
           5970      1.61448e+8 
           5990      1.59343e+8 
           6010       1.5769e+8 
           6030      1.55786e+8 
           6050      1.54037e+8 
           6070      1.52318e+8 
           6090      1.50547e+8 
           6110      1.48847e+8 
           6130      1.47165e+8 
           6150      1.45184e+8 
           6170      1.43749e+8 
           6190      1.42192e+8 
           6210      1.40604e+8 
           6230      1.39023e+8 
           6250      1.37344e+8 
           6270      1.35885e+8 
           6290      1.34384e+8 
           6310      1.32824e+8 
           6330      1.31431e+8 
           6350      1.29614e+8 
           6370      1.28356e+8 
           6390      1.27083e+8 
           6410      1.25695e+8 
           6430      1.24377e+8 
           6450      1.22991e+8 
           6470      1.21512e+8 
           6490      1.20237e+8 
           6510      1.19001e+8 
           6530      1.17584e+8 
           6550      1.14329e+8 
           6570      1.02655e+8 
           6590      1.12911e+8 
           6610      1.12712e+8 
           6630       1.1157e+8 
           6650      1.10448e+8 
           6670      1.08483e+8 
           6690      1.07355e+8 
           6710      1.07001e+8 
           6730      1.05833e+8 
           6750      1.04786e+8 
           6770      1.03691e+8 
           6790      1.02264e+8 
           6810      1.01485e+8 
           6830      1.00447e+8 
           6850      9.94362e+7 
           6870      9.84111e+7 
           6890      9.73882e+7 
           6910      9.63756e+7 
           6930      9.53729e+7 
           6950      9.44349e+7 
           6970      9.34749e+7 
           6990      9.25013e+7 
           7010      9.15756e+7 
           7030      9.06512e+7 
           7050      8.97208e+7 
           7070      8.74879e+7 
           7090      8.79543e+7 
           7110      8.69087e+7 
           7130      8.60884e+7 
           7150      8.53348e+7 
           7170       8.4471e+7 
           7190      8.36592e+7 
           7210      8.28334e+7 
           7230      8.11866e+7 
           7250      8.11765e+7 
           7270      8.04097e+7 
           7290      7.90121e+7 
           7310      7.88271e+7 
           7330       7.8075e+7 
           7350      7.73229e+7 
           7370      7.65709e+7 
           7390      7.58328e+7 
           7410      7.51015e+7 
           7430      7.43633e+7 
           7450       7.3666e+7 
           7470      7.29142e+7 
           7490      7.22567e+7 
           7510      7.15384e+7 
           7530      7.08865e+7 
           7550      7.02272e+7 
           7570      6.95674e+7 
           7590      6.89004e+7 
           7610      6.82525e+7 
           7630      6.76104e+7 
           7650      6.69806e+7 
           7670      6.63563e+7 
           7690      6.57313e+7 
           7710      6.51182e+7 
           7730      6.45169e+7 
           7750      6.39146e+7 
           7770      6.31243e+7 
           7790      6.27509e+7 
           7810      6.21149e+7 
           7830      6.16014e+7 
           7850      6.10605e+7 
           7870      6.04993e+7 
           7890      5.98583e+7 
           7910      5.93712e+7 
           7930      5.87611e+7 
           7950      5.81768e+7 
           7970      5.76432e+7 
           7990      5.71112e+7 
           8010      5.66273e+7 
           8030      5.61563e+7 
           8050      5.56817e+7 
           8070      5.52244e+7 
           8090      5.46167e+7 
           8110      5.41552e+7 
           8130      5.37916e+7 
           8150      5.31961e+7 
           8170      5.28615e+7 
           8190      5.23122e+7 
           8210      5.16451e+7 
           8230      5.13216e+7 
           8250      5.09252e+7 
           8270      5.01939e+7 
           8290      4.99614e+7 
           8310      4.95444e+7 
           8330      4.91124e+7 
           8350      4.84603e+7 
           8370       4.8073e+7 
           8390      4.77291e+7 
           8410      4.72695e+7 
           8430      4.68329e+7 
           8450      4.61746e+7 
           8470      4.56391e+7 
           8490      4.59611e+7 
           8510      4.46196e+7 
           8530      4.54866e+7 
           8550      4.31657e+7 
           8570      4.54907e+7 
           8590      4.31067e+7 
