# Kurucz ODFNEW /NOVER (2003)
# teff = 21000 K (value for the effective temperature for the model. Temperatures are given in K)
# logg = 3 log(cm/s2) (value for Log(G) for the model.)
# meta = -0.5  (value for the Metallicity for the model.)
# lh = 1.25  (l/Hp where l is the  mixing length of the convective element and Hp is the pressure scale height)
# vtur = 2 km/s (Microturbulence velocity)
# alpha = 0.4  (Alpha)
#
# column 1: WAVELENGTH (ANGSTROM), Wavelength in Angstrom
# column 2: FLUX (ERG/CM2/S/A), Flux in erg/cm2/s/A
          147.2     4.68481e-19 
            151     2.71646e-18 
          155.2     1.72622e-17 
          158.8     7.84624e-17 
            162     2.86337e-16 
            166     1.35367e-15 
          170.3      6.6601e-15 
          173.4     2.00884e-14 
          176.8     6.46104e-14 
          180.2     1.99316e-13 
          181.7      3.2343e-13 
          186.1     1.28313e-12 
            191     5.54277e-12 
          193.9     1.27386e-11 
          198.4     4.42217e-11 
          201.8     1.09254e-10 
            205     2.49148e-10 
          210.5     9.70258e-10 
          216.2      3.69238e-9 
          219.8      8.28754e-9 
            223      1.66354e-8 
          226.8      3.70912e-8 
            230      1.40131e-6 
            234      3.53316e-6 
            240      9.84794e-6 
          246.5      2.82642e-5 
          252.4      7.11286e-5 
          256.8     0.000130912 
            260     0.000219155 
            264     0.000381173 
          268.5     0.000699872 
          273.5      0.00133443 
          278.5      0.00251079 
            284      0.00503094 
            290       0.0100418 
            296       0.0195176 
            301       0.0331606 
            308       0.0676583 
            318        0.186275 
            328        0.452388 
            338         1.08857 
            348         2.43052 
            357         6.10369 
            366         11.9471 
            375         21.3661 
            385         40.4319 
            395         74.3294 
            405         130.519 
            414         214.128 
            422         318.905 
            430         477.096 
            441          804.73 
            451          1265.7 
            460         1848.93 
            470         2802.02 
            480         4131.92 
            490         6050.11 
            500          8702.9 
            506         80221.8 
            512          461872 
            520          567268 
            530          781985 
            540          859785 
            550      1.31177e+6 
            560      1.58969e+6 
            570      2.02082e+6 
            580      1.97637e+6 
            590      2.74133e+6 
            600      3.37246e+6 
            610      4.16194e+6 
            620      4.76165e+6 
            630      5.50951e+6 
            640      5.88529e+6 
            650      5.91639e+6 
            658      7.95331e+6 
            665      8.73959e+6 
            675      9.35653e+6 
            685      1.02672e+7 
            695      1.27153e+7 
            705      1.36791e+7 
            716      1.58288e+7 
            726      1.70333e+7 
            735      1.85434e+7 
            745      2.13946e+7 
            755      2.36437e+7 
            765      2.60751e+7 
            775       2.8892e+7 
            785      3.16753e+7 
            795      3.38662e+7 
            805      3.65239e+7 
            815      3.88325e+7 
            825      4.29149e+7 
            835      4.13355e+7 
            845      4.76715e+7 
            855      5.07769e+7 
            865       5.4987e+7 
            875      5.96174e+7 
            885       6.5204e+7 
            895      6.96152e+7 
            905      7.10474e+7 
            915      1.42804e+8 
            925       1.9868e+9 
            935      4.62215e+9 
            945      7.76134e+9 
            955      9.16972e+9 
            965      9.94754e+9 
            975      2.19853e+9 
            985       8.4892e+9 
            995       8.5367e+9 
           1005     1.00636e+10 
           1015     1.01095e+10 
           1025      6.14313e+9 
           1035      7.68775e+9 
           1045     1.19405e+10 
           1055     1.10315e+10 
           1065      9.06496e+9 
           1075     1.06904e+10 
           1085      9.55404e+9 
           1095     1.09878e+10 
           1105      9.45106e+9 
           1115      8.85927e+9 
           1125      7.78031e+9 
           1135     1.04138e+10 
           1145      9.42984e+9 
           1155       9.9196e+9 
           1165     1.00437e+10 
           1175      6.79962e+9 
           1185      9.83015e+9 
           1195      8.25941e+9 
           1205      3.93483e+9 
           1215      4.52236e+9 
           1225      8.32752e+9 
           1235      9.46773e+9 
           1245      9.46718e+9 
           1255      9.26644e+9 
           1265      9.10804e+9 
           1275      9.49781e+9 
           1285      9.25793e+9 
           1295      5.72207e+9 
           1305      6.28198e+9 
           1315      8.99654e+9 
           1325      8.51191e+9 
           1335      8.00206e+9 
           1345      8.37227e+9 
           1355       8.3497e+9 
           1365      7.69968e+9 
           1375      7.57394e+9 
           1385      7.44651e+9 
           1395      5.36881e+9 
           1405      5.99496e+9 
           1415      6.85224e+9 
           1425      6.87681e+9 
           1435      7.06579e+9 
           1442      7.24828e+9 
           1447       7.0896e+9 
           1455      6.91896e+9 
           1465       6.5187e+9 
           1475      6.54732e+9 
           1485       6.4427e+9 
           1495      6.33202e+9 
           1505      5.87059e+9 
           1512      5.31475e+9 
           1517      5.51403e+9 
           1525      5.66514e+9 
           1535      4.98096e+9 
           1545      5.03095e+9 
           1555      4.80504e+9 
           1565      5.10007e+9 
           1575      5.36416e+9 
           1585      5.30118e+9 
           1595      5.32614e+9 
           1605      5.28103e+9 
           1615      5.20717e+9 
           1625      5.11218e+9 
           1635       5.3462e+9 
           1645      5.30632e+9 
           1655      5.19081e+9 
           1665      5.28778e+9 
           1672      5.11167e+9 
           1677      5.38598e+9 
           1685      5.28428e+9 
           1695      5.01886e+9 
           1705      4.84794e+9 
           1715      4.59649e+9 
           1725      4.57817e+9 
           1735      4.71778e+9 
           1745      4.61375e+9 
           1755      4.65367e+9 
           1765      4.53312e+9 
           1775      4.33237e+9 
           1785       4.3588e+9 
           1795       4.5033e+9 
           1805      4.52083e+9 
           1815      4.06815e+9 
           1825      4.24719e+9 
           1835      4.11063e+9 
           1845      3.77988e+9 
           1855      3.73606e+9 
           1865      3.80388e+9 
           1875      3.99616e+9 
           1885      3.59127e+9 
           1895      3.33609e+9 
           1905      3.62474e+9 
           1915      3.42354e+9 
           1925      3.27948e+9 
           1935      3.45687e+9 
           1945      3.49411e+9 
           1955      3.19774e+9 
           1967      3.46488e+9 
           1976      3.60609e+9 
           1984      3.35474e+9 
           1995      3.28273e+9 
           2005      3.39401e+9 
           2015      3.35289e+9 
           2025      3.45886e+9 
           2035       3.1645e+9 
           2045      3.22119e+9 
           2055      3.12221e+9 
           2065      3.13913e+9 
           2074      3.30103e+9 
           2078      2.99554e+9 
           2085      3.14731e+9 
           2095      2.97373e+9 
           2105      3.05276e+9 
           2115      3.06304e+9 
           2125      3.10043e+9 
           2135      3.04923e+9 
           2145      2.88093e+9 
           2155       3.0096e+9 
           2165      2.99754e+9 
           2175       2.9557e+9 
           2185      2.87008e+9 
           2195      2.90154e+9 
           2205      2.88008e+9 
           2215      2.83479e+9 
           2225      2.76431e+9 
           2235       2.7394e+9 
           2245      2.76035e+9 
           2255      2.67458e+9 
           2265      2.70602e+9 
           2275      2.67071e+9 
           2285      2.67026e+9 
           2295      2.51536e+9 
           2305      2.58987e+9 
           2315      2.51925e+9 
           2325      2.49052e+9 
           2335      2.40359e+9 
           2345        2.413e+9 
           2355      2.42366e+9 
           2365      2.38826e+9 
           2375       2.3537e+9 
           2385      2.33082e+9 
           2395      2.31967e+9 
           2405      2.27717e+9 
           2415      2.24873e+9 
           2425      2.25821e+9 
           2435      2.19777e+9 
           2445      2.20031e+9 
           2455      2.19905e+9 
           2465      2.15843e+9 
           2475      2.13099e+9 
           2485      2.10223e+9 
           2495      1.89816e+9 
           2505      2.04934e+9 
           2513      1.97499e+9 
           2518      2.02871e+9 
           2525      2.00182e+9 
           2535       1.9758e+9 
           2545      1.90487e+9 
           2555      1.94597e+9 
           2565      1.91044e+9 
           2575      1.92512e+9 
           2585      1.90067e+9 
           2595      1.88543e+9 
           2605      1.87598e+9 
           2615      1.85163e+9 
           2625      1.83525e+9 
           2635      1.81631e+9 
           2645      1.81229e+9 
           2655      1.80016e+9 
           2665      1.75305e+9 
           2675      1.75371e+9 
           2685      1.74563e+9 
           2695      1.69852e+9 
           2705      1.68876e+9 
           2715      1.67819e+9 
           2725      1.65448e+9 
           2735      1.65116e+9 
           2745      1.60416e+9 
           2755      1.60033e+9 
           2765       1.5868e+9 
           2775       1.5927e+9 
           2785       1.5689e+9 
           2795      1.51313e+9 
           2805      1.53133e+9 
           2815       1.5287e+9 
           2825      1.50694e+9 
           2835      1.46338e+9 
           2845      1.47685e+9 
           2855      1.45852e+9 
           2865      1.45451e+9 
           2875      1.43857e+9 
           2885      1.42703e+9 
           2895      1.40793e+9 
           2910      1.38367e+9 
           2930      1.35734e+9 
           2950      1.32436e+9 
           2970      1.30813e+9 
           2990      1.27943e+9 
           3010      1.24727e+9 
           3030      1.23627e+9 
           3050      1.21457e+9 
           3070      1.19344e+9 
           3090      1.15602e+9 
           3110      1.14607e+9 
           3130      1.12378e+9 
           3150      1.10412e+9 
           3170       1.0812e+9 
           3190      1.05551e+9 
           3210      1.04415e+9 
           3230       1.0231e+9 
           3250      1.00684e+9 
           3270      9.88144e+8 
           3290      9.69276e+8 
           3310      9.54022e+8 
           3330      9.36277e+8 
           3350      9.18787e+8 
           3370      9.03236e+8 
           3390      8.88578e+8 
           3410       8.7352e+8 
           3430      8.53949e+8 
           3450       8.3629e+8 
           3470      8.23705e+8 
           3490      8.09838e+8 
           3510      8.00085e+8 
           3530      7.88203e+8 
           3550      7.74773e+8 
           3570      7.64402e+8 
           3590      7.45707e+8 
           3610      7.32986e+8 
           3630       7.2253e+8 
           3640      7.21267e+8 
           3650      7.05839e+8 
           3670      6.97244e+8 
           3690      6.74019e+8 
           3710       6.7115e+8 
           3730        6.715e+8 
           3750      7.36421e+8 
           3770      7.33319e+8 
           3790      7.46687e+8 
           3810      7.69674e+8 
           3830      6.92572e+8 
           3850      7.69268e+8 
           3870      7.54395e+8 
           3890      6.65322e+8 
           3910      7.45076e+8 
           3930       7.1934e+8 
           3950      7.18617e+8 
           3970      6.17935e+8 
           3990      6.94295e+8 
           4010      6.85184e+8 
           4030      6.58405e+8 
           4050      6.65791e+8 
           4070      6.45004e+8 
           4090      6.21122e+8 
           4110      5.64154e+8 
           4130      6.11844e+8 
           4150      6.06639e+8 
           4170       6.0183e+8 
           4190       5.9479e+8 
           4210      5.88153e+8 
           4230      5.77277e+8 
           4250      5.65516e+8 
           4270      5.51099e+8 
           4290      5.46279e+8 
           4310      5.35543e+8 
           4330      5.09951e+8 
           4350      4.70073e+8 
           4370      5.11173e+8 
           4390      5.01639e+8 
           4410      4.98765e+8 
           4430      4.91718e+8 
           4450       4.8571e+8 
           4470      4.67742e+8 
           4490      4.69788e+8 
           4510      4.66224e+8 
           4530      4.58407e+8 
           4550      4.51475e+8 
           4570      4.44411e+8 
           4590      4.37954e+8 
           4610      4.30617e+8 
           4630      4.24901e+8 
           4650      4.14337e+8 
           4670      4.12143e+8 
           4690      4.08293e+8 
           4710      3.94695e+8 
           4730      3.94294e+8 
           4750      3.88209e+8 
           4770      3.86533e+8 
           4790      3.80537e+8 
           4810      3.73585e+8 
           4830      3.67962e+8 
           4850      3.54652e+8 
           4870      3.22645e+8 
           4890      3.53694e+8 
           4910      3.49225e+8 
           4930      3.38849e+8 
           4950      3.38914e+8 
           4970       3.3578e+8 
           4990      3.30794e+8 
           5010      3.20039e+8 
           5030      3.21504e+8 
           5050      3.13851e+8 
           5070      3.13197e+8 
           5090      3.08734e+8 
           5110      3.04375e+8 
           5130      2.99372e+8 
           5150      2.95659e+8 
           5170      2.92615e+8 
           5190      2.88826e+8 
           5210       2.8367e+8 
           5230      2.81312e+8 
           5250      2.77683e+8 
           5270      2.73789e+8 
           5290      2.70538e+8 
           5310      2.66874e+8 
           5330      2.63296e+8 
           5350      2.59489e+8 
           5370      2.56828e+8 
           5390       2.5337e+8 
           5410      2.50238e+8 
           5430      2.46482e+8 
           5450      2.43496e+8 
           5470       2.4041e+8 
           5490      2.37686e+8 
           5510      2.34773e+8 
           5530      2.31661e+8 
           5550      2.28979e+8 
           5570      2.25966e+8 
           5590      2.23339e+8 
           5610      2.20277e+8 
           5630      2.17871e+8 
           5650      2.14089e+8 
           5670      2.11292e+8 
           5690      2.08727e+8 
           5710      2.07013e+8 
           5730      2.04618e+8 
           5750       2.0175e+8 
           5770      1.99868e+8 
           5790      1.97433e+8 
           5810      1.95016e+8 
           5830      1.92516e+8 
           5850      1.90354e+8 
           5870      1.83757e+8 
           5890      1.84965e+8 
           5910      1.83435e+8 
           5930      1.81182e+8 
           5950      1.78785e+8 
           5970      1.77293e+8 
           5990      1.74851e+8 
           6010      1.73116e+8 
           6030      1.70985e+8 
           6050      1.69074e+8 
           6070      1.67185e+8 
           6090      1.65205e+8 
           6110      1.63358e+8 
           6130      1.61512e+8 
           6150      1.59228e+8 
           6170      1.57673e+8 
           6190      1.56007e+8 
           6210      1.54251e+8 
           6230      1.52525e+8 
           6250      1.50644e+8 
           6270      1.49023e+8 
           6290      1.47382e+8 
           6310      1.45607e+8 
           6330      1.44133e+8 
           6350      1.42003e+8 
           6370      1.40667e+8 
           6390      1.39299e+8 
           6410      1.37752e+8 
           6430       1.3635e+8 
           6450      1.34809e+8 
           6470      1.33148e+8 
           6490      1.31748e+8 
           6510      1.30397e+8 
           6530      1.28831e+8 
           6550      1.25587e+8 
           6570      1.13277e+8 
           6590      1.23807e+8 
           6610      1.23446e+8 
           6630      1.22206e+8 
           6650      1.20901e+8 
           6670      1.18805e+8 
           6690      1.17574e+8 
           6710      1.17159e+8 
           6730      1.15806e+8 
           6750      1.14724e+8 
           6770      1.13521e+8 
           6790      1.11922e+8 
           6810      1.11087e+8 
           6830      1.09888e+8 
           6850       1.0883e+8 
           6870      1.07694e+8 
           6890      1.06538e+8 
           6910      1.05402e+8 
           6930      1.04347e+8 
           6950      1.03326e+8 
           6970      1.02269e+8 
           6990      1.01191e+8 
           7010       1.0017e+8 
           7030      9.91431e+7 
           7050      9.81418e+7 
           7070      9.56956e+7 
           7090      9.61832e+7 
           7110      9.50019e+7 
           7130      9.40918e+7 
           7150      9.32861e+7 
           7170      9.23487e+7 
           7190      9.14567e+7 
           7210      9.05442e+7 
           7230      8.87106e+7 
           7250      8.86662e+7 
           7270      8.78726e+7 
           7290       8.6349e+7 
           7310       8.6138e+7 
           7330       8.5304e+7 
           7350      8.44778e+7 
           7370      8.36592e+7 
           7390      8.28414e+7 
           7410      8.20381e+7 
           7430       8.1208e+7 
           7450      8.04536e+7 
           7470      7.95305e+7 
           7490      7.88981e+7 
           7510      7.81245e+7 
           7530      7.73911e+7 
           7550      7.66776e+7 
           7570      7.59508e+7 
           7590       7.5211e+7 
           7610      7.44845e+7 
           7630      7.38033e+7 
           7650      7.31089e+7 
           7670      7.24272e+7 
           7690      7.17388e+7 
           7710      7.10628e+7 
           7730       7.0393e+7 
           7750      6.97479e+7 
           7770      6.87653e+7 
           7790      6.84623e+7 
           7810      6.77724e+7 
           7830      6.72054e+7 
           7850      6.65761e+7 
           7870      6.59522e+7 
           7890      6.52249e+7 
           7910       6.4745e+7 
           7930      6.40774e+7 
           7950      6.34037e+7 
           7970      6.28486e+7 
           7990      6.22216e+7 
           8010      6.17528e+7 
           8030      6.12235e+7 
           8050      6.07104e+7 
           8070      6.02016e+7 
           8090      5.95359e+7 
           8110       5.8962e+7 
           8130      5.86209e+7 
           8150      5.79763e+7 
           8170      5.76081e+7 
           8190      5.69789e+7 
           8210      5.62489e+7 
           8230      5.58535e+7 
           8250      5.54667e+7 
           8270      5.46083e+7 
           8290       5.4412e+7 
           8310      5.39497e+7 
           8330      5.34868e+7 
           8350      5.27759e+7 
           8370      5.23444e+7 
           8390       5.1979e+7 
           8410      5.14812e+7 
           8430      5.10023e+7 
           8450      5.02283e+7 
           8470      4.97451e+7 
           8490      4.99971e+7 
           8510      4.86319e+7 
           8530      4.94412e+7 
           8550      4.70813e+7 
           8570      4.93758e+7 
