# Kurucz ODFNEW /NOVER (2003)
# teff = 29000 K (value for the effective temperature for the model. Temperatures are given in K)
# logg = 4 log(cm/s2) (value for Log(G) for the model.)
# meta = -2.5  (value for the Metallicity for the model.)
# lh = 1.25  (l/Hp where l is the  mixing length of the convective element and Hp is the pressure scale height)
# vtur = 2 km/s (Microturbulence velocity)
# alpha = 0  (Alpha)
#
# column 1: WAVELENGTH (ANGSTROM), Wavelength in Angstrom
# column 2: FLUX (ERG/CM2/S/A), Flux in erg/cm2/s/A
          147.2      3.51574e-9 
            151      1.27815e-8 
          155.2      4.92514e-8 
          158.8      1.48242e-7 
            162      3.78352e-7 
            166      1.15622e-6 
          170.3       3.6379e-6 
          173.4      7.99879e-6 
          176.8      1.83579e-5 
          180.2      4.08645e-5 
          181.7      5.76387e-5 
          186.1     0.000152701 
            191      0.00042762 
          193.9     0.000767914 
          198.4      0.00183797 
          201.8      0.00345496 
            205      0.00613623 
          210.5       0.0158283 
          216.2       0.0400123 
          219.8       0.0700137 
            223        0.113385 
          226.8        0.197416 
            230         8.29731 
            234         23.1483 
            240         45.0676 
          246.5         90.7502 
          252.4         166.053 
          256.8         212.597 
            260          335.25 
            264          470.35 
          268.5         696.319 
          273.5         1051.94 
          278.5         1560.45 
            284         2384.69 
            290         3681.78 
            296         5553.59 
            301         7387.72 
            308         10610.8 
            318         22427.4 
            328         39366.4 
            338         67270.8 
            348          110582 
            357          168109 
            366          252030 
            375          363911 
            385          544641 
            395          789701 
            405      1.12209e+6 
            414      1.51911e+6 
            422      1.95352e+6 
            430       2.4845e+6 
            441      3.42383e+6 
            451      4.51147e+6 
            460       5.6805e+6 
            470      7.30964e+6 
            480      9.24917e+6 
            490       1.1576e+7 
            500      1.43543e+7 
            506      1.00845e+8 
            512      3.10444e+8 
            520      3.22547e+8 
            530      3.58517e+8 
            540      3.45787e+8 
            550      4.03941e+8 
            560      4.28638e+8 
            570      4.59137e+8 
            580      4.42915e+8 
            590       5.0503e+8 
            600      5.33543e+8 
            610      5.68364e+8 
            620      5.97935e+8 
            630      6.34754e+8 
            640      6.57115e+8 
            650      7.01617e+8 
            658      7.28332e+8 
            665      7.53382e+8 
            675      7.81199e+8 
            685      8.03518e+8 
            695      8.72048e+8 
            705      8.92432e+8 
            716       9.4951e+8 
            726      9.87503e+8 
            735      1.03383e+9 
            745      1.07699e+9 
            755      1.11811e+9 
            765      1.15911e+9 
            775      1.20842e+9 
            785       1.2581e+9 
            795      1.29764e+9 
            805      1.34367e+9 
            815      1.38424e+9 
            825      1.43424e+9 
            835      1.43176e+9 
            845      1.51837e+9 
            855      1.56041e+9 
            865      1.60797e+9 
            875      1.65581e+9 
            885      1.70071e+9 
            895      1.74395e+9 
            905      1.77706e+9 
            915      2.48278e+9 
            925     1.60638e+10 
            935     3.00125e+10 
            945     5.13063e+10 
            955     5.70449e+10 
            965     6.77423e+10 
            975       4.066e+10 
            985     6.59046e+10 
            995     6.19495e+10 
           1005     6.40312e+10 
           1015      6.1196e+10 
           1025      3.7776e+10 
           1035     5.80133e+10 
           1045     6.00925e+10 
           1055     5.88199e+10 
           1065     5.58306e+10 
           1075     5.53444e+10 
           1085     5.18936e+10 
           1095      5.3803e+10 
           1105     5.18339e+10 
           1115     5.07902e+10 
           1125     4.84654e+10 
           1135     4.91213e+10 
           1145     4.77153e+10 
           1155     4.69152e+10 
           1165     4.60355e+10 
           1175     4.09849e+10 
           1185     4.37381e+10 
           1195     4.24262e+10 
           1205     4.02668e+10 
           1215     2.49193e+10 
           1225     3.91912e+10 
           1235     3.94705e+10 
           1245     3.83577e+10 
           1255     3.80311e+10 
           1265     3.72721e+10 
           1275     3.65275e+10 
           1285      3.5781e+10 
           1295     3.42309e+10 
           1305     3.37945e+10 
           1315     3.36137e+10 
           1325     3.27799e+10 
           1335     3.17178e+10 
           1345     3.15686e+10 
           1355      3.0971e+10 
           1365     3.03025e+10 
           1375      2.9702e+10 
           1385     2.91234e+10 
           1395     2.78962e+10 
           1405     2.74452e+10 
           1415      2.7371e+10 
           1425     2.67785e+10 
           1435     2.63444e+10 
           1442     2.60186e+10 
           1447     2.57527e+10 
           1455     2.53368e+10 
           1465     2.48464e+10 
           1475     2.43635e+10 
           1485     2.39169e+10 
           1495     2.34379e+10 
           1505     2.29528e+10 
           1512      2.2665e+10 
           1517     2.24503e+10 
           1525     2.20809e+10 
           1535      2.1452e+10 
           1545     2.08327e+10 
           1555     2.04535e+10 
           1565     2.03437e+10 
           1575     2.00649e+10 
           1585     1.97345e+10 
           1595     1.93753e+10 
           1605     1.88553e+10 
           1615      1.8507e+10 
           1625     1.82114e+10 
           1635     1.77906e+10 
           1645     1.69791e+10 
           1655      1.7344e+10 
           1665     1.70466e+10 
           1672     1.68004e+10 
           1677      1.6762e+10 
           1685     1.65037e+10 
           1695      1.6202e+10 
           1705     1.58958e+10 
           1715     1.55419e+10 
           1725     1.52952e+10 
           1735     1.51194e+10 
           1745     1.48451e+10 
           1755     1.45884e+10 
           1765     1.43159e+10 
           1775     1.40976e+10 
           1785      1.3881e+10 
           1795     1.36473e+10 
           1805      1.3434e+10 
           1815     1.31938e+10 
           1825     1.29749e+10 
           1835      1.2769e+10 
           1845     1.25015e+10 
           1855     1.21974e+10 
           1865     1.20442e+10 
           1875     1.19289e+10 
           1885      1.1667e+10 
           1895     1.13983e+10 
           1905     1.13371e+10 
           1915     1.10557e+10 
           1925      1.0871e+10 
           1935     1.07619e+10 
           1945     1.06436e+10 
           1955     1.03772e+10 
           1967     1.02763e+10 
           1976     1.01617e+10 
           1984      9.99091e+9 
           1995      9.75609e+9 
           2005      9.69932e+9 
           2015       9.5671e+9 
           2025      9.42966e+9 
           2035      9.26717e+9 
           2045      9.12541e+9 
           2055      8.44367e+9 
           2065      8.24741e+9 
           2074      8.25805e+9 
           2078       8.1907e+9 
           2085      8.31388e+9 
           2095      8.38147e+9 
           2105      8.33944e+9 
           2115      8.23154e+9 
           2125      8.11854e+9 
           2135      7.99572e+9 
           2145      7.87598e+9 
           2155      7.78026e+9 
           2165      7.64072e+9 
           2175      7.56131e+9 
           2185        7.421e+9 
           2195      7.34689e+9 
           2205      7.24143e+9 
           2215      7.10547e+9 
           2225      7.03512e+9 
           2235      6.93422e+9 
           2245      6.83753e+9 
           2255      6.71034e+9 
           2265      6.64616e+9 
           2275      6.55321e+9 
           2285      6.46134e+9 
           2295      6.30388e+9 
           2305      6.25568e+9 
           2315      6.19599e+9 
           2325      6.11081e+9 
           2335      6.02618e+9 
           2345      5.94516e+9 
           2355      5.86441e+9 
           2365      5.78482e+9 
           2375      5.70622e+9 
           2385      5.60562e+9 
           2395      5.55312e+9 
           2405      5.47955e+9 
           2415      5.40623e+9 
           2425       5.3349e+9 
           2435      5.26359e+9 
           2445      5.19441e+9 
           2455       5.1263e+9 
           2465      5.05925e+9 
           2475      4.99292e+9 
           2485      4.92799e+9 
           2495      4.77334e+9 
           2505      4.80008e+9 
           2513       4.7027e+9 
           2518      4.71862e+9 
           2525      4.67849e+9 
           2535      4.61879e+9 
           2545      4.55726e+9 
           2555        4.501e+9 
           2565       4.4449e+9 
           2575      4.38885e+9 
           2585      4.33382e+9 
           2595      4.27951e+9 
           2605      4.24643e+9 
           2615      4.19325e+9 
           2625      4.14048e+9 
           2635      4.08442e+9 
           2645      4.03324e+9 
           2655      3.97935e+9 
           2665      3.92578e+9 
           2675      3.87474e+9 
           2685      3.84483e+9 
           2695      3.77688e+9 
           2705      3.75178e+9 
           2715      3.70646e+9 
           2725      3.63928e+9 
           2735      3.60572e+9 
           2745      3.57449e+9 
           2755      3.53201e+9 
           2765      3.46576e+9 
           2775      3.44865e+9 
           2785      3.40776e+9 
           2795      3.36432e+9 
           2805       3.3274e+9 
           2815      3.28921e+9 
           2825      3.22338e+9 
           2835      3.20129e+9 
           2845      3.17566e+9 
           2855       3.1388e+9 
           2865      3.10261e+9 
           2875      3.06698e+9 
           2885      3.03186e+9 
           2895      2.99715e+9 
           2910      2.94604e+9 
           2930      2.87968e+9 
           2950      2.79847e+9 
           2970      2.75245e+9 
           2990      2.69139e+9 
           3010        2.632e+9 
           3030       2.5746e+9 
           3050      2.51859e+9 
           3070       2.4641e+9 
           3090      2.41044e+9 
           3110      2.35948e+9 
           3130      2.31108e+9 
           3150      2.26209e+9 
           3170      2.21414e+9 
           3190      2.15162e+9 
           3210      2.11905e+9 
           3230      2.07776e+9 
           3250      2.03464e+9 
           3270      1.99489e+9 
           3290      1.95185e+9 
           3310      1.91475e+9 
           3330      1.87612e+9 
           3350      1.83556e+9 
           3370      1.80186e+9 
           3390      1.76614e+9 
           3410      1.73129e+9 
           3430       1.6908e+9 
           3450      1.65245e+9 
           3470       1.6247e+9 
           3490      1.59305e+9 
           3510      1.56644e+9 
           3530      1.53858e+9 
           3550       1.5094e+9 
           3570      1.48789e+9 
           3590      1.45157e+9 
           3610      1.42744e+9 
           3630      1.39763e+9 
           3640      1.39323e+9 
           3650      1.37458e+9 
           3670       1.3541e+9 
           3690      1.32474e+9 
           3710       1.2811e+9 
           3730      1.23277e+9 
           3750      1.27074e+9 
           3770      1.26079e+9 
           3790      1.30173e+9 
           3810      1.34252e+9 
           3830      1.19438e+9 
           3850      1.35221e+9 
           3870      1.34773e+9 
           3890       1.1323e+9 
           3910      1.31559e+9 
           3930      1.29184e+9 
           3950      1.27039e+9 
           3970      1.04893e+9 
           3990      1.22093e+9 
           4010      1.20414e+9 
           4030       1.1481e+9 
           4050      1.17237e+9 
           4070      1.14837e+9 
           4090      1.08221e+9 
           4110      9.63563e+8 
           4130       1.0794e+9 
           4150      1.06519e+9 
           4170      1.05313e+9 
           4190      1.03682e+9 
           4210      1.01853e+9 
           4230      1.00203e+9 
           4250      9.84971e+8 
           4270      9.67977e+8 
           4290      9.51992e+8 
           4310      9.33179e+8 
           4330      8.68337e+8 
           4350      7.99648e+8 
           4370      8.86306e+8 
           4390       8.5788e+8 
           4410      8.61235e+8 
           4430      8.44684e+8 
           4450      8.33627e+8 
           4470      7.93755e+8 
           4490      8.06806e+8 
           4510      7.94036e+8 
           4530      7.81349e+8 
           4550      7.68071e+8 
           4570      7.56637e+8 
           4590      7.44675e+8 
           4610      7.33016e+8 
           4630      7.21548e+8 
           4650      7.09605e+8 
           4670      6.99187e+8 
           4690      6.85409e+8 
           4710      6.70872e+8 
           4730        6.674e+8 
           4750       6.5715e+8 
           4770      6.47213e+8 
           4790       6.3737e+8 
           4810      6.27668e+8 
           4830      6.16167e+8 
           4850      5.81146e+8 
           4870      5.26203e+8 
           4890      5.87668e+8 
           4910      5.81609e+8 
           4930      5.62826e+8 
           4950      5.65052e+8 
           4970      5.56807e+8 
           4990      5.48661e+8 
           5010      5.35224e+8 
           5030      5.32807e+8 
           5050      5.22642e+8 
           5070      5.17516e+8 
           5090      5.10083e+8 
           5110       5.0278e+8 
           5130      4.95604e+8 
           5150      4.88552e+8 
           5170      4.81636e+8 
           5190       4.7484e+8 
           5210      4.68162e+8 
           5230        4.616e+8 
           5250      4.55151e+8 
           5270      4.48813e+8 
           5290      4.42599e+8 
           5310      4.36479e+8 
           5330      4.30464e+8 
           5350      4.24554e+8 
           5370      4.18758e+8 
           5390      4.13037e+8 
           5410      4.07118e+8 
           5430      4.01914e+8 
           5450      3.96497e+8 
           5470       3.9116e+8 
           5490      3.85928e+8 
           5510      3.80773e+8 
           5530      3.75708e+8 
           5550      3.70718e+8 
           5570      3.65814e+8 
           5590      3.60995e+8 
           5610      3.56259e+8 
           5630      3.51593e+8 
           5650      3.47008e+8 
           5670       3.4249e+8 
           5690      3.38015e+8 
           5710      3.33687e+8 
           5730      3.29388e+8 
           5750      3.25141e+8 
           5770      3.21001e+8 
           5790      3.16911e+8 
           5810       3.1288e+8 
           5830      3.08908e+8 
           5850      3.05016e+8 
           5870      2.93484e+8 
           5890       2.9713e+8 
           5910      2.93666e+8 
           5930      2.90007e+8 
           5950       2.8639e+8 
           5970      2.82846e+8 
           5990      2.79344e+8 
           6010      2.75902e+8 
           6030      2.72511e+8 
           6050      2.69178e+8 
           6070      2.65894e+8 
           6090      2.62658e+8 
           6110      2.59468e+8 
           6130      2.56333e+8 
           6150      2.53235e+8 
           6170       2.5019e+8 
           6190        2.472e+8 
           6210      2.44242e+8 
           6230      2.41328e+8 
           6250      2.38464e+8 
           6270      2.35642e+8 
           6290      2.32861e+8 
           6310      2.30119e+8 
           6330      2.27417e+8 
           6350      2.24753e+8 
           6370      2.22128e+8 
           6390       2.1954e+8 
           6410      2.16998e+8 
           6430      2.14484e+8 
           6450      2.12006e+8 
           6470      2.09573e+8 
           6490      2.07165e+8 
           6510      2.04792e+8 
           6530      2.01984e+8 
           6550      1.95282e+8 
           6570      1.76081e+8 
           6590      1.94541e+8 
           6610      1.93408e+8 
           6630      1.91266e+8 
           6650      1.89223e+8 
           6670      1.85524e+8 
           6690      1.83482e+8 
           6710      1.82967e+8 
           6730      1.80933e+8 
           6750      1.78937e+8 
           6770      1.76969e+8 
           6790      1.75021e+8 
           6810      1.73101e+8 
           6830      1.71208e+8 
           6850      1.69343e+8 
           6870      1.67496e+8 
           6890      1.65676e+8 
           6910       1.6389e+8 
           6930      1.62121e+8 
           6950      1.60379e+8 
           6970      1.58653e+8 
           6990      1.56952e+8 
           7010      1.55284e+8 
           7030      1.53631e+8 
           7050      1.52003e+8 
           7070       1.4819e+8 
           7090      1.48801e+8 
           7110      1.47235e+8 
           7130      1.45691e+8 
           7150      1.44163e+8 
           7170      1.42627e+8 
           7190      1.41171e+8 
           7210      1.39701e+8 
           7230       1.3823e+8 
           7250      1.36823e+8 
           7270      1.35416e+8 
           7290      1.33001e+8 
           7310      1.32626e+8 
           7330      1.31287e+8 
           7350      1.29945e+8 
           7370      1.28624e+8 
           7390      1.27315e+8 
           7410      1.26025e+8 
           7430      1.24753e+8 
           7450      1.23507e+8 
           7470      1.22266e+8 
           7490      1.21043e+8 
           7510      1.19792e+8 
           7530      1.18638e+8 
           7550      1.17455e+8 
           7570       1.1629e+8 
           7590      1.15135e+8 
           7610      1.13997e+8 
           7630      1.12876e+8 
           7650      1.11765e+8 
           7670      1.10671e+8 
           7690      1.09586e+8 
           7710      1.08518e+8 
           7730      1.07459e+8 
           7750      1.06416e+8 
           7770      1.05382e+8 
           7790       1.0437e+8 
           7810      1.03305e+8 
           7830      1.02366e+8 
           7850      1.01472e+8 
           7870      1.00501e+8 
           7890      9.94956e+7 
           7910      9.85957e+7 
           7930      9.76557e+7 
           7950      9.67298e+7 
           7970      9.56874e+7 
           7990      9.48077e+7 
           8010      9.38593e+7 
           8030      9.29716e+7 
           8050      9.21382e+7 
           8070       9.1306e+7 
           8090      9.03141e+7 
           8110      8.95541e+7 
           8130      8.88063e+7 
           8150      8.78548e+7 
           8170      8.71938e+7 
           8190      8.62799e+7 
           8210      8.53514e+7 
           8230      8.47758e+7 
           8250      8.40387e+7 
           8270      8.29001e+7 
           8290      8.24403e+7 
           8310      8.17166e+7 
           8330      8.09446e+7 
           8350      7.98549e+7 
           8370      7.93662e+7 
           8390      7.87474e+7 
           8410      7.80271e+7 
           8430      7.72544e+7 
           8450       7.6103e+7 
           8470      7.57703e+7 
           8490      7.50531e+7 
           8510      7.42169e+7 
           8530      7.37917e+7 
           8550      7.22152e+7 
           8570      7.32378e+7 
           8590       7.0472e+7 
