# Kurucz ODFNEW /NOVER (2003)
# teff = 22000 K (value for the effective temperature for the model. Temperatures are given in K)
# logg = 5 log(cm/s2) (value for Log(G) for the model.)
# meta = -1  (value for the Metallicity for the model.)
# lh = 1.25  (l/Hp where l is the  mixing length of the convective element and Hp is the pressure scale height)
# vtur = 2 km/s (Microturbulence velocity)
# alpha = 0.4  (Alpha)
#
# column 1: WAVELENGTH (ANGSTROM), Wavelength in Angstrom
# column 2: FLUX (ERG/CM2/S/A), Flux in erg/cm2/s/A
          147.2     3.03813e-17 
            151     1.60428e-16 
          155.2     9.18307e-16 
          158.8     3.80547e-15 
            162     1.27839e-14 
            166      5.4486e-14 
          170.3     2.40102e-13 
          173.4     6.68896e-13 
          176.8     1.97547e-12 
          180.2     5.60453e-12 
          181.7      8.7703e-12 
          186.1     3.13615e-11 
            191     1.21153e-10 
          193.9     2.61015e-10 
          198.4     8.22855e-10 
          201.8      1.89756e-9 
            205       4.0676e-9 
          210.5      1.42946e-8 
          216.2      4.92656e-8 
          219.8      1.04241e-7 
            223      1.98876e-7 
          226.8      4.18701e-7 
            230      2.31657e-6 
            234      5.53701e-6 
            240      1.56356e-5 
          246.5      4.50881e-5 
          252.4     0.000112938 
          256.8     0.000213643 
            260     0.000344239 
            264     0.000602748 
          268.5      0.00110706 
          273.5      0.00212246 
          278.5      0.00398333 
            284      0.00775309 
            290       0.0155364 
            296       0.0301892 
            301       0.0515274 
            308        0.104285 
            318        0.278237 
            328        0.686513 
            338         1.61123 
            348         3.58332 
            357         7.08564 
            366         13.5411 
            375         24.8833 
            385         47.3654 
            395         86.8778 
            405          154.53 
            414         253.298 
            422         384.358 
            430         572.857 
            441         973.374 
            451         1536.19 
            460         2269.63 
            470         3438.83 
            480          5108.9 
            490         7461.78 
            500         10713.9 
            506         82122.8 
            512          270004 
            520          343696 
            530          480159 
            540          545224 
            550          771504 
            560          938424 
            570      1.16903e+6 
            580      1.22661e+6 
            590      1.63343e+6 
            600      2.01446e+6 
            610      2.42763e+6 
            620       2.8242e+6 
            630      3.33428e+6 
            640      3.76978e+6 
            650      4.38718e+6 
            658      5.01683e+6 
            665      5.48638e+6 
            675      6.15476e+6 
            685      6.98036e+6 
            695      8.13397e+6 
            705      9.10245e+6 
            716      1.03725e+7 
            726       1.1524e+7 
            735      1.27874e+7 
            745      1.43314e+7 
            755      1.59323e+7 
            765      1.75366e+7 
            775      1.94428e+7 
            785      2.13863e+7 
            795      2.32395e+7 
            805      2.54195e+7 
            815      2.75855e+7 
            825      3.01179e+7 
            835      3.20214e+7 
            845      3.49607e+7 
            855      3.75727e+7 
            865      4.06922e+7 
            875      4.37589e+7 
            885      4.72181e+7 
            895      5.04924e+7 
            905      5.28325e+7 
            915      7.35662e+7 
            925      2.56909e+8 
            935      6.50359e+8 
            945      2.79017e+9 
            955      6.93502e+9 
            965     1.00887e+10 
            975      2.55425e+9 
            985     1.67602e+10 
            995      1.7683e+10 
           1005     1.87174e+10 
           1015     1.34156e+10 
           1025      1.69037e+9 
           1035     1.01122e+10 
           1045     1.95367e+10 
           1055     1.96907e+10 
           1065     1.71491e+10 
           1075     1.89837e+10 
           1085     1.74507e+10 
           1095     1.87145e+10 
           1105     1.69371e+10 
           1115     1.65589e+10 
           1125     1.53844e+10 
           1135     1.67194e+10 
           1145     1.49255e+10 
           1155     1.57851e+10 
           1165     1.57626e+10 
           1175     1.29675e+10 
           1185      1.4967e+10 
           1195     1.20944e+10 
           1205      7.31029e+9 
           1215      1.52876e+9 
           1225      6.87898e+9 
           1235     1.20686e+10 
           1245      1.2909e+10 
           1255     1.26065e+10 
           1265     1.22813e+10 
           1275     1.26692e+10 
           1285     1.24733e+10 
           1295     1.01356e+10 
           1305      9.76098e+9 
           1315     1.17255e+10 
           1325     1.11884e+10 
           1335     1.06775e+10 
           1345     1.07711e+10 
           1355     1.07124e+10 
           1365     1.01717e+10 
           1375     1.00546e+10 
           1385     1.00356e+10 
           1395      9.06114e+9 
           1405      9.23071e+9 
           1415      9.34398e+9 
           1425      9.21683e+9 
           1435       9.1201e+9 
           1442      9.19972e+9 
           1447      9.06824e+9 
           1455      8.88213e+9 
           1465      8.60647e+9 
           1475      8.44722e+9 
           1485       8.1753e+9 
           1495      8.10794e+9 
           1505      7.68187e+9 
           1512       7.4387e+9 
           1517      7.55132e+9 
           1525       7.4689e+9 
           1535      7.04302e+9 
           1545      7.12685e+9 
           1555      6.81424e+9 
           1565      6.84203e+9 
           1575      6.92795e+9 
           1585      6.79537e+9 
           1595      6.76966e+9 
           1605      6.55789e+9 
           1615      6.45296e+9 
           1625      6.37606e+9 
           1635      6.36905e+9 
           1645      6.24368e+9 
           1655      6.06489e+9 
           1665      6.14133e+9 
           1672       5.9341e+9 
           1677      6.03768e+9 
           1685      5.96775e+9 
           1695       5.8047e+9 
           1705      5.62497e+9 
           1715      5.43981e+9 
           1725      5.36147e+9 
           1735      5.36856e+9 
           1745      5.25932e+9 
           1755       5.2612e+9 
           1765      4.97573e+9 
           1775      5.00449e+9 
           1785      4.94029e+9 
           1795      4.96304e+9 
           1805       4.8912e+9 
           1815      4.72389e+9 
           1825      4.72995e+9 
           1835      4.62215e+9 
           1845      4.38205e+9 
           1855      4.29366e+9 
           1865       4.2877e+9 
           1875      4.34399e+9 
           1885       4.1039e+9 
           1895      3.93575e+9 
           1905      4.06354e+9 
           1915       3.9153e+9 
           1925      3.82949e+9 
           1935      3.86527e+9 
           1945      3.88139e+9 
           1955      3.68368e+9 
           1967      3.76984e+9 
           1976       3.8172e+9 
           1984      3.65545e+9 
           1995      3.55288e+9 
           2005      3.58481e+9 
           2015      3.55229e+9 
           2025      3.57572e+9 
           2035      3.44605e+9 
           2045      3.40937e+9 
           2055      3.29295e+9 
           2065      3.31432e+9 
           2074      3.33028e+9 
           2078      3.25195e+9 
           2085      3.25641e+9 
           2095       3.1569e+9 
           2105      3.17629e+9 
           2115      3.14599e+9 
           2125      3.14774e+9 
           2135      3.08691e+9 
           2145      3.02004e+9 
           2155      3.01731e+9 
           2165      2.97214e+9 
           2175      2.92998e+9 
           2185       2.8958e+9 
           2195      2.87479e+9 
           2205      2.82739e+9 
           2215      2.78756e+9 
           2225      2.73654e+9 
           2235      2.71776e+9 
           2245      2.69039e+9 
           2255      2.64287e+9 
           2265      2.62847e+9 
           2275      2.59209e+9 
           2285      2.57104e+9 
           2295      2.50613e+9 
           2305      2.49705e+9 
           2315      2.45641e+9 
           2325      2.43232e+9 
           2335      2.37485e+9 
           2345      2.33148e+9 
           2355      2.33509e+9 
           2365      2.28756e+9 
           2375      2.27188e+9 
           2385      2.23121e+9 
           2395      2.21945e+9 
           2405       2.1869e+9 
           2415      2.15784e+9 
           2425      2.15546e+9 
           2435      2.11523e+9 
           2445      2.09582e+9 
           2455      2.08247e+9 
           2465      2.04726e+9 
           2475       2.0281e+9 
           2485      2.00797e+9 
           2495       1.9516e+9 
           2505      1.96079e+9 
           2513       1.9145e+9 
           2518      1.92954e+9 
           2525       1.9055e+9 
           2535      1.87543e+9 
           2545      1.84897e+9 
           2555      1.85334e+9 
           2565      1.82375e+9 
           2575      1.81779e+9 
           2585      1.79857e+9 
           2595      1.77746e+9 
           2605      1.76412e+9 
           2615      1.74745e+9 
           2625      1.73001e+9 
           2635      1.70947e+9 
           2645      1.70583e+9 
           2655       1.6851e+9 
           2665      1.65465e+9 
           2675      1.64135e+9 
           2685      1.63422e+9 
           2695      1.59966e+9 
           2705      1.59768e+9 
           2715      1.57791e+9 
           2725      1.54565e+9 
           2735      1.54726e+9 
           2745      1.50821e+9 
           2755      1.49847e+9 
           2765      1.48041e+9 
           2775      1.48517e+9 
           2785      1.46671e+9 
           2795       1.4123e+9 
           2805      1.42504e+9 
           2815      1.42487e+9 
           2825      1.39228e+9 
           2835      1.36972e+9 
           2845      1.37719e+9 
           2855      1.36507e+9 
           2865      1.35349e+9 
           2875      1.33853e+9 
           2885      1.32569e+9 
           2895      1.31255e+9 
           2910      1.29207e+9 
           2930      1.26185e+9 
           2950      1.22943e+9 
           2970      1.21711e+9 
           2990      1.19115e+9 
           3010      1.16955e+9 
           3030      1.14797e+9 
           3050      1.12563e+9 
           3070      1.10406e+9 
           3090      1.08125e+9 
           3110      1.06178e+9 
           3130      1.04318e+9 
           3150      1.02348e+9 
           3170      1.00416e+9 
           3190      9.75281e+8 
           3210      9.66822e+8 
           3230         9.49e+8 
           3250      9.31685e+8 
           3270      9.15778e+8 
           3290      8.98031e+8 
           3310      8.83222e+8 
           3330      8.67379e+8 
           3350      8.50339e+8 
           3370       8.3676e+8 
           3390      8.22064e+8 
           3410      8.07687e+8 
           3430       7.9093e+8 
           3450      7.74729e+8 
           3470      7.63258e+8 
           3490      7.50205e+8 
           3510      7.38133e+8 
           3530      7.26467e+8 
           3550      7.14388e+8 
           3570      7.06436e+8 
           3590      6.89438e+8 
           3610      6.80548e+8 
           3630      6.67008e+8 
           3640      6.66362e+8 
           3650      6.57428e+8 
           3670      6.49527e+8 
           3690      6.39185e+8 
           3710      6.18517e+8 
           3730      5.92514e+8 
           3750      5.95614e+8 
           3770      5.86581e+8 
           3790      6.27065e+8 
           3810      6.64359e+8 
           3830      5.67962e+8 
           3850      6.98204e+8 
           3870      7.27958e+8 
           3890      5.29141e+8 
           3910      7.22356e+8 
           3930      7.27828e+8 
           3950      7.02681e+8 
           3970      4.95027e+8 
           3990      6.68194e+8 
           4010      6.86871e+8 
           4030      6.32703e+8 
           4050      6.77872e+8 
           4070      6.56739e+8 
           4090      5.65338e+8 
           4110      4.79964e+8 
           4130      6.09481e+8 
           4150      6.15192e+8 
           4170      6.13963e+8 
           4190      6.07493e+8 
           4210      5.98908e+8 
           4230      5.88794e+8 
           4250      5.78156e+8 
           4270      5.64219e+8 
           4290      5.56269e+8 
           4310       5.3828e+8 
           4330      4.54051e+8 
           4350      4.09291e+8 
           4370      5.08865e+8 
           4390      4.90965e+8 
           4410       5.0632e+8 
           4430       4.9717e+8 
           4450      4.91855e+8 
           4470      4.50603e+8 
           4490      4.73582e+8 
           4510      4.71076e+8 
           4530      4.63474e+8 
           4550       4.5617e+8 
           4570      4.49245e+8 
           4590      4.42657e+8 
           4610      4.35935e+8 
           4630      4.29224e+8 
           4650      4.21899e+8 
           4670      4.16479e+8 
           4690      4.10691e+8 
           4710      3.96766e+8 
           4730       3.9751e+8 
           4750      3.91248e+8 
           4770      3.86649e+8 
           4790      3.79979e+8 
           4810      3.72348e+8 
           4830      3.61002e+8 
           4850      3.13812e+8 
           4870      2.76055e+8 
           4890      3.42052e+8 
           4910      3.44865e+8 
           4930        3.302e+8 
           4950      3.38699e+8 
           4970      3.34819e+8 
           4990      3.30038e+8 
           5010      3.19288e+8 
           5030      3.20581e+8 
           5050      3.12418e+8 
           5070      3.12069e+8 
           5090      3.07702e+8 
           5110      3.03365e+8 
           5130      2.99143e+8 
           5150       2.9502e+8 
           5170      2.91177e+8 
           5190      2.87203e+8 
           5210      2.82518e+8 
           5230      2.79549e+8 
           5250      2.75769e+8 
           5270      2.72039e+8 
           5290      2.68465e+8 
           5310      2.64883e+8 
           5330      2.61268e+8 
           5350      2.57594e+8 
           5370      2.54529e+8 
           5390      2.51178e+8 
           5410      2.47844e+8 
           5430      2.44335e+8 
           5450      2.41328e+8 
           5470      2.38181e+8 
           5490      2.35274e+8 
           5510      2.32192e+8 
           5530      2.29222e+8 
           5550      2.26325e+8 
           5570      2.23403e+8 
           5590      2.20614e+8 
           5610      2.17703e+8 
           5630      2.15101e+8 
           5650      2.11906e+8 
           5670      2.09382e+8 
           5690      2.06947e+8 
           5710      2.04506e+8 
           5730      2.01991e+8 
           5750      1.99449e+8 
           5770      1.97039e+8 
           5790      1.94623e+8 
           5810      1.92203e+8 
           5830      1.89867e+8 
           5850      1.87558e+8 
           5870      1.77853e+8 
           5890      1.82131e+8 
           5910      1.80814e+8 
           5930      1.78664e+8 
           5950       1.7638e+8 
           5970      1.74407e+8 
           5990      1.72237e+8 
           6010        1.703e+8 
           6030       1.6827e+8 
           6050      1.66295e+8 
           6070      1.64332e+8 
           6090      1.62381e+8 
           6110      1.60512e+8 
           6130      1.58644e+8 
           6150      1.56678e+8 
           6170      1.54961e+8 
           6190      1.53195e+8 
           6210      1.51428e+8 
           6230      1.49681e+8 
           6250      1.47905e+8 
           6270      1.46263e+8 
           6290      1.44601e+8 
           6310       1.4292e+8 
           6330      1.41341e+8 
           6350      1.39359e+8 
           6370      1.37956e+8 
           6390      1.36605e+8 
           6410      1.35057e+8 
           6430      1.33598e+8 
           6450      1.32092e+8 
           6470      1.30602e+8 
           6490      1.28859e+8 
           6510      1.27055e+8 
           6530      1.24378e+8 
           6550      1.14804e+8 
           6570      1.00456e+8 
           6590      1.18359e+8 
           6610      1.19937e+8 
           6630      1.19215e+8 
           6650      1.18166e+8 
           6670      1.15376e+8 
           6690      1.14266e+8 
           6710      1.14615e+8 
           6730      1.13394e+8 
           6750      1.12202e+8 
           6770      1.11006e+8 
           6790      1.09765e+8 
           6810      1.08658e+8 
           6830      1.07506e+8 
           6850      1.06381e+8 
           6870      1.05268e+8 
           6890      1.04165e+8 
           6910      1.03074e+8 
           6930      1.01986e+8 
           6950      1.00947e+8 
           6970      9.99036e+7 
           6990      9.88624e+7 
           7010      9.78467e+7 
           7030      9.68334e+7 
           7050      9.58376e+7 
           7070      9.32235e+7 
           7090      9.39049e+7 
           7110      9.29525e+7 
           7130      9.20094e+7 
           7150       9.1068e+7 
           7170      9.01503e+7 
           7190      8.92559e+7 
           7210      8.83556e+7 
           7230      8.71828e+7 
           7250      8.65877e+7 
           7270      8.57342e+7 
           7290      8.41728e+7 
           7310      8.40371e+7 
           7330      8.32145e+7 
           7350      8.23927e+7 
           7370      8.15854e+7 
           7390      8.07857e+7 
           7410      7.99934e+7 
           7430      7.91949e+7 
           7450      7.84444e+7 
           7470      7.76739e+7 
           7490      7.69306e+7 
           7510       7.6174e+7 
           7530      7.54576e+7 
           7550      7.47346e+7 
           7570       7.4018e+7 
           7590       7.3308e+7 
           7610       7.2611e+7 
           7630      7.19202e+7 
           7650      7.12356e+7 
           7670      7.05636e+7 
           7690      6.98913e+7 
           7710      6.92376e+7 
           7730      6.85835e+7 
           7750      6.79414e+7 
           7770      6.70992e+7 
           7790      6.66744e+7 
           7810      6.60245e+7 
           7830      6.54419e+7 
           7850      6.48398e+7 
           7870      6.42431e+7 
           7890       6.3597e+7 
           7910      6.31133e+7 
           7930      6.25317e+7 
           7950      6.19075e+7 
           7970      6.13481e+7 
           7990      6.07581e+7 
           8010       6.0279e+7 
           8030      5.97103e+7 
           8050      5.91524e+7 
           8070      5.86166e+7 
           8090      5.80105e+7 
           8110      5.75243e+7 
           8130      5.70307e+7 
           8150      5.64852e+7 
           8170        5.603e+7 
           8190      5.54591e+7 
           8210       5.4874e+7 
           8230      5.44724e+7 
           8250      5.40476e+7 
           8270      5.33871e+7 
           8290      5.30969e+7 
           8310      5.26562e+7 
           8330      5.21767e+7 
           8350      5.15321e+7 
           8370      5.12162e+7 
           8390      5.08481e+7 
           8410      5.04047e+7 
           8430      4.99379e+7 
           8450       4.9172e+7 
           8470      4.90682e+7 
           8490      4.85451e+7 
           8510       4.8158e+7 
           8530      4.76871e+7 
           8550      4.70679e+7 
           8570      4.71137e+7 
           8590      4.57254e+7 
