# Kurucz ODFNEW /NOVER (2003)
# teff = 22000 K (value for the effective temperature for the model. Temperatures are given in K)
# logg = 5 log(cm/s2) (value for Log(G) for the model.)
# meta = 0.2  (value for the Metallicity for the model.)
# lh = 1.25  (l/Hp where l is the  mixing length of the convective element and Hp is the pressure scale height)
# vtur = 2 km/s (Microturbulence velocity)
# alpha = 0.4  (Alpha)
#
# column 1: WAVELENGTH (ANGSTROM), Wavelength in Angstrom
# column 2: FLUX (ERG/CM2/S/A), Flux in erg/cm2/s/A
          147.2     2.15159e-16 
            151     1.03616e-15 
          155.2     5.38575e-15 
          158.8     2.06371e-14 
            162     6.48697e-14 
            166     2.55314e-13 
          170.3     1.03274e-12 
          173.4     2.73016e-12 
          176.8     7.59479e-12 
          180.2     2.03389e-11 
          181.7     3.10217e-11 
          186.1     1.03354e-10 
            191     3.70926e-10 
          193.9      7.6625e-10 
          198.4      2.26492e-9 
          201.8      4.98396e-9 
            205      1.02347e-8 
          210.5      3.35237e-8 
          216.2      1.07831e-7 
          219.8      2.18877e-7 
            223       4.0285e-7 
          226.8      8.14127e-7 
            230      7.26183e-6 
            234      1.72816e-5 
            240      4.63953e-5 
          246.5     0.000127039 
          252.4     0.000305277 
          256.8      0.00055782 
            260     0.000888658 
            264      0.00151457 
          268.5      0.00270621 
          273.5      0.00501881 
          278.5      0.00919308 
            284       0.0177804 
            290        0.034501 
            296       0.0651073 
            301         0.10851 
            308        0.217732 
            318        0.561384 
            328         1.31108 
            338         3.03348 
            348         6.54075 
            357         14.9457 
            366         28.3934 
            375         49.7859 
            385         91.8002 
            395         164.218 
            405         282.274 
            414         454.394 
            422         666.623 
            430         980.454 
            441         1619.32 
            451         2509.66 
            460         3612.76 
            470         5380.29 
            480         7828.25 
            490         11277.6 
            500         15995.9 
            506          113181 
            512          733098 
            520          899929 
            530      1.21097e+6 
            540      1.36093e+6 
            550      1.96634e+6 
            560      2.33678e+6 
            570       2.9649e+6 
            580      3.05494e+6 
            590      4.12638e+6 
            600      4.90334e+6 
            610      5.99467e+6 
            620      6.72742e+6 
            630      7.64526e+6 
            640      7.82624e+6 
            650      7.16856e+6 
            658      9.96806e+6 
            665      1.15526e+7 
            675      1.29186e+7 
            685      1.41643e+7 
            695      1.74207e+7 
            705       1.8812e+7 
            716      2.15387e+7 
            726      2.33324e+7 
            735      2.53189e+7 
            745      2.87802e+7 
            755      3.17199e+7 
            765      3.48717e+7 
            775       3.8409e+7 
            785      4.19295e+7 
            795      4.44595e+7 
            805      4.78254e+7 
            815      5.11759e+7 
            825      5.60756e+7 
            835      5.56158e+7 
            845      6.21054e+7 
            855      6.62114e+7 
            865      7.14262e+7 
            875      7.67655e+7 
            885      8.37032e+7 
            895      8.90248e+7 
            905      8.99661e+7 
            915      1.20912e+8 
            925      4.65791e+8 
            935      1.12761e+9 
            945      3.39709e+9 
            955      6.81564e+9 
            965      9.65424e+9 
            975      1.71077e+9 
            985     1.23694e+10 
            995     1.15116e+10 
           1005     1.42699e+10 
           1015     1.22096e+10 
           1025       2.4768e+9 
           1035       8.2427e+9 
           1045     1.81471e+10 
           1055      1.7426e+10 
           1065     1.27066e+10 
           1075     1.61221e+10 
           1085      1.4601e+10 
           1095     1.67275e+10 
           1105     1.37721e+10 
           1115     1.21868e+10 
           1125     1.10403e+10 
           1135     1.52332e+10 
           1145     1.21752e+10 
           1155     1.37521e+10 
           1165     1.41798e+10 
           1175      9.56705e+9 
           1185     1.40824e+10 
           1195       9.4281e+9 
           1205      4.52846e+9 
           1215      2.42354e+9 
           1225      6.47203e+9 
           1235     1.23559e+10 
           1245      1.3091e+10 
           1255     1.27086e+10 
           1265     1.20591e+10 
           1275     1.27612e+10 
           1285     1.32132e+10 
           1295      7.26019e+9 
           1305      6.66932e+9 
           1315     1.23254e+10 
           1325     1.14562e+10 
           1335     1.06608e+10 
           1345      1.1243e+10 
           1355     1.12084e+10 
           1365      9.63506e+9 
           1375      9.64368e+9 
           1385      9.77182e+9 
           1395      7.44041e+9 
           1405      8.09099e+9 
           1415       8.6463e+9 
           1425      8.92036e+9 
           1435      8.95435e+9 
           1442      9.50428e+9 
           1447       9.3491e+9 
           1455      9.08518e+9 
           1465      8.39882e+9 
           1475      8.33675e+9 
           1485       8.0359e+9 
           1495       8.1022e+9 
           1505      7.13616e+9 
           1512      6.58592e+9 
           1517      6.93219e+9 
           1525       7.1467e+9 
           1535      6.24022e+9 
           1545      6.32889e+9 
           1555      6.03119e+9 
           1565      6.23908e+9 
           1575      6.65079e+9 
           1585      6.60267e+9 
           1595      6.66526e+9 
           1605      6.66261e+9 
           1615      6.61011e+9 
           1625       6.3812e+9 
           1635      6.69995e+9 
           1645      6.66398e+9 
           1655      6.31934e+9 
           1665      6.69755e+9 
           1672      6.43675e+9 
           1677      6.67344e+9 
           1685      6.67524e+9 
           1695      6.31138e+9 
           1705      5.98628e+9 
           1715      5.64295e+9 
           1725      5.55404e+9 
           1735      5.81396e+9 
           1745        5.629e+9 
           1755      5.72636e+9 
           1765      5.40722e+9 
           1775      5.28692e+9 
           1785      5.29583e+9 
           1795      5.57724e+9 
           1805      5.57181e+9 
           1815      5.00739e+9 
           1825      5.23137e+9 
           1835      4.95198e+9 
           1845      4.53998e+9 
           1855      4.47069e+9 
           1865      4.52284e+9 
           1875      4.84689e+9 
           1885      4.35009e+9 
           1895      4.07549e+9 
           1905      4.40196e+9 
           1915      4.12148e+9 
           1925        3.977e+9 
           1935      4.15565e+9 
           1945      4.18951e+9 
           1955      3.86623e+9 
           1967      4.19437e+9 
           1976      4.36803e+9 
           1984      4.01369e+9 
           1995      3.93831e+9 
           2005      4.05956e+9 
           2015      3.86869e+9 
           2025      4.12943e+9 
           2035      3.78765e+9 
           2045      3.84456e+9 
           2055      3.69243e+9 
           2065      3.75711e+9 
           2074      3.84474e+9 
           2078      3.58436e+9 
           2085      3.73616e+9 
           2095      3.51423e+9 
           2105      3.61058e+9 
           2115       3.6033e+9 
           2125      3.65231e+9 
           2135      3.53272e+9 
           2145      3.40774e+9 
           2155       3.5291e+9 
           2165      3.47921e+9 
           2175      3.42619e+9 
           2185      3.32807e+9 
           2195      3.36459e+9 
           2205      3.30578e+9 
           2215      3.24244e+9 
           2225      3.12524e+9 
           2235      3.15594e+9 
           2245      3.14822e+9 
           2255      3.02353e+9 
           2265      3.09007e+9 
           2275      3.05547e+9 
           2285      3.05606e+9 
           2295       2.8918e+9 
           2305      2.91753e+9 
           2315      2.83347e+9 
           2325      2.79654e+9 
           2335      2.67113e+9 
           2345      2.66039e+9 
           2355      2.66202e+9 
           2365      2.59746e+9 
           2375      2.59407e+9 
           2385      2.54719e+9 
           2395      2.58087e+9 
           2405      2.48885e+9 
           2415      2.48986e+9 
           2425      2.50159e+9 
           2435      2.40789e+9 
           2445      2.42819e+9 
           2455      2.41988e+9 
           2465      2.37233e+9 
           2475      2.33456e+9 
           2485      2.34223e+9 
           2495      2.20996e+9 
           2505      2.28654e+9 
           2513      2.17769e+9 
           2518      2.25497e+9 
           2525      2.18931e+9 
           2535      2.16398e+9 
           2545      2.08244e+9 
           2555      2.13854e+9 
           2565      2.10833e+9 
           2575      2.13329e+9 
           2585      2.12471e+9 
           2595      2.10663e+9 
           2605       2.0755e+9 
           2615      2.05729e+9 
           2625      2.03694e+9 
           2635      2.02303e+9 
           2645      2.02909e+9 
           2655      2.01426e+9 
           2665      1.93419e+9 
           2675      1.95561e+9 
           2685      1.94154e+9 
           2695      1.88655e+9 
           2705      1.87674e+9 
           2715      1.85446e+9 
           2725      1.82428e+9 
           2735      1.83761e+9 
           2745      1.75925e+9 
           2755      1.75856e+9 
           2765      1.74828e+9 
           2775      1.77004e+9 
           2785      1.74249e+9 
           2795      1.64517e+9 
           2805        1.688e+9 
           2815      1.70061e+9 
           2825      1.66659e+9 
           2835      1.59954e+9 
           2845      1.61741e+9 
           2855      1.61026e+9 
           2865      1.61551e+9 
           2875      1.59108e+9 
           2885      1.57667e+9 
           2895      1.56099e+9 
           2910      1.53359e+9 
           2930      1.50145e+9 
           2950      1.46012e+9 
           2970      1.44744e+9 
           2990      1.41044e+9 
           3010      1.38324e+9 
           3030      1.36869e+9 
           3050      1.33999e+9 
           3070      1.31611e+9 
           3090       1.2777e+9 
           3110      1.25988e+9 
           3130      1.23837e+9 
           3150       1.2151e+9 
           3170      1.18737e+9 
           3190      1.15206e+9 
           3210      1.14418e+9 
           3230      1.12316e+9 
           3250      1.10506e+9 
           3270      1.08521e+9 
           3290      1.06405e+9 
           3310       1.0469e+9 
           3330      1.02621e+9 
           3350      1.00546e+9 
           3370      9.88355e+8 
           3390      9.72138e+8 
           3410      9.55293e+8 
           3430      9.34034e+8 
           3450      9.14057e+8 
           3470      8.99452e+8 
           3490      8.83296e+8 
           3510      8.69192e+8 
           3530      8.55531e+8 
           3550      8.41285e+8 
           3570      8.32211e+8 
           3590      8.07793e+8 
           3610      7.97277e+8 
           3630      7.83541e+8 
           3640       7.8419e+8 
           3650      7.74611e+8 
           3670      7.65743e+8 
           3690      7.53813e+8 
           3710      7.27068e+8 
           3730      6.98145e+8 
           3750      6.98513e+8 
           3770      6.83408e+8 
           3790      7.24918e+8 
           3810      7.62952e+8 
           3830      6.54433e+8 
           3850      7.92218e+8 
           3870      8.18487e+8 
           3890      6.11123e+8 
           3910      8.19519e+8 
           3930      8.06662e+8 
           3950      7.92526e+8 
           3970      5.69986e+8 
           3990       7.5291e+8 
           4010      7.73017e+8 
           4030      7.10411e+8 
           4050      7.58558e+8 
           4070      7.22374e+8 
           4090      6.39387e+8 
           4110      5.48543e+8 
           4130      6.77529e+8 
           4150      6.82564e+8 
           4170      6.83399e+8 
           4190      6.77427e+8 
           4210      6.71983e+8 
           4230       6.5817e+8 
           4250      6.41499e+8 
           4270       6.1885e+8 
           4290      6.17125e+8 
           4310      5.96749e+8 
           4330      5.13266e+8 
           4350      4.63463e+8 
           4370      5.63193e+8 
           4390      5.48202e+8 
           4410      5.61256e+8 
           4430      5.53397e+8 
           4450      5.48529e+8 
           4470      5.04357e+8 
           4490      5.25064e+8 
           4510      5.27474e+8 
           4530       5.1642e+8 
           4550      5.09561e+8 
           4570      5.01863e+8 
           4590      4.93941e+8 
           4610      4.84222e+8 
           4630      4.75655e+8 
           4650      4.65735e+8 
           4670       4.6305e+8 
           4690      4.59092e+8 
           4710        4.372e+8 
           4730      4.40533e+8 
           4750      4.33942e+8 
           4770      4.33606e+8 
           4790      4.24771e+8 
           4810       4.1343e+8 
           4830      4.01939e+8 
           4850       3.5518e+8 
           4870       3.1251e+8 
           4890      3.83613e+8 
           4910      3.84822e+8 
           4930      3.67508e+8 
           4950      3.77091e+8 
           4970      3.74382e+8 
           4990      3.68134e+8 
           5010      3.51077e+8 
           5030      3.56093e+8 
           5050      3.44105e+8 
           5070      3.48093e+8 
           5090      3.42353e+8 
           5110      3.36533e+8 
           5130      3.29849e+8 
           5150      3.25474e+8 
           5170      3.23919e+8 
           5190      3.19161e+8 
           5210      3.11012e+8 
           5230      3.11103e+8 
           5250      3.06974e+8 
           5270      3.01962e+8 
           5290      2.99132e+8 
           5310      2.94812e+8 
           5330      2.89818e+8 
           5350       2.8501e+8 
           5370      2.83348e+8 
           5390      2.79538e+8 
           5410      2.75274e+8 
           5430      2.70784e+8 
           5450      2.67519e+8 
           5470      2.63375e+8 
           5490      2.61522e+8 
           5510      2.57989e+8 
           5530      2.54377e+8 
           5550      2.51495e+8 
           5570      2.47932e+8 
           5590      2.45257e+8 
           5610      2.41488e+8 
           5630      2.39312e+8 
           5650      2.33172e+8 
           5670      2.30229e+8 
           5690      2.28497e+8 
           5710      2.26726e+8 
           5730      2.24297e+8 
           5750      2.21087e+8 
           5770      2.18923e+8 
           5790      2.16177e+8 
           5810      2.13185e+8 
           5830      2.10494e+8 
           5850      2.08045e+8 
           5870      1.96855e+8 
           5890      2.00559e+8 
           5910      2.00078e+8 
           5930      1.97905e+8 
           5950      1.94491e+8 
           5970      1.93434e+8 
           5990      1.90422e+8 
           6010      1.88938e+8 
           6030      1.86485e+8 
           6050      1.84369e+8 
           6070      1.82184e+8 
           6090      1.79811e+8 
           6110       1.7793e+8 
           6130      1.75929e+8 
           6150      1.72266e+8 
           6170      1.71448e+8 
           6190      1.69772e+8 
           6210      1.67771e+8 
           6230      1.65832e+8 
           6250      1.63171e+8 
           6270      1.61758e+8 
           6290       1.5997e+8 
           6310      1.57831e+8 
           6330      1.56431e+8 
           6350      1.53289e+8 
           6370      1.52198e+8 
           6390      1.50924e+8 
           6410      1.49158e+8 
           6430      1.47895e+8 
           6450      1.45965e+8 
           6470      1.43993e+8 
           6490        1.424e+8 
           6510      1.40389e+8 
           6530      1.37569e+8 
           6550      1.27483e+8 
           6570      1.10885e+8 
           6590      1.30521e+8 
           6610      1.32552e+8 
           6630      1.31787e+8 
           6650      1.30527e+8 
           6670      1.27265e+8 
           6690      1.26109e+8 
           6710      1.26522e+8 
           6730      1.25072e+8 
           6750      1.23927e+8 
           6770      1.22637e+8 
           6790      1.20445e+8 
           6810      1.19836e+8 
           6830      1.18457e+8 
           6850      1.17445e+8 
           6870      1.16195e+8 
           6890      1.14926e+8 
           6910      1.13694e+8 
           6930      1.12364e+8 
           6950      1.11399e+8 
           6970      1.10248e+8 
           6990      1.09048e+8 
           7010      1.07836e+8 
           7030      1.06743e+8 
           7050      1.05577e+8 
           7070      1.02532e+8 
           7090      1.03558e+8 
           7110      1.02275e+8 
           7130      1.01258e+8 
           7150      1.00243e+8 
           7170      9.93177e+7 
           7190      9.83724e+7 
           7210      9.73854e+7 
           7230      9.50023e+7 
           7250      9.52315e+7 
           7270      9.44587e+7 
           7290       9.2651e+7 
           7310      9.25536e+7 
           7330      9.16426e+7 
           7350       9.0754e+7 
           7370      8.98529e+7 
           7390      8.89602e+7 
           7410      8.80895e+7 
           7430      8.70018e+7 
           7450      8.62909e+7 
           7470      8.52016e+7 
           7490       8.4539e+7 
           7510      8.37821e+7 
           7530      8.29522e+7 
           7550      8.22093e+7 
           7570      8.14337e+7 
           7590      8.05931e+7 
           7610      7.98382e+7 
           7630      7.90967e+7 
           7650      7.83425e+7 
           7670       7.7595e+7 
           7690      7.68479e+7 
           7710      7.61202e+7 
           7730      7.53674e+7 
           7750      7.46779e+7 
           7770      7.31458e+7 
           7790      7.32797e+7 
           7810       7.2559e+7 
           7830      7.19123e+7 
           7850      7.09167e+7 
           7870      7.03499e+7 
           7890      6.94369e+7 
           7910      6.92488e+7 
           7930      6.86603e+7 
           7950      6.76417e+7 
           7970      6.72908e+7 
           7990      6.62462e+7 
           8010      6.60567e+7 
           8030      6.54243e+7 
           8050      6.47798e+7 
           8070      6.42278e+7 
           8090       6.3594e+7 
           8110        6.296e+7 
           8130      6.24796e+7 
           8150      6.19351e+7 
           8170      6.14347e+7 
           8190      6.07419e+7 
           8210      6.00718e+7 
           8230      5.93853e+7 
           8250      5.92583e+7 
           8270      5.84101e+7 
           8290      5.82054e+7 
           8310      5.76801e+7 
           8330       5.7208e+7 
           8350      5.64534e+7 
           8370      5.60548e+7 
           8390      5.57344e+7 
           8410      5.52459e+7 
           8430      5.47137e+7 
           8450      5.35528e+7 
           8470      5.37886e+7 
           8490      5.31225e+7 
           8510      5.27483e+7 
           8530      5.22423e+7 
           8550      5.15447e+7 
           8570      5.16173e+7 
