# Kurucz ODFNEW /NOVER (2003)
# teff = 22000 K (value for the effective temperature for the model. Temperatures are given in K)
# logg = 5 log(cm/s2) (value for Log(G) for the model.)
# meta = 0  (value for the Metallicity for the model.)
# lh = 1.25  (l/Hp where l is the  mixing length of the convective element and Hp is the pressure scale height)
# vtur = 2 km/s (Microturbulence velocity)
# alpha = 0.4  (Alpha)
#
# column 1: WAVELENGTH (ANGSTROM), Wavelength in Angstrom
# column 2: FLUX (ERG/CM2/S/A), Flux in erg/cm2/s/A
          147.2     1.34443e-16 
            151     6.60239e-16 
          155.2     3.50281e-15 
          158.8     1.36458e-14 
            162     4.34867e-14 
            166     1.73982e-13 
          170.3      7.1667e-13 
          173.4     1.91349e-12 
          176.8     5.38756e-12 
          180.2     1.46018e-11 
          181.7     2.24007e-11 
          186.1     7.56435e-11 
            191     2.75404e-10 
          193.9     5.73002e-10 
          198.4      1.71489e-9 
          201.8      3.80705e-9 
            205      7.88384e-9 
          210.5       2.6166e-8 
          216.2      8.52715e-8 
          219.8      1.74453e-7 
            223      3.23314e-7 
          226.8      6.58413e-7 
            230      5.63178e-6 
            234      1.34596e-5 
            240      3.65101e-5 
          246.5     0.000101024 
          252.4     0.000244751 
          256.8     0.000450164 
            260     0.000718127 
            264      0.00123068 
          268.5      0.00221024 
          273.5      0.00412683 
          278.5      0.00759023 
            284       0.0146285 
            290       0.0285674 
            296       0.0541987 
            301       0.0907509 
            308        0.181133 
            318         0.47026 
            328         1.10998 
            338         2.57205 
            348         5.57578 
            357         11.8429 
            366         22.4844 
            375         39.9032 
            385         74.2632 
            395         133.256 
            405         231.332 
            414          374.43 
            422         553.954 
            430         816.722 
            441         1359.55 
            451         2120.34 
            460         3074.72 
            470         4600.91 
            480          6732.4 
            490         9731.58 
            500         13853.4 
            506          106398 
            512          545095 
            520          676497 
            530          918380 
            540      1.03878e+6 
            550      1.48898e+6 
            560      1.77973e+6 
            570      2.25493e+6 
            580      2.33429e+6 
            590      3.14057e+6 
            600       3.7696e+6 
            610      4.60975e+6 
            620      5.23589e+6 
            630      6.03821e+6 
            640      6.39833e+6 
            650      6.42063e+6 
            658      8.34825e+6 
            665      9.39215e+6 
            675      1.04571e+7 
            685      1.15919e+7 
            695      1.39952e+7 
            705      1.52814e+7 
            716      1.74823e+7 
            726      1.90603e+7 
            735      2.08049e+7 
            745      2.35829e+7 
            755      2.60758e+7 
            765      2.86932e+7 
            775      3.16638e+7 
            785       3.4685e+7 
            795      3.70045e+7 
            805      4.00201e+7 
            815      4.29649e+7 
            825      4.70806e+7 
            835      4.77871e+7 
            845      5.28194e+7 
            855      5.65281e+7 
            865      6.10491e+7 
            875      6.57238e+7 
            885      7.14378e+7 
            895      7.60913e+7 
            905       7.7694e+7 
            915      1.04601e+8 
            925      3.75151e+8 
            935      9.44468e+8 
            945      3.30327e+9 
            955      7.21012e+9 
            965     1.03966e+10 
            975      1.85039e+9 
            985     1.44697e+10 
            995     1.36331e+10 
           1005     1.62504e+10 
           1015     1.31647e+10 
           1025      2.19108e+9 
           1035      8.86975e+9 
           1045     1.95084e+10 
           1055      1.8852e+10 
           1065     1.43046e+10 
           1075     1.76247e+10 
           1085     1.59422e+10 
           1095     1.79397e+10 
           1105     1.49933e+10 
           1115     1.36177e+10 
           1125     1.24122e+10 
           1135     1.62003e+10 
           1145     1.31698e+10 
           1155     1.46792e+10 
           1165      1.5057e+10 
           1175     1.06225e+10 
           1185     1.47625e+10 
           1195     1.01185e+10 
           1205      5.09276e+9 
           1215      2.07371e+9 
           1225      6.38491e+9 
           1235     1.24409e+10 
           1245     1.32803e+10 
           1255     1.29031e+10 
           1265     1.21761e+10 
           1275     1.29445e+10 
           1285     1.32431e+10 
           1295      7.87728e+9 
           1305      7.25066e+9 
           1315     1.23352e+10 
           1325     1.15354e+10 
           1335     1.07029e+10 
           1345     1.12293e+10 
           1355      1.1147e+10 
           1365      9.83483e+9 
           1375      9.81106e+9 
           1385      9.94799e+9 
           1395      7.87018e+9 
           1405      8.43985e+9 
           1415      8.88188e+9 
           1425      9.04893e+9 
           1435       9.0354e+9 
           1442      9.50899e+9 
           1447      9.34137e+9 
           1455      9.08998e+9 
           1465      8.48658e+9 
           1475      8.36151e+9 
           1485      8.04017e+9 
           1495      8.10558e+9 
           1505      7.24726e+9 
           1512      6.72055e+9 
           1517      7.03926e+9 
           1525      7.19595e+9 
           1535      6.37997e+9 
           1545      6.49887e+9 
           1555      6.15832e+9 
           1565      6.31783e+9 
           1575      6.68815e+9 
           1585      6.60267e+9 
           1595      6.66882e+9 
           1605      6.59343e+9 
           1615      6.52344e+9 
           1625      6.32313e+9 
           1635      6.55987e+9 
           1645      6.50179e+9 
           1655      6.17437e+9 
           1665      6.50104e+9 
           1672       6.2524e+9 
           1677      6.44612e+9 
           1685      6.43109e+9 
           1695      6.11692e+9 
           1705      5.80757e+9 
           1715      5.49873e+9 
           1725      5.41224e+9 
           1735      5.61122e+9 
           1745       5.4428e+9 
           1755      5.52711e+9 
           1765      5.20321e+9 
           1775      5.13733e+9 
           1785       5.1193e+9 
           1795        5.331e+9 
           1805      5.30227e+9 
           1815      4.84591e+9 
           1825      5.01816e+9 
           1835      4.77878e+9 
           1845      4.40319e+9 
           1855      4.33405e+9 
           1865      4.37511e+9 
           1875      4.62775e+9 
           1885      4.19603e+9 
           1895      3.93858e+9 
           1905      4.21521e+9 
           1915      3.98136e+9 
           1925       3.8484e+9 
           1935      3.98943e+9 
           1945       4.0228e+9 
           1955      3.73248e+9 
           1967      3.99836e+9 
           1976      4.15075e+9 
           1984      3.83653e+9 
           1995      3.75629e+9 
           2005      3.84543e+9 
           2015      3.69583e+9 
           2025      3.90554e+9 
           2035      3.61299e+9 
           2045      3.64224e+9 
           2055      3.50179e+9 
           2065      3.56787e+9 
           2074      3.63358e+9 
           2078      3.42697e+9 
           2085      3.53208e+9 
           2095      3.34145e+9 
           2105      3.41911e+9 
           2115      3.40134e+9 
           2125      3.44816e+9 
           2135      3.34106e+9 
           2145      3.22859e+9 
           2155      3.32111e+9 
           2165      3.26888e+9 
           2175      3.21922e+9 
           2185      3.14287e+9 
           2195      3.16395e+9 
           2205      3.10401e+9 
           2215       3.0484e+9 
           2225      2.94794e+9 
           2235       2.9695e+9 
           2245       2.9547e+9 
           2255      2.85298e+9 
           2265      2.89702e+9 
           2275      2.86273e+9 
           2285      2.85951e+9 
           2295        2.729e+9 
           2305      2.73877e+9 
           2315      2.66919e+9 
           2325      2.63701e+9 
           2335      2.52886e+9 
           2345      2.50583e+9 
           2355      2.51163e+9 
           2365      2.44962e+9 
           2375       2.4452e+9 
           2385       2.3991e+9 
           2395      2.42364e+9 
           2405      2.34823e+9 
           2415      2.33916e+9 
           2425      2.34925e+9 
           2435      2.26919e+9 
           2445       2.2794e+9 
           2455      2.27087e+9 
           2465      2.22483e+9 
           2475      2.19385e+9 
           2485      2.19727e+9 
           2495      2.09479e+9 
           2505      2.14576e+9 
           2513      2.05433e+9 
           2518      2.11326e+9 
           2525      2.05789e+9 
           2535      2.03061e+9 
           2545      1.96856e+9 
           2555      2.01118e+9 
           2565       1.9807e+9 
           2575      1.99773e+9 
           2585      1.98816e+9 
           2595      1.96968e+9 
           2605      1.94365e+9 
           2615      1.92661e+9 
           2625      1.90606e+9 
           2635      1.89053e+9 
           2645      1.89829e+9 
           2655      1.88086e+9 
           2665      1.81718e+9 
           2675      1.82857e+9 
           2685      1.81644e+9 
           2695      1.76901e+9 
           2705      1.76368e+9 
           2715      1.73998e+9 
           2725      1.70861e+9 
           2735      1.71915e+9 
           2745       1.6514e+9 
           2755      1.64807e+9 
           2765       1.6376e+9 
           2775       1.6539e+9 
           2785      1.62893e+9 
           2795      1.54535e+9 
           2805      1.58041e+9 
           2815      1.58874e+9 
           2825      1.55547e+9 
           2835      1.50172e+9 
           2845      1.51673e+9 
           2855      1.50946e+9 
           2865      1.50968e+9 
           2875       1.4878e+9 
           2885      1.47492e+9 
           2895       1.4607e+9 
           2910      1.43581e+9 
           2930      1.40337e+9 
           2950      1.36605e+9 
           2970      1.35417e+9 
           2990      1.32039e+9 
           3010      1.29708e+9 
           3030      1.27985e+9 
           3050       1.2534e+9 
           3070      1.23013e+9 
           3090      1.19773e+9 
           3110       1.1791e+9 
           3130      1.15969e+9 
           3150       1.1375e+9 
           3170      1.11337e+9 
           3190      1.08009e+9 
           3210      1.07197e+9 
           3230      1.05256e+9 
           3250      1.03483e+9 
           3270      1.01672e+9 
           3290      9.96841e+8 
           3310      9.80842e+8 
           3330      9.62029e+8 
           3350      9.42654e+8 
           3370      9.27087e+8 
           3390       9.1146e+8 
           3410      8.95616e+8 
           3430      8.76204e+8 
           3450       8.5775e+8 
           3470       8.4448e+8 
           3490      8.29602e+8 
           3510      8.16322e+8 
           3530      8.03349e+8 
           3550      7.90138e+8 
           3570      7.81516e+8 
           3590      7.60147e+8 
           3610      7.50158e+8 
           3630      7.36568e+8 
           3640      7.36706e+8 
           3650      7.28574e+8 
           3670      7.20096e+8 
           3690      7.08797e+8 
           3710      6.84589e+8 
           3730      6.56824e+8 
           3750      6.57981e+8 
           3770      6.45346e+8 
           3790      6.86915e+8 
           3810      7.24309e+8 
           3830       6.2097e+8 
           3850      7.55238e+8 
           3870      7.83372e+8 
           3890      5.79331e+8 
           3910      7.82408e+8 
           3930      7.74929e+8 
           3950      7.58336e+8 
           3970      5.40944e+8 
           3990      7.20041e+8 
           4010        7.401e+8 
           4030      6.80163e+8 
           4050      7.28056e+8 
           4070      6.96971e+8 
           4090      6.10763e+8 
           4110      5.22471e+8 
           4130      6.50517e+8 
           4150      6.56097e+8 
           4170      6.56231e+8 
           4190       6.5041e+8 
           4210      6.44012e+8 
           4230       6.3162e+8 
           4250      6.17117e+8 
           4270      5.96721e+8 
           4290      5.93687e+8 
           4310       5.7442e+8 
           4330      4.90259e+8 
           4350      4.42758e+8 
           4370      5.42263e+8 
           4390       5.2578e+8 
           4410       5.3987e+8 
           4430      5.31513e+8 
           4450      5.26689e+8 
           4470      4.83297e+8 
           4490      5.04621e+8 
           4510      5.05619e+8 
           4530      4.95565e+8 
           4550      4.88506e+8 
           4570      4.81191e+8 
           4590      4.73896e+8 
           4610      4.65397e+8 
           4630       4.5743e+8 
           4650      4.48329e+8 
           4670      4.44808e+8 
           4690      4.40321e+8 
           4710      4.20966e+8 
           4730      4.23273e+8 
           4750      4.16828e+8 
           4770      4.15293e+8 
           4790      4.07252e+8 
           4810      3.97065e+8 
           4830      3.85677e+8 
           4850       3.3886e+8 
           4870      2.98564e+8 
           4890      3.67275e+8 
           4910      3.69055e+8 
           4930      3.52597e+8 
           4950      3.61992e+8 
           4970       3.5881e+8 
           4990      3.53141e+8 
           5010      3.38215e+8 
           5030      3.41978e+8 
           5050      3.31002e+8 
           5070      3.33892e+8 
           5090      3.28728e+8 
           5110      3.23404e+8 
           5130      3.17838e+8 
           5150      3.13414e+8 
           5170      3.11008e+8 
           5190      3.06518e+8 
           5210      2.99228e+8 
           5230      2.98625e+8 
           5250      2.94659e+8 
           5270      2.90134e+8 
           5290      2.87042e+8 
           5310      2.83014e+8 
           5330      2.78467e+8 
           5350       2.7398e+8 
           5370      2.71969e+8 
           5390      2.68321e+8 
           5410       2.6441e+8 
           5430      2.60128e+8 
           5450      2.57042e+8 
           5470      2.53277e+8 
           5490      2.51135e+8 
           5510      2.47703e+8 
           5530      2.44362e+8 
           5550      2.41503e+8 
           5570      2.38169e+8 
           5590      2.35479e+8 
           5610      2.31948e+8 
           5630      2.29709e+8 
           5650      2.24427e+8 
           5670      2.21733e+8 
           5690      2.19886e+8 
           5710      2.17921e+8 
           5730       2.1545e+8 
           5750      2.12495e+8 
           5770      2.10255e+8 
           5790      2.07614e+8 
           5810      2.04837e+8 
           5830      2.02303e+8 
           5850       1.9991e+8 
           5870      1.89278e+8 
           5890      1.93121e+8 
           5910      1.92441e+8 
           5930      1.90288e+8 
           5950      1.87213e+8 
           5970      1.85855e+8 
           5990      1.83135e+8 
           6010      1.81543e+8 
           6030      1.79263e+8 
           6050      1.77195e+8 
           6070      1.75088e+8 
           6090      1.72864e+8 
           6110      1.71007e+8 
           6130      1.69051e+8 
           6150      1.66011e+8 
           6170      1.64907e+8 
           6190      1.63184e+8 
           6210      1.61275e+8 
           6230      1.59397e+8 
           6250      1.57067e+8 
           6270      1.55606e+8 
           6290      1.53837e+8 
           6310      1.51851e+8 
           6330      1.50414e+8 
           6350      1.47609e+8 
           6370      1.46432e+8 
           6390      1.45204e+8 
           6410      1.43492e+8 
           6430      1.42209e+8 
           6450      1.40423e+8 
           6470      1.38647e+8 
           6490      1.37007e+8 
           6510      1.35064e+8 
           6530      1.32321e+8 
           6550      1.22469e+8 
           6570       1.0701e+8 
           6590      1.25611e+8 
           6610      1.27525e+8 
           6630      1.26782e+8 
           6650       1.2562e+8 
           6670      1.22523e+8 
           6690      1.21387e+8 
           6710      1.21761e+8 
           6730      1.20431e+8 
           6750      1.19264e+8 
           6770      1.18001e+8 
           6790      1.16187e+8 
           6810      1.15384e+8 
           6830      1.14088e+8 
           6850      1.13037e+8 
           6870      1.11845e+8 
           6890      1.10649e+8 
           6910      1.09473e+8 
           6930      1.08206e+8 
           6950      1.07234e+8 
           6970      1.06131e+8 
           6990      1.04992e+8 
           7010      1.03857e+8 
           7030      1.02794e+8 
           7050      1.01704e+8 
           7070      9.88384e+7 
           7090      9.97205e+7 
           7110      9.86163e+7 
           7130       9.7634e+7 
           7150      9.65948e+7 
           7170      9.56756e+7 
           7190      9.47433e+7 
           7210      9.37981e+7 
           7230      9.17736e+7 
           7250      9.17912e+7 
           7270      9.09875e+7 
           7290      8.92838e+7 
           7310      8.91696e+7 
           7330       8.8291e+7 
           7350      8.74346e+7 
           7370      8.65653e+7 
           7390      8.57111e+7 
           7410      8.48717e+7 
           7430      8.38899e+7 
           7450      8.31686e+7 
           7470      8.22175e+7 
           7490      8.15104e+7 
           7510      8.07562e+7 
           7530      7.99757e+7 
           7550      7.92353e+7 
           7570      7.84884e+7 
           7590      7.77026e+7 
           7610       7.6976e+7 
           7630      7.62429e+7 
           7650      7.55165e+7 
           7670      7.47966e+7 
           7690      7.40895e+7 
           7710      7.33887e+7 
           7730       7.2669e+7 
           7750      7.20059e+7 
           7770      7.06622e+7 
           7790      7.06537e+7 
           7810       6.9965e+7 
           7830      6.93438e+7 
           7850      6.84774e+7 
           7870      6.78986e+7 
           7890      6.70768e+7 
           7910      6.68163e+7 
           7930       6.6228e+7 
           7950      6.53469e+7 
           7970      6.49363e+7 
           7990      6.40392e+7 
           8010      6.37844e+7 
           8030      6.31632e+7 
           8050      6.25242e+7 
           8070       6.2018e+7 
           8090      6.13664e+7 
           8110      6.08292e+7 
           8130      6.03194e+7 
           8150      5.97799e+7 
           8170      5.92956e+7 
           8190      5.86526e+7 
           8210      5.80262e+7 
           8230      5.74386e+7 
           8250      5.72158e+7 
           8270      5.64492e+7 
           8290      5.62045e+7 
           8310      5.57052e+7 
           8330      5.52372e+7 
           8350      5.45244e+7 
           8370      5.41566e+7 
           8390      5.38184e+7 
           8410      5.33497e+7 
           8430      5.28413e+7 
           8450      5.18027e+7 
           8470      5.19427e+7 
           8490      5.13288e+7 
           8510      5.09557e+7 
           8530      5.04607e+7 
           8550      4.97962e+7 
           8570      4.98518e+7 
           8590      4.83527e+7 
