# Kurucz ODFNEW /NOVER (2003)
# teff = 29000 K (value for the effective temperature for the model. Temperatures are given in K)
# logg = 5 log(cm/s2) (value for Log(G) for the model.)
# meta = -1.5  (value for the Metallicity for the model.)
# lh = 1.25  (l/Hp where l is the  mixing length of the convective element and Hp is the pressure scale height)
# vtur = 2 km/s (Microturbulence velocity)
# alpha = 0  (Alpha)
#
# column 1: WAVELENGTH (ANGSTROM), Wavelength in Angstrom
# column 2: FLUX (ERG/CM2/S/A), Flux in erg/cm2/s/A
          147.2     9.37032e-10 
            151      3.36365e-9 
          155.2      1.28637e-8 
          158.8      3.84357e-8 
            162      9.77294e-8 
            166      2.98351e-7 
          170.3      9.34157e-7 
          173.4      2.05382e-6 
          176.8      4.71927e-6 
          180.2      1.05052e-5 
          181.7      1.48113e-5 
          186.1      3.93087e-5 
            191     0.000110403 
          193.9     0.000198429 
          198.4     0.000475935 
          201.8     0.000897658 
            205      0.00159907 
          210.5      0.00414034 
          216.2       0.0105251 
          219.8        0.018491 
            223       0.0300337 
          226.8        0.052462 
            230         2.88971 
            234         7.07486 
            240         14.0718 
          246.5         28.6368 
          252.4         53.4387 
          256.8           76.07 
            260         112.038 
            264         160.149 
          268.5         240.981 
          273.5         371.113 
          278.5         562.066 
            284          877.88 
            290         1384.63 
            296         2140.73 
            301         3000.54 
            308         4507.38 
            318         9201.04 
            328         16484.4 
            338         29000.6 
            348         48755.5 
            357         76638.2 
            366          117705 
            375          171979 
            385          262268 
            395          386714 
            405          557452 
            414          767170 
            422          992193 
            430      1.27646e+6 
            441      1.78454e+6 
            451      2.38631e+6 
            460      3.02986e+6 
            470      3.95046e+6 
            480      5.04889e+6 
            490      6.39091e+6 
            500       8.0174e+6 
            506      3.81635e+7 
            512       1.5012e+8 
            520      1.63886e+8 
            530      1.92415e+8 
            540      1.89398e+8 
            550      2.32974e+8 
            560       2.5016e+8 
            570      2.76848e+8 
            580      2.68728e+8 
            590      3.14067e+8 
            600       3.3734e+8 
            610      3.66281e+8 
            620      3.88804e+8 
            630      4.17411e+8 
            640      4.29137e+8 
            650      4.67546e+8 
            658      4.91494e+8 
            665      5.12142e+8 
            675      5.28484e+8 
            685      5.47136e+8 
            695      6.08219e+8 
            705       6.2468e+8 
            716      6.71807e+8 
            726      6.98979e+8 
            735      7.33201e+8 
            745       7.7467e+8 
            755      8.09668e+8 
            765      8.44386e+8 
            775      8.84832e+8 
            785      9.27847e+8 
            795      9.57522e+8 
            805      9.95097e+8 
            815      1.02647e+9 
            825      1.07253e+9 
            835      1.06855e+9 
            845      1.13606e+9 
            855      1.16901e+9 
            865      1.21393e+9 
            875      1.25996e+9 
            885      1.30187e+9 
            895      1.33935e+9 
            905      1.36207e+9 
            915      1.54859e+9 
            925      6.15007e+9 
            935     1.40147e+10 
            945     3.54744e+10 
            955     4.84282e+10 
            965     6.56346e+10 
            975     2.59971e+10 
            985     7.29715e+10 
            995       6.827e+10 
           1005      7.2431e+10 
           1015     6.48089e+10 
           1025     2.28194e+10 
           1035      5.7855e+10 
           1045     7.00797e+10 
           1055     6.82362e+10 
           1065     6.21015e+10 
           1075      6.3566e+10 
           1085     5.73243e+10 
           1095     6.15699e+10 
           1105     5.89241e+10 
           1115     5.76143e+10 
           1125     5.31685e+10 
           1135     5.50286e+10 
           1145     5.16865e+10 
           1155      5.2021e+10 
           1165     5.08542e+10 
           1175     4.25484e+10 
           1185     4.74995e+10 
           1195     4.50036e+10 
           1205     3.88658e+10 
           1215      1.5712e+10 
           1225     3.74514e+10 
           1235     4.20269e+10 
           1245     4.11358e+10 
           1255     4.07794e+10 
           1265     3.98594e+10 
           1275      3.9371e+10 
           1285     3.84846e+10 
           1295     3.55158e+10 
           1305     3.55709e+10 
           1315     3.58249e+10 
           1325     3.44579e+10 
           1335     3.31848e+10 
           1345     3.30638e+10 
           1355     3.26782e+10 
           1365     3.15359e+10 
           1375     3.09733e+10 
           1385     3.02998e+10 
           1395     2.80627e+10 
           1405     2.79185e+10 
           1415     2.81161e+10 
           1425     2.73369e+10 
           1435     2.70286e+10 
           1442     2.68357e+10 
           1447     2.64724e+10 
           1455     2.59632e+10 
           1465     2.53116e+10 
           1475     2.47877e+10 
           1485     2.43013e+10 
           1495     2.37548e+10 
           1505     2.29096e+10 
           1512     2.24919e+10 
           1517     2.23668e+10 
           1525     2.19675e+10 
           1535     2.07949e+10 
           1545     2.03703e+10 
           1555     1.97695e+10 
           1565     1.99314e+10 
           1575     1.97915e+10 
           1585     1.94901e+10 
           1595     1.91561e+10 
           1605     1.84312e+10 
           1615     1.80058e+10 
           1625     1.78847e+10 
           1635     1.76412e+10 
           1645     1.69374e+10 
           1655     1.71088e+10 
           1665     1.68482e+10 
           1672     1.65093e+10 
           1677     1.66561e+10 
           1685     1.63338e+10 
           1695     1.59515e+10 
           1705     1.55693e+10 
           1715       1.515e+10 
           1725     1.48888e+10 
           1735     1.47815e+10 
           1745     1.44851e+10 
           1755     1.42801e+10 
           1765     1.38394e+10 
           1775     1.36481e+10 
           1785     1.35038e+10 
           1795     1.33246e+10 
           1805     1.31519e+10 
           1815     1.28061e+10 
           1825     1.26277e+10 
           1835     1.24065e+10 
           1845     1.18784e+10 
           1855     1.16149e+10 
           1865     1.15708e+10 
           1875     1.15238e+10 
           1885     1.09979e+10 
           1895     1.06304e+10 
           1905     1.07796e+10 
           1915     1.04116e+10 
           1925     1.01646e+10 
           1935     1.02065e+10 
           1945     1.01835e+10 
           1955      9.68973e+9 
           1967      9.78169e+9 
           1976      9.80568e+9 
           1984      9.48701e+9 
           1995      9.19233e+9 
           2005      9.24893e+9 
           2015      9.18686e+9 
           2025      9.10545e+9 
           2035      8.84361e+9 
           2045      8.70616e+9 
           2055      8.29763e+9 
           2065      8.16066e+9 
           2074      8.23204e+9 
           2078      8.02729e+9 
           2085      8.01802e+9 
           2095      7.87471e+9 
           2105       7.9565e+9 
           2115      7.90662e+9 
           2125      7.83038e+9 
           2135      7.69819e+9 
           2145      7.55092e+9 
           2155      7.47006e+9 
           2165        7.364e+9 
           2175      7.25192e+9 
           2185      7.14766e+9 
           2195      7.06047e+9 
           2205      6.95598e+9 
           2215      6.84916e+9 
           2225       6.7509e+9 
           2235      6.64666e+9 
           2245      6.56448e+9 
           2255      6.45408e+9 
           2265      6.37864e+9 
           2275      6.28891e+9 
           2285       6.2013e+9 
           2295      6.02213e+9 
           2305      6.01509e+9 
           2315      5.93638e+9 
           2325      5.85511e+9 
           2335        5.767e+9 
           2345      5.69709e+9 
           2355      5.62055e+9 
           2365      5.54355e+9 
           2375      5.46444e+9 
           2385      5.38063e+9 
           2395      5.31583e+9 
           2405      5.24586e+9 
           2415      5.17369e+9 
           2425      5.10843e+9 
           2435      5.03511e+9 
           2445      4.97075e+9 
           2455      4.90759e+9 
           2465      4.84231e+9 
           2475      4.77773e+9 
           2485      4.71489e+9 
           2495      4.54107e+9 
           2505      4.58852e+9 
           2513      4.49331e+9 
           2518      4.50959e+9 
           2525      4.47381e+9 
           2535      4.41648e+9 
           2545      4.34299e+9 
           2555       4.2978e+9 
           2565      4.24827e+9 
           2575      4.19556e+9 
           2585      4.14326e+9 
           2595      4.09114e+9 
           2605      4.06196e+9 
           2615      4.01079e+9 
           2625      3.96126e+9 
           2635      3.91041e+9 
           2645      3.86012e+9 
           2655      3.80945e+9 
           2665        3.752e+9 
           2675      3.70042e+9 
           2685      3.67735e+9 
           2695       3.5999e+9 
           2705      3.58461e+9 
           2715      3.54246e+9 
           2725      3.47024e+9 
           2735      3.45296e+9 
           2745       3.4138e+9 
           2755      3.37502e+9 
           2765      3.30398e+9 
           2775      3.29714e+9 
           2785      3.25714e+9 
           2795      3.19438e+9 
           2805      3.17365e+9 
           2815       3.1442e+9 
           2825      3.07072e+9 
           2835      3.03691e+9 
           2845      3.03538e+9 
           2855      2.99913e+9 
           2865      2.96501e+9 
           2875      2.93097e+9 
           2885      2.89743e+9 
           2895      2.86423e+9 
           2910      2.81454e+9 
           2930      2.75114e+9 
           2950      2.66518e+9 
           2970      2.62966e+9 
           2990      2.57062e+9 
           3010      2.51287e+9 
           3030      2.45979e+9 
           3050      2.40657e+9 
           3070      2.35469e+9 
           3090      2.29993e+9 
           3110      2.25451e+9 
           3130       2.2076e+9 
           3150      2.16132e+9 
           3170      2.11539e+9 
           3190      2.05078e+9 
           3210      2.02695e+9 
           3230      1.98503e+9 
           3250      1.94401e+9 
           3270      1.90628e+9 
           3290       1.8647e+9 
           3310      1.82999e+9 
           3330      1.79299e+9 
           3350      1.75378e+9 
           3370      1.72218e+9 
           3390      1.68825e+9 
           3410      1.65506e+9 
           3430      1.61536e+9 
           3450      1.57797e+9 
           3470      1.55195e+9 
           3490      1.52206e+9 
           3510      1.49458e+9 
           3530      1.46763e+9 
           3550       1.4407e+9 
           3570      1.42351e+9 
           3590      1.38428e+9 
           3610      1.36506e+9 
           3630       1.3337e+9 
           3640      1.33355e+9 
           3650      1.30878e+9 
           3670      1.29041e+9 
           3690      1.26774e+9 
           3710      1.22666e+9 
           3730      1.18701e+9 
           3750      1.17001e+9 
           3770      1.13465e+9 
           3790      1.17251e+9 
           3810      1.21725e+9 
           3830      1.06445e+9 
           3850      1.24978e+9 
           3870      1.27554e+9 
           3890      9.96564e+8 
           3910       1.2528e+9 
           3930      1.25047e+9 
           3950      1.21326e+9 
           3970      9.24775e+8 
           3990      1.15839e+9 
           4010      1.16682e+9 
           4030      1.08731e+9 
           4050      1.14274e+9 
           4070      1.11196e+9 
           4090      9.97534e+8 
           4110      8.69247e+8 
           4130      1.03951e+9 
           4150      1.03555e+9 
           4170      1.02963e+9 
           4190      1.01503e+9 
           4210        9.984e+8 
           4230      9.81296e+8 
           4250      9.63572e+8 
           4270      9.43554e+8 
           4290      9.27735e+8 
           4310      9.02982e+8 
           4330      7.97206e+8 
           4350       7.2692e+8 
           4370      8.54565e+8 
           4390      8.23358e+8 
           4410       8.3923e+8 
           4430      8.24854e+8 
           4450      8.13956e+8 
           4470      7.55084e+8 
           4490      7.86662e+8 
           4510      7.76366e+8 
           4530      7.63853e+8 
           4550      7.51221e+8 
           4570      7.39176e+8 
           4590      7.27402e+8 
           4610      7.16017e+8 
           4630      7.04748e+8 
           4650      6.91259e+8 
           4670      6.82656e+8 
           4690      6.71194e+8 
           4710      6.51835e+8 
           4730      6.51572e+8 
           4750      6.41221e+8 
           4770      6.32229e+8 
           4790      6.21854e+8 
           4810      6.10326e+8 
           4830      5.95222e+8 
           4850      5.37167e+8 
           4870      4.79583e+8 
           4890      5.65139e+8 
           4910      5.63951e+8 
           4930      5.41001e+8 
           4950      5.51153e+8 
           4970      5.43523e+8 
           4990      5.35483e+8 
           5010      5.19704e+8 
           5030      5.19883e+8 
           5050      5.08993e+8 
           5070      5.05014e+8 
           5090      4.97709e+8 
           5110      4.90546e+8 
           5130      4.83436e+8 
           5150      4.76506e+8 
           5170      4.69839e+8 
           5190      4.63204e+8 
           5210      4.56643e+8 
           5230      4.50264e+8 
           5250      4.43943e+8 
           5270      4.37731e+8 
           5290      4.31654e+8 
           5310      4.25656e+8 
           5330      4.19802e+8 
           5350      4.13998e+8 
           5370      4.08346e+8 
           5390      4.02754e+8 
           5410      3.97207e+8 
           5430      3.91871e+8 
           5450      3.86565e+8 
           5470      3.81377e+8 
           5490      3.76241e+8 
           5510      3.71219e+8 
           5530      3.66259e+8 
           5550      3.61399e+8 
           5570      3.56598e+8 
           5590      3.51893e+8 
           5610      3.47257e+8 
           5630      3.42703e+8 
           5650      3.38192e+8 
           5670      3.33701e+8 
           5690      3.29253e+8 
           5710      3.25171e+8 
           5730      3.20978e+8 
           5750      3.16789e+8 
           5770      3.12809e+8 
           5790      3.08808e+8 
           5810      3.04867e+8 
           5830      3.00972e+8 
           5850      2.97178e+8 
           5870       2.8278e+8 
           5890      2.88725e+8 
           5910      2.86095e+8 
           5930      2.82497e+8 
           5950      2.78962e+8 
           5970      2.75553e+8 
           5990       2.7211e+8 
           6010      2.68768e+8 
           6030      2.65455e+8 
           6050      2.62221e+8 
           6070      2.59013e+8 
           6090      2.55862e+8 
           6110      2.52747e+8 
           6130      2.49687e+8 
           6150      2.46641e+8 
           6170      2.43699e+8 
           6190      2.40779e+8 
           6210      2.37902e+8 
           6230      2.35057e+8 
           6250      2.32263e+8 
           6270      2.29509e+8 
           6290      2.26795e+8 
           6310       2.2412e+8 
           6330      2.21493e+8 
           6350      2.18876e+8 
           6370      2.16334e+8 
           6390       2.1382e+8 
           6410      2.11332e+8 
           6430       2.0889e+8 
           6450      2.06473e+8 
           6470      2.04065e+8 
           6490        2.017e+8 
           6510      1.98845e+8 
           6530       1.9542e+8 
           6550      1.84174e+8 
           6570      1.62972e+8 
           6590      1.86959e+8 
           6610      1.87511e+8 
           6630      1.86055e+8 
           6650      1.84256e+8 
           6670      1.79808e+8 
           6690      1.77885e+8 
           6710      1.78173e+8 
           6730      1.76184e+8 
           6750      1.74248e+8 
           6770      1.72325e+8 
           6790      1.70371e+8 
           6810       1.6856e+8 
           6830       1.6671e+8 
           6850      1.64895e+8 
           6870      1.63098e+8 
           6890      1.61319e+8 
           6910      1.59574e+8 
           6930      1.57862e+8 
           6950      1.56159e+8 
           6970      1.54489e+8 
           6990      1.52827e+8 
           7010      1.51197e+8 
           7030      1.49591e+8 
           7050      1.48001e+8 
           7070      1.43886e+8 
           7090      1.44889e+8 
           7110       1.4336e+8 
           7130      1.41853e+8 
           7150      1.40368e+8 
           7170      1.38889e+8 
           7190      1.37455e+8 
           7210      1.36026e+8 
           7230       1.3436e+8 
           7250      1.33211e+8 
           7270      1.31844e+8 
           7290      1.29329e+8 
           7310      1.29137e+8 
           7330       1.2783e+8 
           7350      1.26521e+8 
           7370      1.25239e+8 
           7390      1.23962e+8 
           7410      1.22711e+8 
           7430      1.21471e+8 
           7450      1.20256e+8 
           7470      1.19039e+8 
           7490      1.17854e+8 
           7510      1.16639e+8 
           7530      1.15515e+8 
           7550      1.14362e+8 
           7570      1.13226e+8 
           7590      1.12107e+8 
           7610      1.10992e+8 
           7630      1.09906e+8 
           7650      1.08823e+8 
           7670      1.07757e+8 
           7690        1.067e+8 
           7710      1.05659e+8 
           7730      1.04634e+8 
           7750      1.03612e+8 
           7770      1.02599e+8 
           7790      1.01619e+8 
           7810      1.00587e+8 
           7830      9.96744e+7 
           7850      9.88065e+7 
           7870      9.78548e+7 
           7890      9.68631e+7 
           7910      9.60066e+7 
           7930      9.50916e+7 
           7950      9.41846e+7 
           7970      9.31846e+7 
           7990      9.23647e+7 
           8010      9.14108e+7 
           8030      9.04827e+7 
           8050      8.96326e+7 
           8070      8.88013e+7 
           8090      8.78965e+7 
           8110      8.71599e+7 
           8130      8.64067e+7 
           8150      8.55521e+7 
           8170      8.48403e+7 
           8190       8.3949e+7 
           8210       8.3004e+7 
           8230      8.24175e+7 
           8250      8.16918e+7 
           8270      8.06141e+7 
           8290      8.01818e+7 
           8310      7.94963e+7 
           8330      7.87295e+7 
           8350      7.76828e+7 
           8370       7.7226e+7 
           8390      7.66388e+7 
           8410      7.59498e+7 
           8430      7.52294e+7 
           8450      7.40717e+7 
           8470      7.39061e+7 
           8490      7.30827e+7 
           8510      7.25627e+7 
           8530      7.17517e+7 
           8550      7.10556e+7 
           8570      7.07911e+7 
           8590      6.88791e+7 
