# Kurucz ODFNEW /NOVER (2003)
# teff = 8250 K (value for the effective temperature for the model. Temperatures are given in K)
# logg = 2 log(cm/s2) (value for Log(G) for the model.)
# meta = -4  (value for the Metallicity for the model.)
# lh = 1.25  (l/Hp where l is the  mixing length of the convective element and Hp is the pressure scale height)
# vtur = 2 km/s (Microturbulence velocity)
# alpha = 0.4  (Alpha)
#
# column 1: WAVELENGTH (ANGSTROM), Wavelength in Angstrom
# column 2: FLUX (ERG/CM2/S/A), Flux in erg/cm2/s/A
          147.2     1.73866e-35 
            151     1.65225e-35 
          155.2     1.56403e-35 
          158.8     1.49392e-35 
            162     1.43549e-35 
            166     1.36714e-35 
          170.3     1.29897e-35 
          173.4     1.25294e-35 
          176.8     1.20522e-35 
          180.2     1.16017e-35 
          181.7     1.14109e-35 
          186.1     1.08777e-35 
            191     1.03267e-35 
          193.9     1.00201e-35 
          198.4     9.57076e-36 
          201.8     9.25097e-36 
            205     8.96441e-36 
          210.5     8.50208e-36 
          216.2     8.05969e-36 
          219.8     7.79784e-36 
            223     7.57565e-36 
          226.8     7.32392e-36 
            230     7.12154e-36 
            234     6.88015e-36 
            240     6.54044e-36 
          246.5     6.20006e-36 
          252.4     5.91358e-36 
          256.8     5.71267e-36 
            260     5.57292e-36 
            264     5.40532e-36 
          268.5     5.22566e-36 
          273.5     5.03634e-36 
          278.5     4.85712e-36 
            284     3.97571e-23 
            290     2.34356e-22 
            296     1.15367e-21 
            301     4.11005e-21 
            308     2.25957e-20 
            318     2.24661e-19 
            328     1.93362e-18 
            338     1.45687e-17 
            348     9.74362e-17 
            357     4.89323e-16 
            366     2.26773e-15 
            375     9.72679e-15 
            385     4.51719e-14 
            395     1.93337e-13 
            405     7.68595e-13 
            414     2.51188e-12 
            422     6.88328e-12 
            430     1.81295e-11 
            441     6.47612e-11 
            451     1.94717e-10 
            460     5.02852e-10 
            470      1.38113e-9 
            480      3.62945e-9 
            490      9.16797e-9 
            500      2.22707e-8 
            506      7.87577e-8 
            512      1.60353e-7 
            520      3.06371e-7 
            530       6.7814e-7 
            540      1.41545e-6 
            550      2.94086e-6 
            560       5.8733e-6 
            570      1.14305e-5 
            580      2.13383e-5 
            590      4.02292e-5 
            600      7.29955e-5 
            610     0.000129653 
            620     0.000225734 
            630     0.000385538 
            640     0.000646713 
            650      0.00106626 
            658      0.00157213 
            665      0.00218997 
            675      0.00347215 
            685      0.00542399 
            695      0.00835547 
            705       0.0127058 
            716       0.0198537 
            726       0.0294121 
            735       0.0414816 
            745       0.0601457 
            755       0.0862739 
            765        0.122432 
            775        0.172061 
            785        0.239582 
            795        0.330519 
            805        0.452011 
            815        0.612999 
            825        0.824778 
            835         1.10119 
            845         1.45959 
            855          1.9211 
            865         2.51089 
            875         3.25996 
            885          4.2057 
            895         5.38927 
            905         6.86326 
            915         17.2093 
            925         69.9897 
            935          111.21 
            945         194.211 
            955         326.209 
            965         354.481 
            975         237.695 
            985         1266.53 
            995         9540.15 
           1005         1538.32 
           1015         615.105 
           1025         555.758 
           1035         995.538 
           1045         6848.59 
           1055          345277 
           1065      1.93057e+6 
           1075      3.72777e+6 
           1085      5.02199e+6 
           1095      4.76353e+6 
           1105      4.38799e+6 
           1115      3.54025e+6 
           1125      2.41446e+6 
           1135      1.67539e+6 
           1145          804306 
           1155          270156 
           1165         38843.6 
           1175         4887.08 
           1185          460185 
           1195         5643.98 
           1205          4169.9 
           1215         2933.75 
           1225         4869.33 
           1235         8428.11 
           1245         3773.55 
           1255         8120.48 
           1265         19699.5 
           1275          109680 
           1285          607818 
           1295      1.17413e+6 
           1305      2.06386e+6 
           1315      3.13392e+6 
           1325      4.47236e+6 
           1335      5.60309e+6 
           1345      7.08217e+6 
           1355      8.10183e+6 
           1365      9.40679e+6 
           1375      9.94356e+6 
           1385      1.01022e+7 
           1395      1.04087e+7 
           1405      1.27869e+7 
           1415      1.55315e+7 
           1425      1.65391e+7 
           1435      1.71509e+7 
           1442      1.82462e+7 
           1447      1.82714e+7 
           1455      1.90694e+7 
           1465      1.91645e+7 
           1475      2.00657e+7 
           1485      2.03704e+7 
           1495      2.09685e+7 
           1505      2.15673e+7 
           1512      2.19498e+7 
           1517      2.17709e+7 
           1525      2.20161e+7 
           1535      2.20436e+7 
           1545      2.24694e+7 
           1555      2.22904e+7 
           1565      2.11866e+7 
           1575      2.20832e+7 
           1585      2.21009e+7 
           1595      2.25043e+7 
           1605      2.21648e+7 
           1615      2.28488e+7 
           1625      2.30321e+7 
           1635      2.37053e+7 
           1645      2.44677e+7 
           1655      2.34412e+7 
           1665      2.51282e+7 
           1672      2.44641e+7 
           1677      2.49721e+7 
           1685      2.52876e+7 
           1695      2.51015e+7 
           1705      2.49103e+7 
           1715      2.52509e+7 
           1725      2.51375e+7 
           1735      2.54705e+7 
           1745      2.51287e+7 
           1755      2.53055e+7 
           1765      2.52046e+7 
           1775      2.52873e+7 
           1785      2.50225e+7 
           1795      2.52238e+7 
           1805      2.48075e+7 
           1815      2.48105e+7 
           1825      2.47554e+7 
           1835      2.48432e+7 
           1845      2.46145e+7 
           1855      2.47275e+7 
           1865      2.47154e+7 
           1875      2.46797e+7 
           1885      2.46295e+7 
           1895      2.45801e+7 
           1905      2.44203e+7 
           1915      2.44196e+7 
           1925      2.44014e+7 
           1935      2.40241e+7 
           1945      2.42886e+7 
           1955      2.42182e+7 
           1967      2.41485e+7 
           1976      2.40506e+7 
           1984      2.40015e+7 
           1995      2.39525e+7 
           2005      2.38341e+7 
           2015      2.36872e+7 
           2025      2.36238e+7 
           2035      2.36796e+7 
           2045      2.36081e+7 
           2055      2.32905e+7 
           2065      2.33173e+7 
           2074      2.34797e+7 
           2078      2.34627e+7 
           2085      2.34207e+7 
           2095      2.33607e+7 
           2105      2.33153e+7 
           2115      2.32494e+7 
           2125       2.3173e+7 
           2135      2.31159e+7 
           2145      2.31203e+7 
           2155      2.30498e+7 
           2165      2.28165e+7 
           2175      2.28461e+7 
           2185      2.28931e+7 
           2195      2.29188e+7 
           2205      2.27757e+7 
           2215      2.25536e+7 
           2225      2.25492e+7 
           2235      2.27423e+7 
           2245       2.2659e+7 
           2255      2.24555e+7 
           2265      2.23208e+7 
           2275      2.25006e+7 
           2285      2.24751e+7 
           2295      2.23733e+7 
           2305      2.24335e+7 
           2315      2.23744e+7 
           2325      2.23398e+7 
           2335      2.20694e+7 
           2345      2.15637e+7 
           2355      2.20894e+7 
           2365      2.15636e+7 
           2375      2.19421e+7 
           2385      2.13121e+7 
           2395      2.18149e+7 
           2405      2.18097e+7 
           2415       2.1778e+7 
           2425      2.21472e+7 
           2435       2.2052e+7 
           2445      2.20233e+7 
           2455      2.20899e+7 
           2465      2.19755e+7 
           2475      2.19748e+7 
           2485      2.19447e+7 
           2495       2.1797e+7 
           2505      2.20009e+7 
           2513      2.18414e+7 
           2518      2.19027e+7 
           2525      2.17843e+7 
           2535       2.1614e+7 
           2545      2.18028e+7 
           2555      2.19441e+7 
           2565      2.17029e+7 
           2575      2.17909e+7 
           2585      2.17551e+7 
           2595      2.17007e+7 
           2605      2.16344e+7 
           2615        2.158e+7 
           2625      2.15799e+7 
           2635      2.16448e+7 
           2645      2.19855e+7 
           2655      2.19714e+7 
           2665      2.18917e+7 
           2675      2.19079e+7 
           2685      2.19499e+7 
           2695      2.19221e+7 
           2705      2.19251e+7 
           2715      2.18099e+7 
           2725      2.17688e+7 
           2735      2.17983e+7 
           2745      2.13513e+7 
           2755      2.14795e+7 
           2765      2.17339e+7 
           2775      2.18862e+7 
           2785      2.18711e+7 
           2795      2.11738e+7 
           2805      2.15379e+7 
           2815      2.18871e+7 
           2825      2.18779e+7 
           2835      2.18232e+7 
           2845       2.1838e+7 
           2855      2.17376e+7 
           2865      2.17963e+7 
           2875      2.18222e+7 
           2885      2.18147e+7 
           2895      2.18409e+7 
           2910      2.18441e+7 
           2930      2.17724e+7 
           2950      2.17583e+7 
           2970      2.17964e+7 
           2990      2.17746e+7 
           3010      2.17869e+7 
           3030      2.17768e+7 
           3050      2.17614e+7 
           3070      2.17246e+7 
           3090      2.17323e+7 
           3110      2.17166e+7 
           3130      2.16969e+7 
           3150       2.1677e+7 
           3170       2.1666e+7 
           3190      2.16232e+7 
           3210      2.16281e+7 
           3230      2.15709e+7 
           3250      2.15862e+7 
           3270      2.15801e+7 
           3290      2.15625e+7 
           3310      2.15414e+7 
           3330       2.1508e+7 
           3350      2.14675e+7 
           3370      2.14496e+7 
           3390       2.1429e+7 
           3410      2.14178e+7 
           3430        2.139e+7 
           3450      2.13624e+7 
           3470      2.13321e+7 
           3490      2.13027e+7 
           3510      2.12719e+7 
           3530      2.12404e+7 
           3550      2.12072e+7 
           3570      2.11715e+7 
           3590      2.11365e+7 
           3610      2.11015e+7 
           3630      2.10638e+7 
           3640       2.1044e+7 
           3650      2.11557e+7 
           3670      2.08706e+7 
           3690      2.16228e+7 
           3710      2.75675e+7 
           3730      3.62002e+7 
           3750      5.57144e+7 
           3770      5.89815e+7 
           3790      6.99976e+7 
           3810      7.92356e+7 
           3830      6.36225e+7 
           3850      8.49354e+7 
           3870      9.07029e+7 
           3890      5.60435e+7 
           3910       8.8758e+7 
           3930      8.89936e+7 
           3950      8.68826e+7 
           3970      5.32506e+7 
           3990      8.36916e+7 
           4010      8.57007e+7 
           4030      8.47501e+7 
           4050      8.37429e+7 
           4070       8.2185e+7 
           4090      7.10485e+7 
           4110      5.49479e+7 
           4130      7.86394e+7 
           4150      7.85745e+7 
           4170      7.78551e+7 
           4190      7.69055e+7 
           4210      7.59534e+7 
           4230      7.50094e+7 
           4250      7.40882e+7 
           4270      7.31706e+7 
           4290      7.20621e+7 
           4310      7.05918e+7 
           4330      5.85743e+7 
           4350      4.97906e+7 
           4370      6.78105e+7 
           4390      6.77492e+7 
           4410      6.71748e+7 
           4430      6.63969e+7 
           4450      6.56073e+7 
           4470       6.4767e+7 
           4490      6.40474e+7 
           4510      6.33047e+7 
           4530      6.25615e+7 
           4550      6.18235e+7 
           4570       6.1105e+7 
           4590      6.03948e+7 
           4610      5.96964e+7 
           4630      5.90043e+7 
           4650      5.83253e+7 
           4670      5.76558e+7 
           4690      5.69939e+7 
           4710      5.63325e+7 
           4730      5.57023e+7 
           4750      5.50705e+7 
           4770      5.44474e+7 
           4790      5.37885e+7 
           4810      5.30213e+7 
           4830      5.19259e+7 
           4850      4.43715e+7 
           4870      3.58972e+7 
           4890      4.98166e+7 
           4910      5.00804e+7 
           4930      4.96935e+7 
           4950      4.92281e+7 
           4970      4.86894e+7 
           4990      4.81576e+7 
           5010      4.76238e+7 
           5030      4.71163e+7 
           5050       4.6605e+7 
           5070      4.61046e+7 
           5090      4.56078e+7 
           5110      4.51202e+7 
           5130      4.46374e+7 
           5150      4.41621e+7 
           5170      4.36872e+7 
           5190      4.32281e+7 
           5210      4.27761e+7 
           5230      4.23242e+7 
           5250      4.18821e+7 
           5270       4.1444e+7 
           5290      4.10128e+7 
           5310      4.05855e+7 
           5330      4.01661e+7 
           5350      3.97519e+7 
           5370      3.93414e+7 
           5390      3.89384e+7 
           5410      3.85404e+7 
           5430      3.81471e+7 
           5450      3.77586e+7 
           5470      3.73759e+7 
           5490      3.69979e+7 
           5510      3.66243e+7 
           5530      3.62564e+7 
           5550      3.58928e+7 
           5570      3.55335e+7 
           5590      3.51796e+7 
           5610      3.48299e+7 
           5630      3.44854e+7 
           5650      3.41437e+7 
           5670      3.38084e+7 
           5690      3.34757e+7 
           5710       3.3148e+7 
           5730      3.28241e+7 
           5750       3.2505e+7 
           5770      3.21895e+7 
           5790      3.18776e+7 
           5810      3.15692e+7 
           5830      3.12655e+7 
           5850      3.09662e+7 
           5870       3.0656e+7 
           5890      3.03765e+7 
           5910      3.00882e+7 
           5930       2.9802e+7 
           5950      2.95201e+7 
           5970      2.92412e+7 
           5990      2.89655e+7 
           6010      2.86937e+7 
           6030       2.8425e+7 
           6050      2.81601e+7 
           6070      2.78982e+7 
           6090      2.76391e+7 
           6110      2.73838e+7 
           6130      2.71312e+7 
           6150      2.68813e+7 
           6170      2.66341e+7 
           6190      2.63905e+7 
           6210      2.61494e+7 
           6230      2.59119e+7 
           6250      2.56769e+7 
           6270      2.54444e+7 
           6290      2.52143e+7 
           6310      2.49866e+7 
           6330      2.47622e+7 
           6350      2.45401e+7 
           6370      2.43203e+7 
           6390      2.41037e+7 
           6410      2.38894e+7 
           6430      2.36772e+7 
           6450      2.34672e+7 
           6470      2.32602e+7 
           6490      2.30044e+7 
           6510      2.27406e+7 
           6530      2.23329e+7 
           6550      2.02509e+7 
           6570      1.61628e+7 
           6590      2.14302e+7 
           6610      2.17137e+7 
           6630      2.16172e+7 
           6650      2.14848e+7 
           6670      2.13104e+7 
           6690      2.11285e+7 
           6710      2.09483e+7 
           6730      2.07691e+7 
           6750      2.05925e+7 
           6770      2.04167e+7 
           6790      2.02435e+7 
           6810       2.0072e+7 
           6830      1.99021e+7 
           6850      1.97347e+7 
           6870      1.95689e+7 
           6890      1.94046e+7 
           6910       1.9242e+7 
           6930      1.90816e+7 
           6950      1.89228e+7 
           6970      1.87656e+7 
           6990      1.86097e+7 
           7010      1.84562e+7 
           7030      1.83041e+7 
           7050      1.81534e+7 
           7070      1.80041e+7 
           7090      1.78569e+7 
           7110      1.77104e+7 
           7130       1.7566e+7 
           7150      1.74229e+7 
           7170      1.72819e+7 
           7190      1.71414e+7 
           7210      1.70029e+7 
           7230      1.68658e+7 
           7250      1.67298e+7 
           7270      1.65959e+7 
           7290      1.64624e+7 
           7310      1.63308e+7 
           7330      1.62005e+7 
           7350       1.6072e+7 
           7370      1.59439e+7 
           7390      1.58178e+7 
           7410      1.56927e+7 
           7430      1.55687e+7 
           7450      1.54459e+7 
           7470      1.53241e+7 
           7490      1.52041e+7 
           7510      1.50852e+7 
           7530      1.49673e+7 
           7550      1.48511e+7 
           7570      1.47352e+7 
           7590      1.46211e+7 
           7610      1.45079e+7 
           7630      1.43957e+7 
           7650      1.42851e+7 
           7670      1.41748e+7 
           7690      1.40662e+7 
           7710      1.39584e+7 
           7730      1.38516e+7 
           7750      1.37464e+7 
           7770      1.36395e+7 
           7790      1.35379e+7 
           7810      1.34353e+7 
           7830      1.33335e+7 
           7850      1.32327e+7 
           7870      1.31333e+7 
           7890      1.30341e+7 
           7910      1.29364e+7 
           7930        1.284e+7 
           7950      1.27439e+7 
           7970      1.26486e+7 
           7990      1.25547e+7 
           8010      1.24615e+7 
           8030      1.23691e+7 
           8050      1.22775e+7 
           8070      1.21867e+7 
           8090      1.20971e+7 
           8110      1.20078e+7 
           8130      1.19197e+7 
           8150      1.18323e+7 
           8170      1.17457e+7 
           8190      1.16597e+7 
           8210      1.16226e+7 
           8230      1.15456e+7 
           8250      1.14714e+7 
           8270       1.1395e+7 
           8290      1.13116e+7 
           8310      1.12136e+7 
           8330      1.11012e+7 
           8350      1.10146e+7 
           8370      1.08012e+7 
           8390      1.07433e+7 
           8410       1.0614e+7 
           8430      1.07699e+7 
           8450      1.07485e+7 
           8470       1.0158e+7 
           8490       1.1132e+7 
           8510      1.00274e+7 
           8530      1.13126e+7 
           8550       9.6828e+6 
           8570      1.15381e+7 
           8590      1.06165e+7 
