# Kurucz ODFNEW /NOVER (2003)
# teff = 23000 K (value for the effective temperature for the model. Temperatures are given in K)
# logg = 3 log(cm/s2) (value for Log(G) for the model.)
# meta = 0.5  (value for the Metallicity for the model.)
# lh = 1.25  (l/Hp where l is the  mixing length of the convective element and Hp is the pressure scale height)
# vtur = 2 km/s (Microturbulence velocity)
# alpha = 0.4  (Alpha)
#
# column 1: WAVELENGTH (ANGSTROM), Wavelength in Angstrom
# column 2: FLUX (ERG/CM2/S/A), Flux in erg/cm2/s/A
          147.2     5.76834e-17 
            151     2.86649e-16 
          155.2     1.54459e-15 
          158.8     6.11418e-15 
            162     1.97868e-14 
            166      8.0809e-14 
          170.3     3.39487e-13 
          173.4     9.26451e-13 
          176.8     2.66244e-12 
          180.2     7.36345e-12 
          181.7     1.13813e-11 
          186.1     3.94654e-11 
            191     1.48137e-10 
          193.9     3.14091e-10 
          198.4     9.67029e-10 
          201.8        2.191e-9 
            205      4.61847e-9 
          210.5      1.58385e-8 
          216.2      5.32778e-8 
          219.8      1.11127e-7 
            223       2.0952e-7 
          226.8      4.38637e-7 
            230      5.55808e-6 
            234       1.3503e-5 
            240      3.63766e-5 
          246.5     0.000101191 
          252.4     0.000247282 
          256.8     0.000454489 
            260     0.000759422 
            264      0.00127701 
          268.5      0.00234021 
          273.5      0.00442135 
          278.5      0.00815608 
            284       0.0170597 
            290       0.0333515 
            296       0.0639334 
            301        0.107159 
            308        0.231489 
            318         0.62032 
            328         1.46701 
            338         3.52182 
            348          7.7636 
            357         76.8983 
            366         216.224 
            375         343.738 
            385         637.536 
            395         1937.04 
            405         3079.52 
            414         5208.39 
            422         8433.49 
            430         12803.5 
            441         20273.7 
            451         27848.9 
            460         37279.5 
            470         56144.5 
            480           79486 
            490          111411 
            500          148171 
            506          649075 
            512      1.09107e+7 
            520      1.17212e+7 
            530      1.30871e+7 
            540      1.28386e+7 
            550      2.55205e+7 
            560      3.29554e+7 
            570      3.95201e+7 
            580      3.41173e+7 
            590       5.0991e+7 
            600      5.26751e+7 
            610      7.02118e+7 
            620      7.76029e+7 
            630      8.30551e+7 
            640      6.83585e+7 
            650      4.65896e+7 
            658      7.80895e+7 
            665      1.00771e+8 
            675      9.88984e+7 
            685      8.78426e+7 
            695      1.47073e+8 
            705      1.30878e+8 
            716      1.65225e+8 
            726      1.52092e+8 
            735      1.81515e+8 
            745      2.12113e+8 
            755      2.23126e+8 
            765      2.41619e+8 
            775      2.65155e+8 
            785      2.86601e+8 
            795      2.86077e+8 
            805      2.95483e+8 
            815      2.99104e+8 
            825      3.36343e+8 
            835      2.12267e+8 
            845      3.30645e+8 
            855      3.30567e+8 
            865      3.56245e+8 
            875      3.81677e+8 
            885      4.20257e+8 
            895      4.40826e+8 
            905      4.15084e+8 
            915      8.47031e+8 
            925      7.18213e+9 
            935     1.12848e+10 
            945     1.35766e+10 
            955     1.46326e+10 
            965     1.19448e+10 
            975      1.91498e+9 
            985      6.18237e+9 
            995      9.72013e+9 
           1005     1.39502e+10 
           1015     1.48776e+10 
           1025     1.26524e+10 
           1035     1.16143e+10 
           1045      1.9112e+10 
           1055     1.71687e+10 
           1065      1.1932e+10 
           1075     1.52195e+10 
           1085     1.38928e+10 
           1095      1.6199e+10 
           1105     1.34154e+10 
           1115      1.1262e+10 
           1125      7.35346e+9 
           1135     1.41117e+10 
           1145      1.3335e+10 
           1155     1.35922e+10 
           1165     1.32219e+10 
           1175      5.76708e+9 
           1185     1.21124e+10 
           1195     1.07659e+10 
           1205      3.93224e+9 
           1215      8.36513e+9 
           1225     1.17089e+10 
           1235     1.38171e+10 
           1245     1.29231e+10 
           1255      1.3031e+10 
           1265      1.3482e+10 
           1275     1.41508e+10 
           1285     1.39823e+10 
           1295      6.84191e+9 
           1305      8.52042e+9 
           1315     1.38435e+10 
           1325     1.28839e+10 
           1335     1.24303e+10 
           1345     1.28515e+10 
           1355     1.26447e+10 
           1365     1.11681e+10 
           1375     1.03911e+10 
           1385      8.57833e+9 
           1395      3.77731e+9 
           1405      5.14609e+9 
           1415      8.21148e+9 
           1425      8.79105e+9 
           1435      9.54033e+9 
           1442      9.87261e+9 
           1447      9.69888e+9 
           1455      9.21348e+9 
           1465      8.22662e+9 
           1475      8.84064e+9 
           1485      8.75751e+9 
           1495       8.5059e+9 
           1505      7.50274e+9 
           1512      6.63684e+9 
           1517      6.98654e+9 
           1525      7.25718e+9 
           1535      5.81556e+9 
           1545      5.37232e+9 
           1555      5.35658e+9 
           1565      6.08957e+9 
           1575      6.68602e+9 
           1585      6.85835e+9 
           1595      6.70184e+9 
           1605      6.95158e+9 
           1615      6.81232e+9 
           1625      6.64314e+9 
           1635      7.32242e+9 
           1645      7.45391e+9 
           1655      7.23042e+9 
           1665      7.45149e+9 
           1672       6.8983e+9 
           1677      8.09873e+9 
           1685      7.74629e+9 
           1695      7.15793e+9 
           1705      7.13719e+9 
           1715       6.5083e+9 
           1725      6.49788e+9 
           1735      6.89939e+9 
           1745      6.74173e+9 
           1755      6.77349e+9 
           1765      6.85912e+9 
           1775      6.16351e+9 
           1785      6.40903e+9 
           1795       6.7149e+9 
           1805      6.86838e+9 
           1815      5.83353e+9 
           1825      6.23353e+9 
           1835       6.0549e+9 
           1845      5.42502e+9 
           1855      5.58039e+9 
           1865      5.65144e+9 
           1875      6.02199e+9 
           1885      5.24143e+9 
           1895      4.85108e+9 
           1905      5.50588e+9 
           1915      4.96026e+9 
           1925      4.67117e+9 
           1935      5.16362e+9 
           1945      5.23554e+9 
           1955      4.58913e+9 
           1967      5.24264e+9 
           1976      5.46843e+9 
           1984      5.09451e+9 
           1995       4.9905e+9 
           2005      5.38082e+9 
           2015      5.28023e+9 
           2025      5.42251e+9 
           2035       4.8621e+9 
           2045        5.076e+9 
           2055      4.73563e+9 
           2065      4.64464e+9 
           2074      5.08191e+9 
           2078      4.41065e+9 
           2085      4.91924e+9 
           2095      4.59317e+9 
           2105      4.78616e+9 
           2115      4.90557e+9 
           2125      4.90189e+9 
           2135      4.85815e+9 
           2145      4.53694e+9 
           2155      4.82631e+9 
           2165      4.85368e+9 
           2175      4.81449e+9 
           2185       4.5622e+9 
           2195       4.7062e+9 
           2205      4.75845e+9 
           2215      4.64962e+9 
           2225      4.51044e+9 
           2235      4.43865e+9 
           2245      4.52163e+9 
           2255      4.34233e+9 
           2265      4.45145e+9 
           2275      4.37732e+9 
           2285      4.37178e+9 
           2295      3.61986e+9 
           2305      4.19534e+9 
           2315      4.05345e+9 
           2325      4.03733e+9 
           2335      3.87355e+9 
           2345      3.96643e+9 
           2355      3.94511e+9 
           2365      3.93216e+9 
           2375      3.83647e+9 
           2385      3.80668e+9 
           2395      3.75756e+9 
           2405      3.69622e+9 
           2415      3.66599e+9 
           2425      3.66439e+9 
           2435      3.55201e+9 
           2445      3.58654e+9 
           2455      3.58701e+9 
           2465      3.48629e+9 
           2475      3.37251e+9 
           2485      3.08931e+9 
           2495       2.0382e+9 
           2505      2.83942e+9 
           2513      3.00087e+9 
           2518      3.17054e+9 
           2525      3.18998e+9 
           2535      3.19933e+9 
           2545      2.99364e+9 
           2555      3.13524e+9 
           2565      3.06441e+9 
           2575      3.13076e+9 
           2585      3.06171e+9 
           2595      3.04739e+9 
           2605      3.03636e+9 
           2615      2.96195e+9 
           2625      2.95971e+9 
           2635      2.93951e+9 
           2645      2.90769e+9 
           2655      2.90239e+9 
           2665      2.72216e+9 
           2675      2.76723e+9 
           2685       2.7697e+9 
           2695      2.65084e+9 
           2705      2.55204e+9 
           2715      2.59082e+9 
           2725      2.62106e+9 
           2735      2.59573e+9 
           2745        2.535e+9 
           2755      2.52815e+9 
           2765      2.51049e+9 
           2775      2.54472e+9 
           2785      2.48874e+9 
           2795      2.37664e+9 
           2805      2.42791e+9 
           2815      2.43641e+9 
           2825      2.42669e+9 
           2835      2.30831e+9 
           2845      2.33717e+9 
           2855      2.27742e+9 
           2865      2.30107e+9 
           2875      2.27083e+9 
           2885      2.24954e+9 
           2895      2.19483e+9 
           2910      2.14112e+9 
           2930      2.14877e+9 
           2950      2.08449e+9 
           2970      2.05365e+9 
           2990      2.00301e+9 
           3010      1.88932e+9 
           3030      1.90624e+9 
           3050      1.89667e+9 
           3070      1.88451e+9 
           3090      1.77733e+9 
           3110      1.80265e+9 
           3130        1.745e+9 
           3150      1.73058e+9 
           3170      1.67612e+9 
           3190      1.65869e+9 
           3210      1.63278e+9 
           3230      1.58374e+9 
           3250      1.57326e+9 
           3270      1.52902e+9 
           3290      1.50186e+9 
           3310      1.47334e+9 
           3330      1.43827e+9 
           3350      1.41917e+9 
           3370      1.38449e+9 
           3390      1.37522e+9 
           3410       1.3511e+9 
           3430      1.32831e+9 
           3450      1.29748e+9 
           3470      1.27421e+9 
           3490      1.24675e+9 
           3510      1.22528e+9 
           3530      1.21799e+9 
           3550      1.19202e+9 
           3570      1.17078e+9 
           3590      1.13594e+9 
           3610      1.11737e+9 
           3630      1.10407e+9 
           3640      1.10182e+9 
           3650      1.08222e+9 
           3670      1.07124e+9 
           3690      1.03976e+9 
           3710      1.01347e+9 
           3730      1.00188e+9 
           3750      1.05744e+9 
           3770      1.03756e+9 
           3790      1.04877e+9 
           3810      1.07249e+9 
           3830      9.77618e+8 
           3850      1.04246e+9 
           3870      1.00367e+9 
           3890      9.38207e+8 
           3910      1.01175e+9 
           3930      9.69429e+8 
           3950      9.57874e+8 
           3970      8.66691e+8 
           3990      9.36967e+8 
           4010       9.2762e+8 
           4030      8.94451e+8 
           4050      8.89267e+8 
           4070      8.42023e+8 
           4090      8.09418e+8 
           4110       7.6271e+8 
           4130       8.1038e+8 
           4150      8.04732e+8 
           4170      8.05892e+8 
           4190      7.98196e+8 
           4210       7.9233e+8 
           4230      7.71675e+8 
           4250      7.47014e+8 
           4270      7.26292e+8 
           4290      7.11021e+8 
           4310      6.88193e+8 
           4330      6.65132e+8 
           4350      6.27713e+8 
           4370      6.60035e+8 
           4390      6.71041e+8 
           4410      6.55166e+8 
           4430      6.52144e+8 
           4450      6.39884e+8 
           4470      6.28533e+8 
           4490      6.26889e+8 
           4510      6.19489e+8 
           4530      6.12617e+8 
           4550      6.05642e+8 
           4570      5.94581e+8 
           4590      5.84296e+8 
           4610      5.67555e+8 
           4630      5.62206e+8 
           4650      5.37657e+8 
           4670      5.44428e+8 
           4690      5.42552e+8 
           4710      5.19954e+8 
           4730      5.26848e+8 
           4750      5.17428e+8 
           4770      5.21211e+8 
           4790      5.11318e+8 
           4810      4.99536e+8 
           4830      4.91919e+8 
           4850      4.80071e+8 
           4870      4.42604e+8 
           4890      4.73178e+8 
           4910      4.66863e+8 
           4930      4.55084e+8 
           4950      4.49784e+8 
           4970      4.51022e+8 
           4990      4.43132e+8 
           5010       4.2201e+8 
           5030      4.28101e+8 
           5050      4.19488e+8 
           5070      4.18852e+8 
           5090      4.11161e+8 
           5110      4.03909e+8 
           5130      3.94525e+8 
           5150      3.92318e+8 
           5170      3.89049e+8 
           5190      3.84658e+8 
           5210      3.77436e+8 
           5230      3.74004e+8 
           5250      3.69465e+8 
           5270      3.62501e+8 
           5290      3.59914e+8 
           5310      3.54201e+8 
           5330      3.50169e+8 
           5350      3.45002e+8 
           5370      3.41431e+8 
           5390      3.36049e+8 
           5410      3.32565e+8 
           5430       3.2745e+8 
           5450      3.22844e+8 
           5470      3.18737e+8 
           5490      3.14944e+8 
           5510      3.12128e+8 
           5530      3.06573e+8 
           5550      3.04453e+8 
           5570      2.99915e+8 
           5590      2.96616e+8 
           5610       2.9241e+8 
           5630      2.89516e+8 
           5650      2.83245e+8 
           5670      2.78285e+8 
           5690      2.73458e+8 
           5710      2.72598e+8 
           5730      2.70319e+8 
           5750      2.65297e+8 
           5770      2.64729e+8 
           5790      2.60824e+8 
           5810      2.57748e+8 
           5830      2.53544e+8 
           5850      2.51252e+8 
           5870      2.43497e+8 
           5890      2.42704e+8 
           5910      2.40773e+8 
           5930      2.37405e+8 
           5950      2.34173e+8 
           5970      2.34393e+8 
           5990      2.29176e+8 
           6010      2.28165e+8 
           6030      2.24395e+8 
           6050       2.2207e+8 
           6070      2.20343e+8 
           6090      2.17852e+8 
           6110      2.15258e+8 
           6130      2.13033e+8 
           6150      2.08622e+8 
           6170      2.06628e+8 
           6190      2.05246e+8 
           6210       2.0336e+8 
           6230      2.01163e+8 
           6250      1.97872e+8 
           6270      1.96008e+8 
           6290      1.94125e+8 
           6310      1.91222e+8 
           6330      1.89912e+8 
           6350      1.86615e+8 
           6370      1.85427e+8 
           6390       1.8329e+8 
           6410      1.81277e+8 
           6430      1.79641e+8 
           6450      1.77469e+8 
           6470      1.74267e+8 
           6490      1.72488e+8 
           6510      1.70808e+8 
           6530      1.68509e+8 
           6550      1.66041e+8 
           6570      1.50701e+8 
           6590      1.62305e+8 
           6610      1.61773e+8 
           6630      1.60361e+8 
           6650      1.58205e+8 
           6670      1.55776e+8 
           6690      1.54274e+8 
           6710      1.53598e+8 
           6730      1.51148e+8 
           6750      1.50543e+8 
           6770      1.48956e+8 
           6790      1.45571e+8 
           6810      1.45343e+8 
           6830      1.43516e+8 
           6850      1.42543e+8 
           6870      1.40956e+8 
           6890      1.39115e+8 
           6910      1.37088e+8 
           6930      1.36658e+8 
           6950       1.3535e+8 
           6970       1.3397e+8 
           6990      1.32433e+8 
           7010      1.31004e+8 
           7030      1.29574e+8 
           7050      1.28362e+8 
           7070      1.25157e+8 
           7090      1.25779e+8 
           7110      1.22352e+8 
           7130      1.21363e+8 
           7150      1.21864e+8 
           7170      1.20708e+8 
           7190      1.19564e+8 
           7210      1.18336e+8 
           7230      1.14944e+8 
           7250        1.154e+8 
           7270       1.1473e+8 
           7290      1.12741e+8 
           7310      1.12414e+8 
           7330      1.11163e+8 
           7350      1.10189e+8 
           7370      1.09169e+8 
           7390      1.08082e+8 
           7410      1.07019e+8 
           7430       1.0583e+8 
           7450      1.04808e+8 
           7470      1.02546e+8 
           7490      1.02536e+8 
           7510      1.01723e+8 
           7530       1.0048e+8 
           7550      9.98355e+7 
           7570      9.88945e+7 
           7590      9.78312e+7 
           7610      9.65826e+7 
           7630      9.59605e+7 
           7650      9.49959e+7 
           7670      9.42001e+7 
           7690      9.32457e+7 
           7710       9.2319e+7 
           7730      9.12618e+7 
           7750      9.06471e+7 
           7770      8.90267e+7 
           7790      8.89674e+7 
           7810      8.80862e+7 
           7830      8.73111e+7 
           7850      8.63777e+7 
           7870      8.52884e+7 
           7890      8.41969e+7 
           7910      8.38078e+7 
           7930      8.29423e+7 
           7950      8.21142e+7 
           7970      8.14713e+7 
           7990      8.06214e+7 
           8010      8.00079e+7 
           8030      7.93119e+7 
           8050      7.86857e+7 
           8070       7.8007e+7 
           8090      7.72246e+7 
           8110       7.5796e+7 
           8130      7.58795e+7 
           8150      7.51445e+7 
           8170      7.46078e+7 
           8190      7.31486e+7 
           8210      7.25803e+7 
           8230      7.16106e+7 
           8250      7.17398e+7 
           8270      6.99225e+7 
           8290      7.02872e+7 
           8310      6.97802e+7 
           8330      6.92609e+7 
           8350      6.83135e+7 
           8370      6.76433e+7 
           8390      6.72998e+7 
           8410       6.6522e+7 
           8430      6.60795e+7 
           8450      6.49229e+7 
           8470      6.45431e+7 
           8490      6.45739e+7 
           8510       6.2965e+7 
           8530      6.37833e+7 
           8550      6.11971e+7 
           8570      6.33072e+7 
