# Kurucz ODFNEW /NOVER (2003)
# teff = 29000 K (value for the effective temperature for the model. Temperatures are given in K)
# logg = 5 log(cm/s2) (value for Log(G) for the model.)
# meta = 0.2  (value for the Metallicity for the model.)
# lh = 1.25  (l/Hp where l is the  mixing length of the convective element and Hp is the pressure scale height)
# vtur = 2 km/s (Microturbulence velocity)
# alpha = 0  (Alpha)
#
# column 1: WAVELENGTH (ANGSTROM), Wavelength in Angstrom
# column 2: FLUX (ERG/CM2/S/A), Flux in erg/cm2/s/A
          147.2      1.16177e-9 
            151      3.73227e-9 
          155.2       1.2737e-8 
          158.8      3.47696e-8 
            162      8.20525e-8 
            166      2.29816e-7 
          170.3      6.59632e-7 
          173.4       1.3741e-6 
          176.8      2.98436e-6 
          180.2      6.30979e-6 
          181.7      8.69875e-6 
          186.1      2.17467e-5 
            191      5.76428e-5 
          193.9     0.000100402 
          198.4     0.000230464 
          201.8     0.000421946 
            205      0.00073267 
          210.5      0.00182531 
          216.2       0.0044853 
          219.8      0.00773639 
            223       0.0123862 
          226.8       0.0214979 
            230         1.86007 
            234         4.00487 
            240         7.78182 
          246.5          15.714 
          252.4         29.0162 
          256.8         42.8336 
            260         65.8441 
            264         95.1986 
          268.5          145.67 
          273.5         224.822 
          278.5         337.075 
            284         591.559 
            290         930.714 
            296         1436.21 
            301         2019.72 
            308         3421.12 
            318         7071.59 
            328         12415.7 
            338         22777.1 
            348         38925.3 
            357          136502 
            366          260712 
            375          356115 
            385          547284 
            395          986487 
            405      1.34371e+6 
            414      1.87976e+6 
            422      2.36085e+6 
            430      3.12916e+6 
            441      4.26976e+6 
            451      5.36364e+6 
            460       6.5349e+6 
            470      8.56518e+6 
            480      1.08462e+7 
            490      1.36591e+7 
            500      1.67645e+7 
            506      5.26876e+7 
            512      3.66506e+8 
            520      3.73567e+8 
            530      3.93601e+8 
            540      3.82272e+8 
            550      5.18977e+8 
            560      5.94971e+8 
            570      6.51467e+8 
            580      6.10561e+8 
            590      7.25634e+8 
            600      7.28637e+8 
            610      8.23135e+8 
            620      8.97192e+8 
            630      9.06799e+8 
            640      8.41369e+8 
            650      8.56179e+8 
            658      9.33201e+8 
            665      1.03471e+9 
            675      1.06861e+9 
            685      1.01275e+9 
            695      1.32457e+9 
            705      1.27506e+9 
            716      1.45061e+9 
            726      1.45574e+9 
            735      1.47435e+9 
            745      1.61925e+9 
            755      1.66527e+9 
            765      1.74252e+9 
            775      1.81344e+9 
            785      1.90619e+9 
            795      1.92488e+9 
            805      1.94276e+9 
            815      1.95464e+9 
            825      2.08694e+9 
            835      1.81096e+9 
            845      2.06709e+9 
            855      2.06627e+9 
            865      2.16514e+9 
            875      2.25061e+9 
            885      2.37214e+9 
            895      2.43385e+9 
            905      2.38574e+9 
            915      2.58569e+9 
            925      9.40563e+9 
            935     2.03192e+10 
            945     4.17458e+10 
            955     5.37527e+10 
            965     6.89438e+10 
            975     1.43812e+10 
            985      6.1117e+10 
            995     5.56404e+10 
           1005     6.28227e+10 
           1015     6.28525e+10 
           1025     2.89895e+10 
           1035     5.28717e+10 
           1045     7.48681e+10 
           1055     6.93058e+10 
           1065     5.47744e+10 
           1075     6.17958e+10 
           1085      5.5305e+10 
           1095       6.135e+10 
           1105     5.64836e+10 
           1115     5.51325e+10 
           1125     4.25509e+10 
           1135     5.41162e+10 
           1145     4.88044e+10 
           1155     4.91349e+10 
           1165     4.77537e+10 
           1175      2.8171e+10 
           1185     4.39555e+10 
           1195     4.14791e+10 
           1205       3.308e+10 
           1215     1.99146e+10 
           1225     3.61359e+10 
           1235     4.18318e+10 
           1245     4.03337e+10 
           1255     3.98083e+10 
           1265       4.082e+10 
           1275     4.18368e+10 
           1285     4.15875e+10 
           1295      3.2746e+10 
           1305     3.44869e+10 
           1315     4.01778e+10 
           1325     3.73419e+10 
           1335     3.62773e+10 
           1345     3.58357e+10 
           1355     3.56103e+10 
           1365     3.27632e+10 
           1375     3.16089e+10 
           1385      3.0504e+10 
           1395      2.2015e+10 
           1405     2.36646e+10 
           1415      2.7179e+10 
           1425     2.56505e+10 
           1435     2.68695e+10 
           1442     2.73919e+10 
           1447     2.69528e+10 
           1455     2.58671e+10 
           1465     2.39776e+10 
           1475     2.43583e+10 
           1485     2.40108e+10 
           1495     2.34143e+10 
           1505     2.11149e+10 
           1512     1.92308e+10 
           1517     1.96935e+10 
           1525     2.00447e+10 
           1535      1.6729e+10 
           1545     1.56984e+10 
           1555     1.53334e+10 
           1565     1.68382e+10 
           1575     1.78628e+10 
           1585     1.78945e+10 
           1595     1.77271e+10 
           1605     1.77117e+10 
           1615     1.69485e+10 
           1625     1.69602e+10 
           1635     1.76934e+10 
           1645     1.76167e+10 
           1655      1.7553e+10 
           1665     1.75888e+10 
           1672     1.65821e+10 
           1677     1.85771e+10 
           1685     1.77032e+10 
           1695     1.67698e+10 
           1705     1.62833e+10 
           1715      1.5492e+10 
           1725      1.4909e+10 
           1735     1.55086e+10 
           1745     1.52596e+10 
           1755     1.52048e+10 
           1765     1.49605e+10 
           1775     1.40331e+10 
           1785     1.42925e+10 
           1795     1.44716e+10 
           1805     1.45025e+10 
           1815     1.32018e+10 
           1825     1.35077e+10 
           1835     1.31237e+10 
           1845     1.19171e+10 
           1855     1.21853e+10 
           1865     1.23323e+10 
           1875     1.25515e+10 
           1885     1.12566e+10 
           1895      1.0516e+10 
           1905     1.12644e+10 
           1915     1.06602e+10 
           1925      9.99196e+9 
           1935     1.06804e+10 
           1945     1.09831e+10 
           1955      9.77617e+9 
           1967     1.05334e+10 
           1976     1.10455e+10 
           1984     1.01574e+10 
           1995     1.00107e+10 
           2005     1.02888e+10 
           2015     1.01999e+10 
           2025     1.03971e+10 
           2035      9.51734e+9 
           2045      9.61186e+9 
           2055      8.93333e+9 
           2065      8.88854e+9 
           2074       9.2232e+9 
           2078      8.49596e+9 
           2085      8.81936e+9 
           2095      8.45177e+9 
           2105      8.94929e+9 
           2115      8.97182e+9 
           2125      9.01523e+9 
           2135      8.81692e+9 
           2145      8.41557e+9 
           2155      8.67674e+9 
           2165      8.55095e+9 
           2175       8.4526e+9 
           2185      8.21285e+9 
           2195      8.28284e+9 
           2205      8.21641e+9 
           2215      8.05792e+9 
           2225      7.87151e+9 
           2235      7.71601e+9 
           2245      7.73562e+9 
           2255      7.49306e+9 
           2265      7.53573e+9 
           2275      7.41722e+9 
           2285      7.33512e+9 
           2295      6.64999e+9 
           2305      7.05622e+9 
           2315      6.89922e+9 
           2325      6.82648e+9 
           2335      6.67064e+9 
           2345      6.69724e+9 
           2355      6.61339e+9 
           2365      6.53851e+9 
           2375      6.36916e+9 
           2385      6.29586e+9 
           2395      6.21706e+9 
           2405      6.12808e+9 
           2415      6.05353e+9 
           2425      6.01864e+9 
           2435      5.84757e+9 
           2445      5.82914e+9 
           2455      5.79568e+9 
           2465      5.71329e+9 
           2475      5.61709e+9 
           2485      5.50212e+9 
           2495      4.68268e+9 
           2505      5.30457e+9 
           2513      5.05902e+9 
           2518      5.21833e+9 
           2525      5.23003e+9 
           2535      5.18111e+9 
           2545      5.00129e+9 
           2555      5.01034e+9 
           2565      4.94335e+9 
           2575      4.91708e+9 
           2585       4.8627e+9 
           2595      4.80622e+9 
           2605      4.75423e+9 
           2615      4.68384e+9 
           2625       4.6456e+9 
           2635       4.5951e+9 
           2645      4.51524e+9 
           2655      4.48263e+9 
           2665       4.3122e+9 
           2675      4.30329e+9 
           2685       4.2992e+9 
           2695      4.13441e+9 
           2705      4.05535e+9 
           2715      4.05349e+9 
           2725      4.03779e+9 
           2735      3.99568e+9 
           2745      3.92367e+9 
           2755      3.90184e+9 
           2765       3.8344e+9 
           2775      3.86273e+9 
           2785      3.79555e+9 
           2795      3.64937e+9 
           2805       3.6719e+9 
           2815      3.68356e+9 
           2825      3.61061e+9 
           2835      3.48656e+9 
           2845      3.54131e+9 
           2855      3.47412e+9 
           2865        3.455e+9 
           2875       3.4146e+9 
           2885      3.36997e+9 
           2895      3.32358e+9 
           2910      3.24603e+9 
           2930      3.20511e+9 
           2950      3.09691e+9 
           2970      3.05367e+9 
           2990       2.9731e+9 
           3010      2.86744e+9 
           3030      2.84206e+9 
           3050      2.79385e+9 
           3070      2.74889e+9 
           3090      2.63404e+9 
           3110      2.62278e+9 
           3130       2.5505e+9 
           3150       2.5069e+9 
           3170      2.43934e+9 
           3190      2.38334e+9 
           3210      2.35304e+9 
           3230      2.29279e+9 
           3250       2.2571e+9 
           3270      2.20209e+9 
           3290      2.15719e+9 
           3310      2.11587e+9 
           3330      2.06614e+9 
           3350      2.02757e+9 
           3370      1.98421e+9 
           3390      1.95326e+9 
           3410      1.91396e+9 
           3430      1.87178e+9 
           3450      1.82736e+9 
           3470      1.79312e+9 
           3490      1.75636e+9 
           3510      1.72481e+9 
           3530      1.69773e+9 
           3550      1.66419e+9 
           3570      1.64139e+9 
           3590      1.58793e+9 
           3610      1.56622e+9 
           3630      1.53592e+9 
           3640      1.53625e+9 
           3650      1.50146e+9 
           3670      1.48329e+9 
           3690       1.4576e+9 
           3710      1.40271e+9 
           3730      1.36298e+9 
           3750      1.34146e+9 
           3770      1.29544e+9 
           3790      1.33339e+9 
           3810      1.37751e+9 
           3830      1.21099e+9 
           3850      1.40124e+9 
           3870      1.40382e+9 
           3890      1.13153e+9 
           3910      1.40346e+9 
           3930      1.37721e+9 
           3950       1.3422e+9 
           3970       1.0489e+9 
           3990       1.2927e+9 
           4010      1.30219e+9 
           4030      1.21723e+9 
           4050      1.26332e+9 
           4070      1.19626e+9 
           4090       1.0921e+9 
           4110      9.72149e+8 
           4130      1.14256e+9 
           4150      1.14013e+9 
           4170       1.1383e+9 
           4190      1.12301e+9 
           4210      1.11303e+9 
           4230      1.08802e+9 
           4250      1.05361e+9 
           4270      1.02409e+9 
           4290      1.01072e+9 
           4310       9.7376e+8 
           4330      8.76455e+8 
           4350      8.05282e+8 
           4370      9.23808e+8 
           4390      9.14197e+8 
           4410      9.17547e+8 
           4430      9.12083e+8 
           4450      8.94886e+8 
           4470      8.41004e+8 
           4490      8.66156e+8 
           4510      8.60417e+8 
           4530      8.47035e+8 
           4550      8.34164e+8 
           4570      8.19988e+8 
           4590      8.05169e+8 
           4610      7.85027e+8 
           4630      7.71528e+8 
           4650      7.45165e+8 
           4670      7.50629e+8 
           4690      7.43128e+8 
           4710      7.12699e+8 
           4730      7.18707e+8 
           4750       7.0684e+8 
           4770      7.05413e+8 
           4790      6.92178e+8 
           4810      6.75817e+8 
           4830      6.58605e+8 
           4850      6.01422e+8 
           4870      5.37672e+8 
           4890      6.28977e+8 
           4910      6.26473e+8 
           4930      6.01731e+8 
           4950      6.08287e+8 
           4970      6.05216e+8 
           4990      5.95003e+8 
           5010      5.68754e+8 
           5030      5.76003e+8 
           5050      5.63044e+8 
           5070      5.61484e+8 
           5090        5.517e+8 
           5110      5.42629e+8 
           5130      5.30862e+8 
           5150      5.24346e+8 
           5170      5.20114e+8 
           5190      5.13707e+8 
           5210      5.05524e+8 
           5230       4.9891e+8 
           5250      4.91959e+8 
           5270      4.83959e+8 
           5290      4.78382e+8 
           5310      4.71324e+8 
           5330      4.65022e+8 
           5350      4.57801e+8 
           5370      4.52451e+8 
           5390      4.45831e+8 
           5410      4.39967e+8 
           5430      4.33831e+8 
           5450      4.27609e+8 
           5470      4.21781e+8 
           5490      4.16138e+8 
           5510      4.11286e+8 
           5530      4.04843e+8 
           5550      4.00389e+8 
           5570      3.94811e+8 
           5590      3.89821e+8 
           5610      3.84425e+8 
           5630      3.79654e+8 
           5650      3.73207e+8 
           5670      3.66688e+8 
           5690      3.60461e+8 
           5710      3.58437e+8 
           5730      3.54471e+8 
           5750      3.48671e+8 
           5770      3.46009e+8 
           5790      3.41184e+8 
           5810      3.36886e+8 
           5830      3.31752e+8 
           5850      3.28056e+8 
           5870      3.12825e+8 
           5890      3.16351e+8 
           5910       3.1472e+8 
           5930      3.10405e+8 
           5950      3.06342e+8 
           5970      3.04484e+8 
           5990      2.99178e+8 
           6010      2.96502e+8 
           6030      2.92207e+8 
           6050      2.88919e+8 
           6070      2.85863e+8 
           6090      2.82374e+8 
           6110      2.78863e+8 
           6130      2.75683e+8 
           6150      2.70865e+8 
           6170      2.68162e+8 
           6190      2.65517e+8 
           6210      2.62588e+8 
           6230      2.59517e+8 
           6250      2.55785e+8 
           6270      2.53016e+8 
           6290      2.50248e+8 
           6310      2.47027e+8 
           6330      2.44397e+8 
           6350      2.40888e+8 
           6370      2.38626e+8 
           6390      2.35723e+8 
           6410      2.32989e+8 
           6430      2.30457e+8 
           6450      2.27672e+8 
           6470      2.24053e+8 
           6490      2.21744e+8 
           6510      2.19121e+8 
           6530      2.15192e+8 
           6550      2.03668e+8 
           6570      1.79363e+8 
           6590       2.0515e+8 
           6610      2.06351e+8 
           6630      2.04945e+8 
           6650      2.02683e+8 
           6670      1.98065e+8 
           6690      1.95974e+8 
           6710      1.96163e+8 
           6730      1.93485e+8 
           6750      1.91918e+8 
           6770      1.89824e+8 
           6790       1.8615e+8 
           6810      1.85326e+8 
           6830      1.83257e+8 
           6850      1.81506e+8 
           6870      1.79493e+8 
           6890      1.77278e+8 
           6910      1.75117e+8 
           6930      1.73708e+8 
           6950      1.71867e+8 
           6970      1.70014e+8 
           6990      1.68155e+8 
           7010      1.66316e+8 
           7030      1.64479e+8 
           7050      1.62736e+8 
           7070      1.58191e+8 
           7090      1.59234e+8 
           7110       1.5696e+8 
           7130      1.55362e+8 
           7150      1.54207e+8 
           7170      1.52688e+8 
           7190       1.5114e+8 
           7210      1.49557e+8 
           7230      1.45855e+8 
           7250      1.46162e+8 
           7270       1.4491e+8 
           7290      1.42166e+8 
           7310       1.4189e+8 
           7330      1.40395e+8 
           7350      1.39011e+8 
           7370      1.37606e+8 
           7390      1.36193e+8 
           7410      1.34807e+8 
           7430      1.33393e+8 
           7450       1.3206e+8 
           7470      1.30105e+8 
           7490      1.29317e+8 
           7510      1.28041e+8 
           7530      1.26684e+8 
           7550      1.25558e+8 
           7570       1.2431e+8 
           7590      1.23048e+8 
           7610      1.21621e+8 
           7630       1.2059e+8 
           7650      1.19413e+8 
           7670      1.18246e+8 
           7690      1.17065e+8 
           7710      1.15888e+8 
           7730      1.14716e+8 
           7750      1.13679e+8 
           7770      1.12221e+8 
           7790      1.11478e+8 
           7810      1.10346e+8 
           7830      1.09328e+8 
           7850      1.08289e+8 
           7870      1.07082e+8 
           7890      1.05838e+8 
           7910      1.05111e+8 
           7930      1.04072e+8 
           7950      1.03102e+8 
           7970      1.02116e+8 
           7990      1.01116e+8 
           8010      1.00154e+8 
           8030      9.91413e+7 
           8050      9.82482e+7 
           8070      9.73569e+7 
           8090       9.6335e+7 
           8110      9.49096e+7 
           8130      9.46655e+7 
           8150      9.37478e+7 
           8170      9.29563e+7 
           8190      9.16267e+7 
           8210      9.07505e+7 
           8230      8.97482e+7 
           8250        8.938e+7 
           8270      8.77529e+7 
           8290      8.76808e+7 
           8310      8.69811e+7 
           8330      8.61784e+7 
           8350      8.50366e+7 
           8370      8.44479e+7 
           8390      8.38799e+7 
           8410      8.30659e+7 
           8430      8.23436e+7 
           8450      8.09623e+7 
           8470      8.08798e+7 
           8490      7.99608e+7 
           8510      7.93097e+7 
           8530      7.85188e+7 
           8550      7.77448e+7 
           8570      7.74029e+7 
           8590      7.54295e+7 
