# Kurucz ODFNEW /NOVER (2003)
# teff = 9500 K (value for the effective temperature for the model. Temperatures are given in K)
# logg = 2.5 log(cm/s2) (value for Log(G) for the model.)
# meta = -1.5  (value for the Metallicity for the model.)
# lh = 1.25  (l/Hp where l is the  mixing length of the convective element and Hp is the pressure scale height)
# vtur = 2 km/s (Microturbulence velocity)
# alpha = 0  (Alpha)
#
# column 1: WAVELENGTH (ANGSTROM), Wavelength in Angstrom
# column 2: FLUX (ERG/CM2/S/A), Flux in erg/cm2/s/A
          268.5     5.17272e-23 
          273.5     2.64282e-22 
          278.5     1.10446e-21 
            284     4.98797e-21 
            290      2.4095e-20 
            296     1.08896e-19 
            301      3.6564e-19 
            308       1.862e-18 
            318     1.67737e-17 
            328     1.31756e-16 
            338      9.1264e-16 
            348     5.64329e-15 
            357     2.65737e-14 
            366     1.15753e-13 
            375     4.68471e-13 
            385     2.04632e-12 
            395     8.27223e-12 
            405     3.11397e-11 
            414     9.70046e-11 
            422     2.55251e-10 
            430     6.47021e-10 
            441      2.19532e-9 
            451      6.31435e-9 
            460      1.56827e-8 
            470      4.12919e-8 
            480      1.04225e-7 
            490        2.529e-7 
            500      5.91028e-7 
            506      1.22904e-6 
            512      2.16199e-6 
            520      3.98993e-6 
            530      8.40017e-6 
            540      1.69864e-5 
            550      3.38023e-5 
            560      6.51876e-5 
            570     0.000122689 
            580     0.000224212 
            590      0.00040595 
            600      0.00071543 
            610      0.00123619 
            620      0.00209592 
            630      0.00349061 
            640      0.00571496 
            650      0.00920825 
            658       0.0133354 
            665       0.0182945 
            675       0.0283904 
            685       0.0434557 
            695       0.0656466 
            705        0.097922 
            716        0.149904 
            726        0.218114 
            735        0.302806 
            745        0.431638 
            755        0.609026 
            765        0.850952 
            775         1.17787 
            785         1.61568 
            795         2.19687 
            805         2.96256 
            815         3.96288 
            825         5.26013 
            835         6.92861 
            845         9.06546 
            855         11.7761 
            865         15.1966 
            875         19.4834 
            885         24.8253 
            895         31.4421 
            905         39.5784 
            915          279.29 
            925         1641.47 
            935         2699.13 
            945         5074.53 
            955         15513.6 
            965         23542.9 
            975         7531.62 
            985      1.01787e+6 
            995       3.6516e+6 
           1005       2.5047e+6 
           1015          118779 
           1025         12186.2 
           1035          117032 
           1045      3.53021e+6 
           1055      1.01562e+7 
           1065      1.21197e+7 
           1075      1.54688e+7 
           1085      1.68485e+7 
           1095      1.66854e+7 
           1105      2.78789e+7 
           1115      4.67114e+7 
           1125       4.9802e+7 
           1135      5.06156e+7 
           1145      4.46521e+7 
           1155       3.8045e+7 
           1165      3.20209e+7 
           1175      1.96476e+7 
           1185      2.19981e+7 
           1195          107456 
           1205         73141.8 
           1215           23762 
           1225         79775.6 
           1235          153564 
           1245      4.10021e+6 
           1255      1.77282e+7 
           1265      2.51125e+7 
           1275      4.24579e+7 
           1285      5.80235e+7 
           1295      6.13451e+7 
           1305      5.28984e+7 
           1315      7.27893e+7 
           1325      7.94219e+7 
           1335      7.99255e+7 
           1345      9.07074e+7 
           1355      8.76705e+7 
           1365      8.24479e+7 
           1375      8.77569e+7 
           1385      9.07639e+7 
           1395      9.22569e+7 
           1405      9.54312e+7 
           1415        9.204e+7 
           1425      9.41144e+7 
           1435      8.89819e+7 
           1442      9.60954e+7 
           1447      9.92091e+7 
           1455      9.99576e+7 
           1465      9.61437e+7 
           1475      9.44254e+7 
           1485      9.60366e+7 
           1495      9.79098e+7 
           1505      9.91661e+7 
           1512      9.72382e+7 
           1517      1.00088e+8 
           1525      9.64735e+7 
           1535      9.48529e+7 
           1545      9.87819e+7 
           1555      9.32653e+7 
           1565      8.74735e+7 
           1575      8.96542e+7 
           1585      9.43509e+7 
           1595      9.75192e+7 
           1605      9.27907e+7 
           1615      9.29609e+7 
           1625      8.74048e+7 
           1635      8.91278e+7 
           1645      9.00731e+7 
           1655      8.18812e+7 
           1665      9.00435e+7 
           1672      7.97826e+7 
           1677      8.53717e+7 
           1685      8.98201e+7 
           1695      8.57999e+7 
           1705      8.41627e+7 
           1715      8.48697e+7 
           1725      8.34657e+7 
           1735      8.60631e+7 
           1745      8.43533e+7 
           1755      8.73491e+7 
           1765      8.14233e+7 
           1775      8.62922e+7 
           1785      8.46304e+7 
           1795      8.76176e+7 
           1805      8.50942e+7 
           1815      8.43363e+7 
           1825      8.21523e+7 
           1835      8.14663e+7 
           1845      7.91502e+7 
           1855      7.97158e+7 
           1865      7.94893e+7 
           1875      8.14984e+7 
           1885      8.13994e+7 
           1895      7.99204e+7 
           1905      7.86642e+7 
           1915      7.84108e+7 
           1925      7.89036e+7 
           1935      7.79715e+7 
           1945      8.00607e+7 
           1955      7.91245e+7 
           1967       7.9493e+7 
           1976      7.82853e+7 
           1984      7.78571e+7 
           1995      7.63743e+7 
           2005      7.55853e+7 
           2015      7.28736e+7 
           2025      7.36256e+7 
           2035      7.42884e+7 
           2045      7.44446e+7 
           2055      7.21098e+7 
           2065      7.17453e+7 
           2074      7.31734e+7 
           2078      7.37278e+7 
           2085      7.38965e+7 
           2095      7.22116e+7 
           2105      7.21929e+7 
           2115      7.15901e+7 
           2125       7.1416e+7 
           2135      6.69401e+7 
           2145        7.035e+7 
           2155       6.9959e+7 
           2165      6.78322e+7 
           2175      6.72704e+7 
           2185      6.70135e+7 
           2195      6.95515e+7 
           2205      6.74499e+7 
           2215      6.45363e+7 
           2225      6.36121e+7 
           2235      6.73014e+7 
           2245      6.39757e+7 
           2255       6.2782e+7 
           2265       6.2502e+7 
           2275      6.50597e+7 
           2285      6.54973e+7 
           2295      6.32176e+7 
           2305       6.2917e+7 
           2315      6.21187e+7 
           2325      6.25062e+7 
           2335      6.12132e+7 
           2345      5.76622e+7 
           2355      6.08579e+7 
           2365      5.78549e+7 
           2375      5.96489e+7 
           2385       5.5219e+7 
           2395      5.84243e+7 
           2405      5.69697e+7 
           2415       5.7544e+7 
           2425      5.87802e+7 
           2435      5.69914e+7 
           2445      5.87514e+7 
           2455      5.77449e+7 
           2465      5.70188e+7 
           2475      5.56931e+7 
           2485      5.78324e+7 
           2495      5.64965e+7 
           2505      5.86399e+7 
           2513      5.67769e+7 
           2518      5.71043e+7 
           2525      5.45315e+7 
           2535      5.41009e+7 
           2545      5.40657e+7 
           2555      5.59084e+7 
           2565      5.54235e+7 
           2575      5.71291e+7 
           2585      5.71728e+7 
           2595      5.68617e+7 
           2605      5.54677e+7 
           2615      5.51248e+7 
           2625      5.55366e+7 
           2635      5.59243e+7 
           2645      5.85986e+7 
           2655      5.80404e+7 
           2665      5.62371e+7 
           2675      5.70231e+7 
           2685      5.72941e+7 
           2695      5.60139e+7 
           2705      5.61153e+7 
           2715      5.49463e+7 
           2725      5.49497e+7 
           2735      5.64221e+7 
           2745       5.2632e+7 
           2755      5.26824e+7 
           2765      5.38986e+7 
           2775      5.54139e+7 
           2785      5.51915e+7 
           2795      5.05632e+7 
           2805      5.28511e+7 
           2815      5.55665e+7 
           2825      5.50983e+7 
           2835      5.40728e+7 
           2845      5.32465e+7 
           2855      5.25552e+7 
           2865       5.3263e+7 
           2875      5.27837e+7 
           2885      5.35636e+7 
           2895       5.3302e+7 
           2910      5.44489e+7 
           2930      5.31991e+7 
           2950      5.29434e+7 
           2970      5.29204e+7 
           2990      5.27205e+7 
           3010      5.29869e+7 
           3030      5.27944e+7 
           3050      5.23189e+7 
           3070      5.17754e+7 
           3090      5.18254e+7 
           3110      5.13401e+7 
           3130      5.08553e+7 
           3150      5.07811e+7 
           3170      5.05135e+7 
           3190      4.96378e+7 
           3210      4.98255e+7 
           3230      4.93223e+7 
           3250      4.93021e+7 
           3270      4.92716e+7 
           3290      4.91129e+7 
           3310      4.89372e+7 
           3330      4.84293e+7 
           3350      4.78729e+7 
           3370      4.77476e+7 
           3390      4.74481e+7 
           3410      4.75119e+7 
           3430      4.72125e+7 
           3450      4.70528e+7 
           3470       4.6706e+7 
           3490      4.64691e+7 
           3510      4.63202e+7 
           3530      4.61264e+7 
           3550      4.58801e+7 
           3570      4.55774e+7 
           3590      4.53253e+7 
           3610      4.50846e+7 
           3630      4.48208e+7 
           3640      4.46857e+7 
           3650      4.53376e+7 
           3670      4.46406e+7 
           3690      4.41746e+7 
           3710      5.35229e+7 
           3730      6.60777e+7 
           3750      9.81412e+7 
           3770      1.00779e+8 
           3790      1.15664e+8 
           3810      1.28159e+8 
           3830      1.04717e+8 
           3850      1.34558e+8 
           3870      1.40556e+8 
           3890      9.52323e+7 
           3910      1.37286e+8 
           3930      1.36004e+8 
           3950      1.34384e+8 
           3970      8.99295e+7 
           3990      1.29879e+8 
           4010      1.31025e+8 
           4030       1.2918e+8 
           4050      1.27961e+8 
           4070      1.25512e+8 
           4090      1.12809e+8 
           4110      8.94984e+7 
           4130      1.19902e+8 
           4150      1.19665e+8 
           4170      1.18171e+8 
           4190      1.16761e+8 
           4210      1.15282e+8 
           4230      1.13693e+8 
           4250      1.12204e+8 
           4270      1.10778e+8 
           4290      1.09239e+8 
           4310      1.06975e+8 
           4330      9.26809e+7 
           4350         7.97e+7 
           4370      1.03022e+8 
           4390      1.02124e+8 
           4410      1.01252e+8 
           4430      1.00071e+8 
           4450      9.88428e+7 
           4470      9.73344e+7 
           4490      9.56413e+7 
           4510      9.50135e+7 
           4530      9.38423e+7 
           4550      9.23567e+7 
           4570      9.16475e+7 
           4590      9.03499e+7 
           4610      8.95517e+7 
           4630      8.82332e+7 
           4650      8.73835e+7 
           4670      8.63015e+7 
           4690      8.52587e+7 
           4710      8.40386e+7 
           4730      8.32351e+7 
           4750      8.22418e+7 
           4770      8.12672e+7 
           4790      8.02977e+7 
           4810      7.91689e+7 
           4830      7.77201e+7 
           4850      6.86817e+7 
           4870       5.6493e+7 
           4890      7.46492e+7 
           4910      7.45486e+7 
           4930      7.36939e+7 
           4950      7.30458e+7 
           4970      7.22135e+7 
           4990       7.1365e+7 
           5010      7.03371e+7 
           5030      6.97178e+7 
           5050      6.87914e+7 
           5070      6.81472e+7 
           5090      6.73728e+7 
           5110      6.65983e+7 
           5130      6.58524e+7 
           5150      6.51004e+7 
           5170      6.41608e+7 
           5190      6.35554e+7 
           5210      6.29337e+7 
           5230      6.21489e+7 
           5250       6.1541e+7 
           5270      6.07696e+7 
           5290      6.01884e+7 
           5310      5.94473e+7 
           5330      5.88575e+7 
           5350      5.82379e+7 
           5370      5.75894e+7 
           5390      5.69657e+7 
           5410       5.6338e+7 
           5430       5.5727e+7 
           5450      5.51399e+7 
           5470      5.45385e+7 
           5490      5.39569e+7 
           5510      5.33735e+7 
           5530      5.28022e+7 
           5550      5.22498e+7 
           5570      5.16932e+7 
           5590      5.11455e+7 
           5610      5.06079e+7 
           5630      5.00754e+7 
           5650      4.95434e+7 
           5670      4.90269e+7 
           5690      4.85176e+7 
           5710      4.80119e+7 
           5730      4.75121e+7 
           5750      4.70204e+7 
           5770      4.65343e+7 
           5790      4.60516e+7 
           5810       4.5581e+7 
           5830      4.51126e+7 
           5850      4.46527e+7 
           5870      4.41161e+7 
           5890      4.37301e+7 
           5910      4.33031e+7 
           5930      4.28657e+7 
           5950      4.24259e+7 
           5970      4.20047e+7 
           5990      4.15756e+7 
           6010      4.11689e+7 
           6030      4.07585e+7 
           6050      4.03526e+7 
           6070      3.99532e+7 
           6090      3.95571e+7 
           6110      3.91664e+7 
           6130      3.87819e+7 
           6150      3.83747e+7 
           6170      3.80243e+7 
           6190      3.76532e+7 
           6210       3.7287e+7 
           6230      3.69247e+7 
           6250       3.6547e+7 
           6270      3.62136e+7 
           6290      3.58646e+7 
           6310      3.55156e+7 
           6330      3.51787e+7 
           6350      3.47808e+7 
           6370      3.44783e+7 
           6390      3.41807e+7 
           6410       3.3854e+7 
           6430      3.35353e+7 
           6450      3.32054e+7 
           6470      3.29078e+7 
           6490      3.25765e+7 
           6510      3.21837e+7 
           6530      3.16838e+7 
           6550      2.92523e+7 
           6570      2.37725e+7 
           6590      3.04841e+7 
           6610      3.06672e+7 
           6630      3.04902e+7 
           6650      3.02525e+7 
           6670      2.99672e+7 
           6690       2.9694e+7 
           6710      2.94294e+7 
           6730      2.91591e+7 
           6750      2.88956e+7 
           6770      2.86331e+7 
           6790      2.83739e+7 
           6810      2.81182e+7 
           6830      2.78641e+7 
           6850      2.76141e+7 
           6870      2.73666e+7 
           6890      2.71214e+7 
           6910      2.68794e+7 
           6930      2.66398e+7 
           6950      2.64032e+7 
           6970      2.61697e+7 
           6990      2.59385e+7 
           7010      2.57079e+7 
           7030      2.54833e+7 
           7050      2.52586e+7 
           7070      2.50329e+7 
           7090        2.482e+7 
           7110         2.46e+7 
           7130      2.43896e+7 
           7150      2.41774e+7 
           7170      2.39687e+7 
           7190       2.3762e+7 
           7210      2.35571e+7 
           7230      2.33535e+7 
           7250      2.31546e+7 
           7270      2.29568e+7 
           7290      2.27594e+7 
           7310      2.25652e+7 
           7330      2.23749e+7 
           7350       2.2185e+7 
           7370      2.19982e+7 
           7390      2.18124e+7 
           7410      2.16282e+7 
           7430      2.14451e+7 
           7450      2.12656e+7 
           7470      2.10857e+7 
           7490      2.09115e+7 
           7510      2.07374e+7 
           7530       2.0567e+7 
           7550      2.03967e+7 
           7570      2.02279e+7 
           7590      2.00606e+7 
           7610      1.98955e+7 
           7630      1.97324e+7 
           7650      1.95702e+7 
           7670      1.94106e+7 
           7690      1.92518e+7 
           7710      1.90937e+7 
           7730      1.89402e+7 
           7750      1.87868e+7 
           7770      1.85229e+7 
           7790      1.84838e+7 
           7810      1.83349e+7 
           7830      1.81873e+7 
           7850      1.80403e+7 
           7870      1.78892e+7 
           7890      1.77375e+7 
           7910      1.76123e+7 
           7930      1.74727e+7 
           7950      1.73313e+7 
           7970      1.71963e+7 
           7990      1.70478e+7 
           8010      1.69258e+7 
           8030      1.67925e+7 
           8050      1.66609e+7 
           8070      1.65298e+7 
           8090      1.64004e+7 
           8110      1.62727e+7 
           8130       1.6146e+7 
           8150      1.60203e+7 
           8170      1.58963e+7 
           8190      1.57699e+7 
           8210      1.57479e+7 
           8230      1.56336e+7 
           8250       1.5528e+7 
           8270      1.54238e+7 
           8290      1.53095e+7 
           8310      1.51851e+7 
           8330      1.50358e+7 
           8350      1.48984e+7 
           8370      1.46655e+7 
           8390      1.45271e+7 
           8410       1.4342e+7 
           8430      1.44458e+7 
           8450      1.43817e+7 
           8470      1.36622e+7 
           8490      1.48115e+7 
           8510       1.3404e+7 
           8530      1.50141e+7 
           8550      1.28867e+7 
           8570      1.52559e+7 
           8590      1.40285e+7 
           8610      1.35884e+7 
           8630      1.55559e+7 
           8650       1.5119e+7 
           8670      1.21987e+7 
           8690      1.54626e+7 
           8710      1.56975e+7 
           8730      1.52782e+7 
           8750      1.18748e+7 
           8770      1.46097e+7 
           8790      1.52522e+7 
           8810      1.51893e+7 
           8830      1.49945e+7 
           8850      1.39119e+7 
           8870      1.15494e+7 
           8890      1.44658e+7 
           8910      1.46107e+7 
           8930      1.45325e+7 
           8950      1.44347e+7 
           8970      1.42941e+7 
           8990      1.39929e+7 
           9010      1.13757e+7 
           9030      1.25603e+7 
           9050      1.37753e+7 
           9070      1.37636e+7 
           9090       1.3683e+7 
           9110      1.36139e+7 
           9130      1.35168e+7 
           9150      1.34196e+7 
           9170       1.3289e+7 
