# Kurucz ODFNEW /NOVER (2003)
# teff = 26000 K (value for the effective temperature for the model. Temperatures are given in K)
# logg = 3 log(cm/s2) (value for Log(G) for the model.)
# meta = -1  (value for the Metallicity for the model.)
# lh = 1.25  (l/Hp where l is the  mixing length of the convective element and Hp is the pressure scale height)
# vtur = 2 km/s (Microturbulence velocity)
# alpha = 0  (Alpha)
#
# column 1: WAVELENGTH (ANGSTROM), Wavelength in Angstrom
# column 2: FLUX (ERG/CM2/S/A), Flux in erg/cm2/s/A
          147.2     4.59023e-12 
            151     1.84242e-11 
          155.2     7.90854e-11 
          158.8     2.59315e-10 
            162     7.13122e-10 
            166      2.38976e-9 
          170.3       8.2212e-9 
          173.4      1.92853e-8 
          176.8       4.7447e-8 
          180.2      1.12773e-7 
          181.7      1.63495e-7 
          186.1      4.69677e-7 
            191      1.43562e-6 
          193.9      2.70714e-6 
          198.4      6.97966e-6 
          201.8      1.38746e-5 
            205      2.59323e-5 
          210.5      7.26477e-5 
          216.2      0.00019984 
          219.8     0.000368463 
            223     0.000624097 
          226.8      0.00114502 
            230         1.01688 
            234         2.56093 
            240         5.09356 
          246.5         10.9177 
          252.4          20.956 
          256.8         27.4523 
            260         49.3298 
            264         73.0692 
          268.5         114.296 
          273.5         178.624 
          278.5         268.273 
            284         493.472 
            290         787.503 
            296         1208.28 
            301         1573.35 
            308         2595.22 
            318         6316.45 
            328         11171.5 
            338         20687.1 
            348         35593.7 
            357         74965.2 
            366          124921 
            375          177573 
            385          276450 
            395          425153 
            405          601527 
            414          833770 
            422      1.04865e+6 
            430      1.36018e+6 
            441      1.88697e+6 
            451      2.48874e+6 
            460      3.10357e+6 
            470      4.05466e+6 
            480      5.14978e+6 
            490      6.50419e+6 
            500       8.2225e+6 
            506      6.02079e+7 
            512      2.69932e+8 
            520      2.65132e+8 
            530      2.66393e+8 
            540       2.5083e+8 
            550      3.16814e+8 
            560      3.64152e+8 
            570      3.94899e+8 
            580      3.64019e+8 
            590       4.2477e+8 
            600      4.25777e+8 
            610      4.79674e+8 
            620      5.34938e+8 
            630      5.54416e+8 
            640      5.54821e+8 
            650      5.56641e+8 
            658      6.03922e+8 
            665      6.51368e+8 
            675      6.69683e+8 
            685      6.49414e+8 
            695      7.72357e+8 
            705      7.44568e+8 
            716      8.49643e+8 
            726      8.61778e+8 
            735      8.88432e+8 
            745      9.48501e+8 
            755      9.75422e+8 
            765      1.02161e+9 
            775      1.06924e+9 
            785      1.12904e+9 
            795      1.15703e+9 
            805      1.17962e+9 
            815      1.19514e+9 
            825      1.26764e+9 
            835      1.16905e+9 
            845      1.30289e+9 
            855      1.33371e+9 
            865      1.38759e+9 
            875      1.44364e+9 
            885       1.5061e+9 
            895      1.55146e+9 
            905      1.56244e+9 
            915      3.34749e+9 
            925     1.84551e+10 
            935     2.51146e+10 
            945     2.93288e+10 
            955     3.01978e+10 
            965     3.14924e+10 
            975     1.64951e+10 
            985     2.77251e+10 
            995     2.69081e+10 
           1005      2.8263e+10 
           1015     2.83922e+10 
           1025     2.47852e+10 
           1035     2.66317e+10 
           1045     3.02636e+10 
           1055     2.91856e+10 
           1065     2.63426e+10 
           1075     2.75783e+10 
           1085     2.60521e+10 
           1095       2.761e+10 
           1105     2.66571e+10 
           1115     2.62869e+10 
           1125     2.34871e+10 
           1135     2.58795e+10 
           1145     2.45372e+10 
           1155     2.47744e+10 
           1165      2.4535e+10 
           1175     1.85884e+10 
           1185     2.31201e+10 
           1195     2.26561e+10 
           1205     2.09055e+10 
           1215     1.83579e+10 
           1225     2.17739e+10 
           1235     2.23023e+10 
           1245     2.15291e+10 
           1255     2.15813e+10 
           1265     2.15402e+10 
           1275     2.14695e+10 
           1285     2.12254e+10 
           1295     1.95274e+10 
           1305     1.98502e+10 
           1315     2.03521e+10 
           1325     1.97162e+10 
           1335     1.91321e+10 
           1345     1.92192e+10 
           1355     1.90703e+10 
           1365     1.85548e+10 
           1375      1.8247e+10 
           1385     1.79823e+10 
           1395     1.52903e+10 
           1405     1.57194e+10 
           1415     1.69718e+10 
           1425     1.62458e+10 
           1435     1.64856e+10 
           1442     1.65567e+10 
           1447     1.63498e+10 
           1455     1.59856e+10 
           1465     1.56646e+10 
           1475     1.55317e+10 
           1485     1.53856e+10 
           1495     1.50206e+10 
           1505     1.46439e+10 
           1512     1.42728e+10 
           1517     1.43138e+10 
           1525     1.40862e+10 
           1535     1.29631e+10 
           1545     1.24758e+10 
           1555     1.21618e+10 
           1565     1.26535e+10 
           1575      1.2964e+10 
           1585     1.28946e+10 
           1595     1.27537e+10 
           1605     1.21166e+10 
           1615     1.18544e+10 
           1625      1.1878e+10 
           1635     1.19834e+10 
           1645     1.16876e+10 
           1655     1.17935e+10 
           1665     1.16067e+10 
           1672     1.12726e+10 
           1677     1.18999e+10 
           1685     1.15676e+10 
           1695     1.12744e+10 
           1705     1.10347e+10 
           1715     1.06984e+10 
           1725      1.0537e+10 
           1735     1.06667e+10 
           1745     1.04903e+10 
           1755     1.03902e+10 
           1765     1.02116e+10 
           1775      1.0005e+10 
           1785      9.99409e+9 
           1795      9.88398e+9 
           1805      9.86959e+9 
           1815      9.52944e+9 
           1825      9.48558e+9 
           1835      9.40295e+9 
           1845      8.87388e+9 
           1855       8.8239e+9 
           1865        8.866e+9 
           1875      8.84819e+9 
           1885      8.34637e+9 
           1895      8.03338e+9 
           1905      8.29681e+9 
           1915      8.03174e+9 
           1925      7.77253e+9 
           1935      7.98812e+9 
           1945      8.03863e+9 
           1955      7.51561e+9 
           1967      7.73675e+9 
           1976      7.88265e+9 
           1984      7.54999e+9 
           1995      7.34428e+9 
           2005      7.42865e+9 
           2015      7.43907e+9 
           2025      7.44331e+9 
           2035      7.14683e+9 
           2045      7.07215e+9 
           2055         6.49e+9 
           2065      6.40848e+9 
           2074       6.6822e+9 
           2078      6.53034e+9 
           2085      6.72636e+9 
           2095      6.55492e+9 
           2105      6.62117e+9 
           2115      6.61378e+9 
           2125      6.58514e+9 
           2135      6.49194e+9 
           2145      6.34222e+9 
           2155      6.34409e+9 
           2165      6.25066e+9 
           2175      6.18559e+9 
           2185       6.1048e+9 
           2195      6.07197e+9 
           2205      5.99169e+9 
           2215      5.90438e+9 
           2225      5.83126e+9 
           2235      5.74443e+9 
           2245      5.69913e+9 
           2255      5.60216e+9 
           2265      5.55949e+9 
           2275      5.49602e+9 
           2285      5.42421e+9 
           2295      5.16032e+9 
           2305       5.2722e+9 
           2315      5.21255e+9 
           2325      5.15171e+9 
           2335      5.07617e+9 
           2345      5.04016e+9 
           2355      4.97809e+9 
           2365      4.91897e+9 
           2375      4.85273e+9 
           2385      4.77185e+9 
           2395      4.72604e+9 
           2405      4.68057e+9 
           2415      4.61934e+9 
           2425      4.57216e+9 
           2435      4.50546e+9 
           2445      4.45998e+9 
           2455       4.4116e+9 
           2465      4.35907e+9 
           2475      4.30332e+9 
           2485      4.24331e+9 
           2495      3.74313e+9 
           2505      4.12828e+9 
           2513      4.03421e+9 
           2518      4.06241e+9 
           2525      4.05788e+9 
           2535      4.01397e+9 
           2545      3.93549e+9 
           2555      3.90567e+9 
           2565      3.87201e+9 
           2575      3.82893e+9 
           2585      3.78487e+9 
           2595      3.74127e+9 
           2605      3.70932e+9 
           2615      3.66343e+9 
           2625      3.62234e+9 
           2635      3.57889e+9 
           2645      3.53659e+9 
           2655      3.49685e+9 
           2665      3.44812e+9 
           2675      3.40791e+9 
           2685      3.38482e+9 
           2695      3.32375e+9 
           2705      3.30071e+9 
           2715      3.26581e+9 
           2725      3.21992e+9 
           2735      3.18201e+9 
           2745      3.16087e+9 
           2755      3.12759e+9 
           2765      3.07731e+9 
           2775      3.06149e+9 
           2785      3.02477e+9 
           2795      2.96382e+9 
           2805      2.95148e+9 
           2815      2.92922e+9 
           2825      2.88326e+9 
           2835      2.84665e+9 
           2845      2.83482e+9 
           2855      2.80085e+9 
           2865      2.77174e+9 
           2875      2.74269e+9 
           2885      2.71452e+9 
           2895      2.68434e+9 
           2910      2.63899e+9 
           2930       2.5861e+9 
           2950       2.5196e+9 
           2970      2.47702e+9 
           2990      2.42381e+9 
           3010        2.369e+9 
           3030      2.32396e+9 
           3050      2.27828e+9 
           3070      2.23378e+9 
           3090      2.17647e+9 
           3110      2.14257e+9 
           3130       2.0987e+9 
           3150      2.05585e+9 
           3170      2.01443e+9 
           3190      1.96596e+9 
           3210      1.93291e+9 
           3230       1.8971e+9 
           3250      1.86155e+9 
           3270       1.8243e+9 
           3290      1.78816e+9 
           3310      1.75541e+9 
           3330      1.72022e+9 
           3350      1.68574e+9 
           3370      1.65537e+9 
           3390      1.62541e+9 
           3410      1.59487e+9 
           3430      1.56053e+9 
           3450      1.52749e+9 
           3470      1.50167e+9 
           3490      1.47406e+9 
           3510      1.45086e+9 
           3530      1.42494e+9 
           3550      1.39852e+9 
           3570      1.37672e+9 
           3590      1.34573e+9 
           3610      1.32253e+9 
           3630      1.29768e+9 
           3640      1.29064e+9 
           3650      1.25997e+9 
           3670      1.24107e+9 
           3690      1.20732e+9 
           3710      1.18681e+9 
           3730      1.16819e+9 
           3750      1.21255e+9 
           3770      1.19638e+9 
           3790      1.19441e+9 
           3810      1.21146e+9 
           3830       1.1275e+9 
           3850      1.18914e+9 
           3870      1.16463e+9 
           3890      1.07984e+9 
           3910      1.13432e+9 
           3930      1.10788e+9 
           3950      1.09504e+9 
           3970      1.00251e+9 
           3990       1.0595e+9 
           4010        1.039e+9 
           4030      1.01097e+9 
           4050      1.00898e+9 
           4070      9.86575e+8 
           4090      9.62582e+8 
           4110      9.00336e+8 
           4130       9.3782e+8 
           4150      9.23837e+8 
           4170       9.1309e+8 
           4190      8.98493e+8 
           4210       8.8428e+8 
           4230      8.71159e+8 
           4250      8.55762e+8 
           4270      8.39686e+8 
           4290      8.28743e+8 
           4310      8.14762e+8 
           4330      7.91419e+8 
           4350      7.44281e+8 
           4370      7.77471e+8 
           4390      7.60864e+8 
           4410      7.52854e+8 
           4430      7.42578e+8 
           4450      7.31999e+8 
           4470      7.10437e+8 
           4490      7.09784e+8 
           4510      6.99224e+8 
           4530      6.88841e+8 
           4550      6.77158e+8 
           4570      6.67456e+8 
           4590      6.57235e+8 
           4610      6.47875e+8 
           4630      6.37932e+8 
           4650      6.21445e+8 
           4670      6.18569e+8 
           4690      6.07395e+8 
           4710      5.95982e+8 
           4730      5.93091e+8 
           4750      5.84033e+8 
           4770      5.76496e+8 
           4790      5.68113e+8 
           4810      5.59718e+8 
           4830      5.51249e+8 
           4850      5.38592e+8 
           4870      5.02647e+8 
           4890      5.28446e+8 
           4910      5.20931e+8 
           4930      5.08482e+8 
           4950      5.05811e+8 
           4970       4.9943e+8 
           4990      4.92409e+8 
           5010      4.81341e+8 
           5030      4.78727e+8 
           5050      4.70629e+8 
           5070      4.65648e+8 
           5090      4.59204e+8 
           5110      4.52919e+8 
           5130       4.4656e+8 
           5150      4.40485e+8 
           5170      4.34574e+8 
           5190       4.2877e+8 
           5210         4.23e+8 
           5230      4.17306e+8 
           5250      4.11658e+8 
           5270      4.06125e+8 
           5290      4.00785e+8 
           5310      3.95434e+8 
           5330      3.90244e+8 
           5350      3.85081e+8 
           5370      3.80023e+8 
           5390      3.74978e+8 
           5410      3.69571e+8 
           5430      3.65321e+8 
           5450      3.60552e+8 
           5470       3.5588e+8 
           5490       3.5128e+8 
           5510      3.46774e+8 
           5530      3.42311e+8 
           5550      3.37965e+8 
           5570      3.33624e+8 
           5590      3.29348e+8 
           5610      3.25232e+8 
           5630      3.21119e+8 
           5650      3.17044e+8 
           5670      3.12913e+8 
           5690      3.08297e+8 
           5710      3.04038e+8 
           5730      3.00301e+8 
           5750      2.96427e+8 
           5770      2.92995e+8 
           5790      2.89412e+8 
           5810       2.8595e+8 
           5830      2.82473e+8 
           5850      2.79213e+8 
           5870      2.71169e+8 
           5890      2.72773e+8 
           5910      2.69679e+8 
           5930      2.66395e+8 
           5950      2.63224e+8 
           5970      2.60184e+8 
           5990       2.5698e+8 
           6010      2.53958e+8 
           6030      2.50908e+8 
           6050      2.47955e+8 
           6070      2.45046e+8 
           6090      2.42149e+8 
           6110      2.39295e+8 
           6130      2.36493e+8 
           6150      2.33652e+8 
           6170      2.30933e+8 
           6190      2.28293e+8 
           6210      2.25652e+8 
           6230      2.23041e+8 
           6250      2.20458e+8 
           6270      2.17923e+8 
           6290      2.15426e+8 
           6310      2.12936e+8 
           6330      2.10521e+8 
           6350      2.08113e+8 
           6370      2.05769e+8 
           6390      2.03431e+8 
           6410      2.01118e+8 
           6430      1.98876e+8 
           6450      1.96639e+8 
           6470      1.94381e+8 
           6490      1.92219e+8 
           6510      1.90124e+8 
           6530      1.87928e+8 
           6550      1.84815e+8 
           6570      1.71246e+8 
           6590      1.81433e+8 
           6610       1.7982e+8 
           6630      1.77871e+8 
           6650       1.7595e+8 
           6670      1.73059e+8 
           6690      1.71176e+8 
           6710      1.70283e+8 
           6730       1.6839e+8 
           6750      1.66633e+8 
           6770      1.64853e+8 
           6790      1.62992e+8 
           6810       1.6133e+8 
           6830      1.59603e+8 
           6850       1.5791e+8 
           6870      1.56233e+8 
           6890      1.54518e+8 
           6910      1.52907e+8 
           6930      1.51335e+8 
           6950      1.49748e+8 
           6970      1.48176e+8 
           6990      1.46613e+8 
           7010      1.45095e+8 
           7030      1.43569e+8 
           7050      1.42089e+8 
           7070      1.38972e+8 
           7090      1.39171e+8 
           7110      1.37726e+8 
           7130       1.3631e+8 
           7150      1.34922e+8 
           7170      1.33496e+8 
           7190      1.32179e+8 
           7210      1.30838e+8 
           7230      1.29135e+8 
           7250      1.28151e+8 
           7270      1.26905e+8 
           7290      1.24877e+8 
           7310       1.2435e+8 
           7330      1.23111e+8 
           7350      1.21884e+8 
           7370      1.20668e+8 
           7390      1.19464e+8 
           7410      1.18278e+8 
           7430       1.1711e+8 
           7450       1.1596e+8 
           7470      1.14772e+8 
           7490      1.13677e+8 
           7510      1.12551e+8 
           7530      1.11469e+8 
           7550      1.10383e+8 
           7570      1.09308e+8 
           7590      1.08216e+8 
           7610       1.0718e+8 
           7630      1.06159e+8 
           7650      1.05135e+8 
           7670      1.04126e+8 
           7690       1.0312e+8 
           7710      1.02136e+8 
           7730      1.01154e+8 
           7750      1.00194e+8 
           7770      9.92416e+7 
           7790      9.83043e+7 
           7810      9.73321e+7 
           7830      9.64545e+7 
           7850       9.5603e+7 
           7870      9.46858e+7 
           7890      9.37646e+7 
           7910      9.29358e+7 
           7930      9.20543e+7 
           7950      9.11983e+7 
           7970      9.02845e+7 
           7990      8.94731e+7 
           8010      8.85982e+7 
           8030       8.7801e+7 
           8050      8.70107e+7 
           8070      8.62271e+7 
           8090      8.53292e+7 
           8110      8.45194e+7 
           8130      8.39103e+7 
           8150      8.30169e+7 
           8170      8.23908e+7 
           8190      8.15677e+7 
           8210      8.05504e+7 
           8230      7.99369e+7 
           8250      7.92785e+7 
           8270      7.82676e+7 
           8290      7.77863e+7 
           8310      7.71122e+7 
           8330      7.64112e+7 
           8350      7.54999e+7 
           8370      7.48975e+7 
           8390      7.42947e+7 
           8410      7.35955e+7 
           8430       7.2918e+7 
           8450      7.20562e+7 
           8470       7.1291e+7 
           8490      7.12691e+7 
           8510      6.97536e+7 
           8530      7.02502e+7 
           8550      6.78451e+7 
           8570      6.96575e+7 
           8590      6.71994e+7 
