# Kurucz ODFNEW /NOVER (2003)
# teff = 19000 K (value for the effective temperature for the model. Temperatures are given in K)
# logg = 5 log(cm/s2) (value for Log(G) for the model.)
# meta = -4  (value for the Metallicity for the model.)
# lh = 1.25  (l/Hp where l is the  mixing length of the convective element and Hp is the pressure scale height)
# vtur = 2 km/s (Microturbulence velocity)
# alpha = 0.4  (Alpha)
#
# column 1: WAVELENGTH (ANGSTROM), Wavelength in Angstrom
# column 2: FLUX (ERG/CM2/S/A), Flux in erg/cm2/s/A
          147.2     1.25705e-22 
            151     1.03173e-21 
          155.2     8.01004e-21 
          158.8     4.22556e-20 
            162     1.75417e-19 
            166     9.72735e-19 
          170.3      5.6469e-18 
          173.4     1.90848e-17 
          176.8     6.94084e-17 
          180.2     2.41419e-16 
          181.7     4.12652e-16 
          186.1     1.89957e-15 
            191     9.61388e-15 
          193.9     2.41225e-14 
          198.4     9.57076e-14 
          201.8     2.61543e-13 
            205     6.55558e-13 
          210.5     2.96978e-12 
          216.2     1.31445e-11 
          219.8     3.23532e-11 
            223     7.01967e-11 
          226.8     1.71519e-10 
            230      3.7032e-10 
            234      9.2655e-10 
            240      3.30031e-9 
          246.5      1.21571e-8 
          252.4       3.7475e-8 
          256.8       8.3645e-8 
            260      1.48045e-7 
            264      2.95368e-7 
          268.5      6.25877e-7 
          273.5       1.3994e-6 
          278.5      3.04143e-6 
            284      6.91188e-6 
            290      1.63145e-5 
            296      3.71127e-5 
            301      7.17899e-5 
            308     0.000173985 
            318     0.000575391 
            328      0.00176144 
            338      0.00502948 
            348       0.0134819 
            357       0.0311406 
            366       0.0688798 
            375        0.146255 
            385        0.323114 
            395        0.683823 
            405         1.39098 
            414         2.55364 
            422         4.27979 
            430         7.02542 
            441          13.453 
            451         23.5668 
            460          38.159 
            470         63.6586 
            480         103.736 
            490         165.394 
            500         258.301 
            506         2444.72 
            512         6154.13 
            520         7985.86 
            530           11830 
            540         14675.1 
            550         21009.7 
            560         27487.1 
            570         35577.7 
            580         41009.1 
            590         56432.6 
            600         72911.8 
            610         91001.3 
            620          112646 
            630          138400 
            640          168829 
            650          204575 
            658          237403 
            665          269523 
            675          321401 
            685          381013 
            695          449252 
            705          526834 
            716          624027 
            726          724188 
            735          824833 
            745          949247 
            755      1.08764e+6 
            765      1.24112e+6 
            775      1.41076e+6 
            785       1.5974e+6 
            795      1.80215e+6 
            805      2.02612e+6 
            815      2.27027e+6 
            825      2.53572e+6 
            835       2.8217e+6 
            845      3.13482e+6 
            855      3.47022e+6 
            865      3.83091e+6 
            875       4.2175e+6 
            885      4.63143e+6 
            895      5.07323e+6 
            905      5.54176e+6 
            915      9.81213e+6 
            925      3.20484e+7 
            935      6.74319e+7 
            945      3.77301e+8 
            955      1.74175e+9 
            965      2.74291e+9 
            975       6.3348e+8 
            985      7.00477e+9 
            995       9.6193e+9 
           1005      9.17332e+9 
           1015      4.87411e+9 
           1025      2.48142e+8 
           1035      3.75244e+9 
           1045      8.48381e+9 
           1055      9.51381e+9 
           1065      9.60337e+9 
           1075      9.58559e+9 
           1085      9.23723e+9 
           1095      9.27916e+9 
           1105      8.97128e+9 
           1115      8.81502e+9 
           1125      8.60186e+9 
           1135       8.4837e+9 
           1145      8.26864e+9 
           1155      8.07044e+9 
           1165      7.84616e+9 
           1175      7.37128e+9 
           1185      7.11432e+9 
           1195      5.94051e+9 
           1205       2.9964e+9 
           1215      2.55555e+8 
           1225       2.3699e+9 
           1235      5.33741e+9 
           1245      6.21375e+9 
           1255      6.38373e+9 
           1265      6.31898e+9 
           1275      6.32152e+9 
           1285      6.22831e+9 
           1295      6.04241e+9 
           1305      5.94949e+9 
           1315      5.91687e+9 
           1325      5.80343e+9 
           1335      5.61091e+9 
           1345      5.60297e+9 
           1355       5.5019e+9 
           1365      5.40257e+9 
           1375      5.30714e+9 
           1385      5.21251e+9 
           1395       5.1065e+9 
           1405      5.03311e+9 
           1415      4.96147e+9 
           1425      4.87742e+9 
           1435      4.79413e+9 
           1442      4.73628e+9 
           1447      4.69551e+9 
           1455      4.63103e+9 
           1465       4.5524e+9 
           1475      4.47599e+9 
           1485      4.40259e+9 
           1495       4.3304e+9 
           1505      4.26024e+9 
           1512      4.21264e+9 
           1517      4.17935e+9 
           1525      4.12558e+9 
           1535      4.05905e+9 
           1545      3.99689e+9 
           1555      3.93162e+9 
           1565      3.86908e+9 
           1575      3.80826e+9 
           1585      3.74821e+9 
           1595      3.68981e+9 
           1605      3.63184e+9 
           1615      3.57573e+9 
           1625       3.5223e+9 
           1635      3.46976e+9 
           1645      3.41295e+9 
           1655      3.36798e+9 
           1665       3.3184e+9 
           1672      3.27248e+9 
           1677      3.25916e+9 
           1685      3.22072e+9 
           1695      3.17287e+9 
           1705      3.12604e+9 
           1715      3.08034e+9 
           1725      3.03561e+9 
           1735      2.99246e+9 
           1745      2.94997e+9 
           1755      2.90862e+9 
           1765      2.86632e+9 
           1775      2.82706e+9 
           1785      2.78732e+9 
           1795      2.74875e+9 
           1805      2.71063e+9 
           1815      2.67352e+9 
           1825      2.63706e+9 
           1835      2.60068e+9 
           1845      2.56493e+9 
           1855      2.52629e+9 
           1865      2.49321e+9 
           1875      2.46304e+9 
           1885      2.42998e+9 
           1895      2.39685e+9 
           1905      2.36656e+9 
           1915      2.33461e+9 
           1925      2.30463e+9 
           1935      2.27513e+9 
           1945      2.24622e+9 
           1955      2.21719e+9 
           1967      2.18389e+9 
           1976      2.15883e+9 
           1984      2.13667e+9 
           1995      2.10645e+9 
           2005      2.08034e+9 
           2015      2.05427e+9 
           2025       2.0287e+9 
           2035      2.00344e+9 
           2045      1.97858e+9 
           2055      1.95242e+9 
           2065      1.93011e+9 
           2074      1.90945e+9 
           2078      1.89931e+9 
           2085      1.88424e+9 
           2095      1.86158e+9 
           2105      1.83934e+9 
           2115      1.81719e+9 
           2125      1.79537e+9 
           2135      1.77396e+9 
           2145      1.75288e+9 
           2155      1.73202e+9 
           2165      1.71156e+9 
           2175      1.69147e+9 
           2185      1.67177e+9 
           2195      1.65242e+9 
           2205      1.63336e+9 
           2215      1.61443e+9 
           2225      1.59584e+9 
           2235      1.57774e+9 
           2245      1.55968e+9 
           2255       1.5418e+9 
           2265      1.52433e+9 
           2275       1.5071e+9 
           2285      1.49019e+9 
           2295      1.47336e+9 
           2305      1.45706e+9 
           2315      1.44078e+9 
           2325      1.42479e+9 
           2335      1.40888e+9 
           2345      1.39305e+9 
           2355      1.37812e+9 
           2365      1.36292e+9 
           2375      1.34826e+9 
           2385      1.33347e+9 
           2395      1.31907e+9 
           2405      1.30493e+9 
           2415      1.29092e+9 
           2425      1.27728e+9 
           2435      1.26357e+9 
           2445      1.25011e+9 
           2455      1.23695e+9 
           2465      1.22383e+9 
           2475      1.21107e+9 
           2485      1.19835e+9 
           2495      1.18568e+9 
           2505      1.17365e+9 
           2513       1.1638e+9 
           2518      1.15788e+9 
           2525       1.1494e+9 
           2535      1.13748e+9 
           2545      1.12588e+9 
           2555      1.11443e+9 
           2565      1.10301e+9 
           2575      1.09184e+9 
           2585      1.08076e+9 
           2595      1.06982e+9 
           2605      1.06329e+9 
           2615      1.05264e+9 
           2625      1.04212e+9 
           2635      1.03156e+9 
           2645      1.02114e+9 
           2655      1.01031e+9 
           2665      9.99187e+8 
           2675      9.88151e+8 
           2685      9.81849e+8 
           2695      9.67937e+8 
           2705      9.62698e+8 
           2715      9.53269e+8 
           2725      9.39131e+8 
           2735      9.34845e+8 
           2745      9.25596e+8 
           2755      9.16705e+8 
           2765      9.03089e+8 
           2775      8.99381e+8 
           2785      8.90796e+8 
           2795      8.79949e+8 
           2805      8.73255e+8 
           2815       8.6573e+8 
           2825      8.51871e+8 
           2835      8.46387e+8 
           2845      8.41565e+8 
           2855      8.33692e+8 
           2865      8.25909e+8 
           2875      8.18259e+8 
           2885       8.1065e+8 
           2895      8.03172e+8 
           2910       7.9211e+8 
           2930      7.77647e+8 
           2950      7.59996e+8 
           2970      7.49794e+8 
           2990      7.36342e+8 
           3010      7.23221e+8 
           3030      7.10381e+8 
           3050      6.97896e+8 
           3070      6.85675e+8 
           3090       6.7371e+8 
           3110      6.62035e+8 
           3130       6.5091e+8 
           3150      6.39747e+8 
           3170      6.28813e+8 
           3190      6.15104e+8 
           3210      6.07609e+8 
           3230      5.97364e+8 
           3250      5.87323e+8 
           3270      5.77765e+8 
           3290      5.67943e+8 
           3310      5.58865e+8 
           3330      5.49692e+8 
           3350      5.40396e+8 
           3370      5.31977e+8 
           3390      5.23391e+8 
           3410      5.15002e+8 
           3430      5.06259e+8 
           3450      4.97685e+8 
           3470      4.90244e+8 
           3490      4.82568e+8 
           3510      4.75495e+8 
           3530      4.67975e+8 
           3550      4.60535e+8 
           3570      4.54266e+8 
           3590       4.4615e+8 
           3610      4.39919e+8 
           3630      4.32512e+8 
           3640      4.30394e+8 
           3650      4.27502e+8 
           3670       4.2252e+8 
           3690      4.15904e+8 
           3710      4.03303e+8 
           3730      3.83041e+8 
           3750      3.93647e+8 
           3770      3.92901e+8 
           3790      4.31804e+8 
           3810      4.68651e+8 
           3830      3.95018e+8 
           3850      4.98943e+8 
           3870      5.31731e+8 
           3890      3.60246e+8 
           3910       5.2591e+8 
           3930      5.43035e+8 
           3950      5.13284e+8 
           3970      3.39491e+8 
           3990      4.87213e+8 
           4010      5.11065e+8 
           4030       4.7854e+8 
           4050      5.04097e+8 
           4070      4.88216e+8 
           4090      4.05486e+8 
           4110      3.35959e+8 
           4130      4.54609e+8 
           4150      4.60716e+8 
           4170        4.596e+8 
           4190      4.54086e+8 
           4210      4.47103e+8 
           4230      4.40106e+8 
           4250      4.32824e+8 
           4270      4.25308e+8 
           4290      4.16521e+8 
           4310      4.01125e+8 
           4330      3.26096e+8 
           4350      2.90374e+8 
           4370      3.79138e+8 
           4390      3.72349e+8 
           4410      3.80912e+8 
           4430      3.74601e+8 
           4450      3.70195e+8 
           4470      3.44566e+8 
           4490      3.59012e+8 
           4510      3.54798e+8 
           4530      3.49506e+8 
           4550      3.44293e+8 
           4570      3.39193e+8 
           4590      3.34188e+8 
           4610      3.29273e+8 
           4630      3.24449e+8 
           4650      3.19713e+8 
           4670      3.15063e+8 
           4690      3.10497e+8 
           4710      3.02194e+8 
           4730      3.01597e+8 
           4750      2.97243e+8 
           4770      2.92288e+8 
           4790      2.87521e+8 
           4810      2.81846e+8 
           4830      2.71765e+8 
           4850       2.2872e+8 
           4870      1.97984e+8 
           4890      2.56535e+8 
           4910      2.61309e+8 
           4930      2.53226e+8 
           4950      2.57272e+8 
           4970      2.54397e+8 
           4990      2.51001e+8 
           5010      2.44498e+8 
           5030      2.44151e+8 
           5050      2.39695e+8 
           5070      2.37631e+8 
           5090       2.3443e+8 
           5110      2.31285e+8 
           5130      2.28183e+8 
           5150      2.25136e+8 
           5170      2.22143e+8 
           5190      2.19203e+8 
           5210      2.16316e+8 
           5230      2.13467e+8 
           5250      2.10668e+8 
           5270      2.07905e+8 
           5290      2.05205e+8 
           5310       2.0254e+8 
           5330      1.99922e+8 
           5350      1.97338e+8 
           5370      1.94799e+8 
           5390      1.92306e+8 
           5410      1.89857e+8 
           5430      1.87439e+8 
           5450      1.85077e+8 
           5470      1.82731e+8 
           5490       1.8044e+8 
           5510      1.78177e+8 
           5530      1.75942e+8 
           5550      1.73746e+8 
           5570       1.7159e+8 
           5590       1.6946e+8 
           5610      1.67368e+8 
           5630      1.65302e+8 
           5650      1.63272e+8 
           5670      1.61279e+8 
           5690      1.59309e+8 
           5710      1.57375e+8 
           5730      1.55463e+8 
           5750      1.53586e+8 
           5770      1.51742e+8 
           5790       1.4992e+8 
           5810       1.4812e+8 
           5830      1.46352e+8 
           5850      1.44615e+8 
           5870      1.38722e+8 
           5890       1.4092e+8 
           5910      1.39547e+8 
           5930      1.37901e+8 
           5950      1.36283e+8 
           5970      1.34695e+8 
           5990      1.33125e+8 
           6010      1.31584e+8 
           6030       1.3006e+8 
           6050      1.28563e+8 
           6070      1.27083e+8 
           6090       1.2562e+8 
           6110      1.24194e+8 
           6130      1.22773e+8 
           6150      1.21378e+8 
           6170      1.20009e+8 
           6190      1.18654e+8 
           6210      1.17315e+8 
           6230         1.16e+8 
           6250      1.14699e+8 
           6270      1.13423e+8 
           6290       1.1216e+8 
           6310       1.1091e+8 
           6330      1.09684e+8 
           6350      1.08471e+8 
           6370       1.0728e+8 
           6390      1.06103e+8 
           6410      1.04937e+8 
           6430      1.03793e+8 
           6450      1.02662e+8 
           6470      1.01389e+8 
           6490      1.00085e+8 
           6510      9.86001e+7 
           6530      9.61594e+7 
           6550      8.71626e+7 
           6570      7.52701e+7 
           6590      9.12848e+7 
           6610      9.30785e+7 
           6630      9.27063e+7 
           6650      9.19451e+7 
           6670      9.02598e+7 
           6690      8.94263e+7 
           6710      8.93124e+7 
           6730      8.83831e+7 
           6750       8.7455e+7 
           6770      8.65445e+7 
           6790      8.56513e+7 
           6810      8.47591e+7 
           6830      8.38838e+7 
           6850      8.30254e+7 
           6870      8.21675e+7 
           6890      8.13261e+7 
           6910       8.0501e+7 
           6930      7.96762e+7 
           6950      7.88673e+7 
           6970      7.80664e+7 
           6990       7.7281e+7 
           7010      7.64988e+7 
           7030      7.57295e+7 
           7050      7.49699e+7 
           7070       7.3388e+7 
           7090      7.34789e+7 
           7110      7.27471e+7 
           7130      7.20246e+7 
           7150      7.13105e+7 
           7170      7.06055e+7 
           7190      6.99101e+7 
           7210      6.92235e+7 
           7230      6.85441e+7 
           7250       6.7874e+7 
           7270       6.7211e+7 
           7290      6.62536e+7 
           7310      6.59106e+7 
           7330      6.52731e+7 
           7350      6.46429e+7 
           7370      6.40199e+7 
           7390      6.34048e+7 
           7410      6.27975e+7 
           7430      6.21965e+7 
           7450      6.16057e+7 
           7470      6.10191e+7 
           7490      6.04398e+7 
           7510      5.98631e+7 
           7530      5.93017e+7 
           7550      5.87428e+7 
           7570      5.81902e+7 
           7590      5.76446e+7 
           7610      5.71052e+7 
           7630       5.6572e+7 
           7650      5.60454e+7 
           7670      5.55249e+7 
           7690      5.50103e+7 
           7710      5.45022e+7 
           7730      5.39993e+7 
           7750      5.35026e+7 
           7770      5.30117e+7 
           7790      5.25262e+7 
           7810      5.20408e+7 
           7830      5.15719e+7 
           7850      5.11162e+7 
           7870      5.06524e+7 
           7890      5.01938e+7 
           7910      4.97404e+7 
           7930      4.92927e+7 
           7950      4.88495e+7 
           7970      4.84107e+7 
           7990       4.7978e+7 
           8010      4.75497e+7 
           8030      4.71262e+7 
           8050      4.67074e+7 
           8070      4.62934e+7 
           8090      4.58829e+7 
           8110      4.54787e+7 
           8130       4.5078e+7 
           8150      4.46818e+7 
           8170      4.42906e+7 
           8190      4.38998e+7 
           8210      4.34956e+7 
           8230      4.31566e+7 
           8250      4.27976e+7 
           8270      4.23887e+7 
           8290      4.20841e+7 
           8310       4.1741e+7 
           8330      4.13844e+7 
           8350      4.09854e+7 
           8370      4.06828e+7 
           8390      4.03601e+7 
           8410      4.00107e+7 
           8430      3.96578e+7 
           8450      3.92566e+7 
           8470      3.89438e+7 
           8490      3.85901e+7 
           8510      3.81816e+7 
           8530      3.79246e+7 
           8550       3.7229e+7 
           8570      3.74606e+7 
           8590      3.63669e+7 
