# Kurucz ODFNEW /NOVER (2003)
# teff = 26000 K (value for the effective temperature for the model. Temperatures are given in K)
# logg = 3.5 log(cm/s2) (value for Log(G) for the model.)
# meta = -2  (value for the Metallicity for the model.)
# lh = 1.25  (l/Hp where l is the  mixing length of the convective element and Hp is the pressure scale height)
# vtur = 2 km/s (Microturbulence velocity)
# alpha = 0  (Alpha)
#
# column 1: WAVELENGTH (ANGSTROM), Wavelength in Angstrom
# column 2: FLUX (ERG/CM2/S/A), Flux in erg/cm2/s/A
          147.2     1.39188e-12 
            151     6.05698e-12 
          155.2     2.82637e-11 
          158.8     9.90995e-11 
            162     2.88318e-10 
            166      1.03353e-9 
          170.3      3.80703e-9 
          173.4       9.3571e-9 
          176.8      2.41646e-8 
          180.2      6.01615e-8 
          181.7      8.89742e-8 
          186.1      2.70365e-7 
            191      8.76512e-7 
          193.9      1.70833e-6 
          198.4      4.62229e-6 
          201.8      9.51462e-6 
            205      1.83537e-5 
          210.5      5.40988e-5 
          216.2      0.00015639 
          219.8     0.000296716 
            223     0.000514993 
          226.8     0.000970785 
            230       0.0523134 
            234         0.12568 
            240        0.279068 
          246.5        0.640466 
          252.4         1.31832 
          256.8         1.95082 
            260         3.09771 
            264         4.70842 
          268.5         7.52651 
          273.5         12.3808 
          278.5         19.9837 
            284         33.2838 
            290         56.3302 
            296         92.9526 
            301          135.92 
            308         216.449 
            318         498.722 
            328         980.167 
            338         1870.85 
            348         3404.76 
            357         5697.25 
            366          9295.9 
            375         14484.9 
            385         23520.3 
            395         36850.8 
            405         56360.7 
            414         81392.2 
            422          110169 
            430          147562 
            441          217905 
            451          304957 
            460          404112 
            470          549234 
            480          731794 
            490          963900 
            500      1.25481e+6 
            506      9.31436e+6 
            512      2.72346e+7 
            520      3.02484e+7 
            530      3.61293e+7 
            540      3.68978e+7 
            550       4.6915e+7 
            560      5.22412e+7 
            570      5.94639e+7 
            580      5.84614e+7 
            590      7.11998e+7 
            600       7.9694e+7 
            610      8.89409e+7 
            620        9.695e+7 
            630      1.06954e+8 
            640      1.13405e+8 
            650      1.25003e+8 
            658      1.35147e+8 
            665      1.42863e+8 
            675      1.50609e+8 
            685      1.60142e+8 
            695      1.80134e+8 
            705      1.88855e+8 
            716      2.07032e+8 
            726      2.19351e+8 
            735      2.33607e+8 
            745      2.51203e+8 
            755      2.66766e+8 
            765      2.82625e+8 
            775      3.00926e+8 
            785      3.19907e+8 
            795      3.35324e+8 
            805      3.53577e+8 
            815      3.69007e+8 
            825      3.90681e+8 
            835      3.94882e+8 
            845      4.24529e+8 
            855      4.42712e+8 
            865      4.64451e+8 
            875       4.8799e+8 
            885      5.09809e+8 
            895      5.30133e+8 
            905       5.4585e+8 
            915      9.50525e+8 
            925      9.52495e+9 
            935     1.86584e+10 
            945     3.10171e+10 
            955     3.40245e+10 
            965     3.90223e+10 
            975     2.16045e+10 
            985     3.73458e+10 
            995     3.54166e+10 
           1005     3.66355e+10 
           1015     3.53013e+10 
           1025     2.27097e+10 
           1035     3.31452e+10 
           1045     3.62266e+10 
           1055     3.52317e+10 
           1065     3.25491e+10 
           1075     3.33331e+10 
           1085     3.12325e+10 
           1095     3.27424e+10 
           1105     3.16156e+10 
           1115     3.11177e+10 
           1125      2.9218e+10 
           1135     3.01623e+10 
           1145     2.88993e+10 
           1155     2.90901e+10 
           1165     2.86761e+10 
           1175     2.46982e+10 
           1185     2.72629e+10 
           1195     2.63418e+10 
           1205     2.44247e+10 
           1215     1.56048e+10 
           1225     2.47421e+10 
           1235     2.51198e+10 
           1245     2.44481e+10 
           1255     2.42873e+10 
           1265     2.38177e+10 
           1275     2.35614e+10 
           1285     2.31346e+10 
           1295     2.16139e+10 
           1305     2.17531e+10 
           1315     2.18753e+10 
           1325     2.12084e+10 
           1335     2.05298e+10 
           1345     2.05689e+10 
           1355     2.03454e+10 
           1365     1.98458e+10 
           1375      1.9493e+10 
           1385     1.91844e+10 
           1395     1.80144e+10 
           1405     1.79307e+10 
           1415     1.80533e+10 
           1425      1.7666e+10 
           1435     1.75033e+10 
           1442     1.73751e+10 
           1447     1.71895e+10 
           1455     1.69126e+10 
           1465     1.65852e+10 
           1475     1.62998e+10 
           1485     1.60363e+10 
           1495     1.57212e+10 
           1505     1.53233e+10 
           1512     1.51099e+10 
           1517     1.50208e+10 
           1525     1.47834e+10 
           1535     1.41282e+10 
           1545     1.38816e+10 
           1555     1.35389e+10 
           1565     1.36135e+10 
           1575      1.3544e+10 
           1585      1.3361e+10 
           1595     1.31577e+10 
           1605      1.2686e+10 
           1615     1.24566e+10 
           1625     1.23615e+10 
           1635     1.22186e+10 
           1645     1.17675e+10 
           1655     1.19001e+10 
           1665     1.17206e+10 
           1672     1.15339e+10 
           1677     1.16293e+10 
           1685     1.14317e+10 
           1695      1.1197e+10 
           1705     1.09645e+10 
           1715     1.06925e+10 
           1725     1.05555e+10 
           1735     1.04799e+10 
           1745     1.02935e+10 
           1755     1.01686e+10 
           1765      9.90491e+9 
           1775      9.77999e+9 
           1785      9.69555e+9 
           1795      9.56139e+9 
           1805      9.45748e+9 
           1815      9.23976e+9 
           1825      9.11808e+9 
           1835      8.98809e+9 
           1845      8.65652e+9 
           1855      8.45889e+9 
           1865      8.43189e+9 
           1875      8.40659e+9 
           1885      8.05978e+9 
           1895      7.82167e+9 
           1905      7.92995e+9 
           1915      7.67384e+9 
           1925      7.52132e+9 
           1935      7.54903e+9 
           1945      7.52408e+9 
           1955        7.186e+9 
           1967      7.25867e+9 
           1976      7.26342e+9 
           1984      7.05393e+9 
           1995      6.83911e+9 
           2005       6.8942e+9 
           2015      6.85674e+9 
           2025      6.79682e+9 
           2035      6.62256e+9 
           2045      6.52696e+9 
           2055      6.17162e+9 
           2065      6.06516e+9 
           2074      6.16048e+9 
           2078      6.04099e+9 
           2085      6.09937e+9 
           2095      6.01656e+9 
           2105      6.02169e+9 
           2115      5.97372e+9 
           2125      5.91755e+9 
           2135      5.82629e+9 
           2145      5.72157e+9 
           2155      5.67119e+9 
           2165      5.59047e+9 
           2175      5.51776e+9 
           2185      5.43873e+9 
           2195       5.3817e+9 
           2205      5.30735e+9 
           2215      5.22782e+9 
           2225      5.16176e+9 
           2235      5.08822e+9 
           2245      5.02871e+9 
           2255      4.94821e+9 
           2265      4.89587e+9 
           2275      4.83153e+9 
           2285      4.76841e+9 
           2295      4.63761e+9 
           2305      4.63369e+9 
           2315      4.57771e+9 
           2325      4.51863e+9 
           2335      4.45575e+9 
           2345      4.40454e+9 
           2355      4.34847e+9 
           2365      4.29291e+9 
           2375      4.23573e+9 
           2385      4.17386e+9 
           2395      4.12719e+9 
           2405      4.07594e+9 
           2415      4.02256e+9 
           2425      3.97465e+9 
           2435      3.92167e+9 
           2445       3.8741e+9 
           2455      3.82685e+9 
           2465      3.77887e+9 
           2475      3.73124e+9 
           2485      3.68468e+9 
           2495      3.54124e+9 
           2505      3.59305e+9 
           2513      3.52935e+9 
           2518      3.53353e+9 
           2525      3.50652e+9 
           2535      3.46396e+9 
           2545      3.41039e+9 
           2555      3.37711e+9 
           2565      3.33886e+9 
           2575      3.29934e+9 
           2585      3.25965e+9 
           2595      3.22071e+9 
           2605      3.20025e+9 
           2615      3.16193e+9 
           2625      3.12258e+9 
           2635      3.07993e+9 
           2645      3.04403e+9 
           2655      3.00543e+9 
           2665      2.96632e+9 
           2675      2.92997e+9 
           2685      2.91085e+9 
           2695      2.85723e+9 
           2705      2.84207e+9 
           2715      2.80972e+9 
           2725       2.7593e+9 
           2735      2.74103e+9 
           2745      2.71304e+9 
           2755      2.68261e+9 
           2765      2.63279e+9 
           2775      2.62246e+9 
           2785      2.59225e+9 
           2795      2.55116e+9 
           2805      2.53104e+9 
           2815      2.50586e+9 
           2825      2.45695e+9 
           2835      2.43735e+9 
           2845      2.42272e+9 
           2855      2.39524e+9 
           2865        2.369e+9 
           2875      2.34288e+9 
           2885       2.3173e+9 
           2895      2.29157e+9 
           2910      2.25363e+9 
           2930      2.20498e+9 
           2950      2.14453e+9 
           2970      2.11122e+9 
           2990      2.06605e+9 
           3010      2.02147e+9 
           3030      1.97989e+9 
           3050      1.93846e+9 
           3070      1.89818e+9 
           3090       1.8566e+9 
           3110      1.82033e+9 
           3130      1.78434e+9 
           3150      1.74786e+9 
           3170      1.71178e+9 
           3190      1.66491e+9 
           3210       1.6424e+9 
           3230      1.61021e+9 
           3250        1.578e+9 
           3270       1.5484e+9 
           3290      1.51585e+9 
           3310      1.48834e+9 
           3330      1.45927e+9 
           3350       1.4285e+9 
           3370      1.40347e+9 
           3390       1.3766e+9 
           3410      1.35042e+9 
           3430      1.31845e+9 
           3450      1.28906e+9 
           3470      1.26858e+9 
           3490      1.24496e+9 
           3510      1.22742e+9 
           3530      1.20569e+9 
           3550      1.18389e+9 
           3570      1.16726e+9 
           3590      1.13988e+9 
           3610      1.12076e+9 
           3630      1.09878e+9 
           3640      1.09553e+9 
           3650      1.07362e+9 
           3670       1.0584e+9 
           3690      1.02988e+9 
           3710      1.00195e+9 
           3730      9.75799e+8 
           3750      1.04051e+9 
           3770      1.03886e+9 
           3790      1.06705e+9 
           3810      1.10028e+9 
           3830      9.83422e+8 
           3850      1.10583e+9 
           3870      1.09397e+9 
           3890       9.3766e+8 
           3910      1.06934e+9 
           3930      1.04743e+9 
           3950      1.03285e+9 
           3970      8.68962e+8 
           3990      9.94848e+8 
           4010      9.79139e+8 
           4030       9.3748e+8 
           4050      9.52245e+8 
           4070      9.33449e+8 
           4090        8.893e+8 
           4110      7.95895e+8 
           4130      8.79688e+8 
           4150      8.67292e+8 
           4170      8.57585e+8 
           4190      8.44911e+8 
           4210       8.3093e+8 
           4230      8.17385e+8 
           4250      8.03599e+8 
           4270      7.89229e+8 
           4290      7.77343e+8 
           4310      7.63372e+8 
           4330      7.18299e+8 
           4350      6.61837e+8 
           4370      7.26279e+8 
           4390      7.04311e+8 
           4410      7.04717e+8 
           4430      6.91765e+8 
           4450      6.83088e+8 
           4470      6.53364e+8 
           4490      6.61646e+8 
           4510      6.51494e+8 
           4530      6.41311e+8 
           4550      6.30955e+8 
           4570      6.21295e+8 
           4590      6.11762e+8 
           4610      6.02459e+8 
           4630      5.93241e+8 
           4650      5.82765e+8 
           4670      5.75159e+8 
           4690        5.654e+8 
           4710      5.52083e+8 
           4730      5.49664e+8 
           4750      5.41305e+8 
           4770      5.33563e+8 
           4790      5.25636e+8 
           4810      5.17789e+8 
           4830      5.09182e+8 
           4850      4.84715e+8 
           4870      4.39776e+8 
           4890      4.86412e+8 
           4910      4.80848e+8 
           4930      4.66074e+8 
           4950      4.67112e+8 
           4970      4.60508e+8 
           4990      4.53904e+8 
           5010      4.42843e+8 
           5030      4.41056e+8 
           5050      4.32665e+8 
           5070      4.28672e+8 
           5090      4.22634e+8 
           5110      4.16706e+8 
           5130      4.10844e+8 
           5150      4.05102e+8 
           5170      3.99522e+8 
           5190      3.94001e+8 
           5210      3.88567e+8 
           5230      3.83232e+8 
           5250       3.7798e+8 
           5270      3.72824e+8 
           5290      3.67749e+8 
           5310      3.62766e+8 
           5330      3.57874e+8 
           5350      3.53058e+8 
           5370      3.48329e+8 
           5390      3.43661e+8 
           5410      3.38988e+8 
           5430      3.34579e+8 
           5450       3.3015e+8 
           5470      3.25801e+8 
           5490      3.21506e+8 
           5510      3.17303e+8 
           5530      3.13152e+8 
           5550      3.09077e+8 
           5570      3.05064e+8 
           5590      3.01113e+8 
           5610      2.97234e+8 
           5630      2.93414e+8 
           5650      2.89653e+8 
           5670      2.85914e+8 
           5690      2.82209e+8 
           5710      2.78722e+8 
           5730      2.75196e+8 
           5750      2.71701e+8 
           5770      2.68327e+8 
           5790      2.64959e+8 
           5810      2.61654e+8 
           5830      2.58388e+8 
           5850      2.55193e+8 
           5870      2.45913e+8 
           5890      2.48785e+8 
           5910      2.45853e+8 
           5930      2.42826e+8 
           5950      2.39855e+8 
           5970      2.36951e+8 
           5990      2.34069e+8 
           6010      2.31231e+8 
           6030      2.28436e+8 
           6050      2.25693e+8 
           6070      2.22981e+8 
           6090       2.2032e+8 
           6110       2.1769e+8 
           6130      2.15098e+8 
           6150      2.12536e+8 
           6170      2.10032e+8 
           6190      2.07557e+8 
           6210      2.05118e+8 
           6230      2.02716e+8 
           6250       2.0035e+8 
           6270       1.9801e+8 
           6290      1.95715e+8 
           6310      1.93445e+8 
           6330      1.91209e+8 
           6350      1.89007e+8 
           6370      1.86838e+8 
           6390      1.84701e+8 
           6410      1.82588e+8 
           6430      1.80506e+8 
           6450      1.78465e+8 
           6470      1.76427e+8 
           6490      1.74438e+8 
           6510      1.72479e+8 
           6530      1.70337e+8 
           6550      1.65418e+8 
           6570      1.49496e+8 
           6590      1.64162e+8 
           6610      1.63058e+8 
           6630      1.61261e+8 
           6650      1.59569e+8 
           6670      1.56564e+8 
           6690      1.54872e+8 
           6710      1.54376e+8 
           6730      1.52687e+8 
           6750      1.51031e+8 
           6770      1.49392e+8 
           6790      1.47761e+8 
           6810       1.4618e+8 
           6830      1.44606e+8 
           6850      1.43048e+8 
           6870      1.41522e+8 
           6890      1.40004e+8 
           6910      1.38516e+8 
           6930      1.37043e+8 
           6950      1.35592e+8 
           6970      1.34156e+8 
           6990      1.32734e+8 
           7010      1.31349e+8 
           7030       1.2997e+8 
           7050      1.28612e+8 
           7070      1.25368e+8 
           7090      1.25943e+8 
           7110       1.2464e+8 
           7130      1.23349e+8 
           7150      1.22077e+8 
           7170      1.20796e+8 
           7190      1.19579e+8 
           7210      1.18351e+8 
           7230      1.17034e+8 
           7250      1.15945e+8 
           7270      1.14773e+8 
           7290      1.12727e+8 
           7310      1.12442e+8 
           7330      1.11324e+8 
           7350      1.10203e+8 
           7370        1.091e+8 
           7390      1.08006e+8 
           7410       1.0693e+8 
           7430      1.05864e+8 
           7450      1.04821e+8 
           7470      1.03781e+8 
           7490      1.02758e+8 
           7510       1.0171e+8 
           7530      1.00745e+8 
           7550      9.97562e+7 
           7570      9.87762e+7 
           7590      9.78116e+7 
           7610      9.68558e+7 
           7630      9.59152e+7 
           7650       9.4983e+7 
           7670      9.40656e+7 
           7690      9.31565e+7 
           7710      9.22619e+7 
           7730      9.13753e+7 
           7750      9.04903e+7 
           7770       8.9632e+7 
           7790      8.87812e+7 
           7810      8.78762e+7 
           7830      8.71022e+7 
           7850      8.63594e+7 
           7870      8.55439e+7 
           7890      8.46932e+7 
           7910      8.39403e+7 
           7930       8.3122e+7 
           7950      8.21977e+7 
           7970      8.13764e+7 
           7990      8.06509e+7 
           8010      7.98905e+7 
           8030      7.91834e+7 
           8050      7.84997e+7 
           8070      7.78045e+7 
           8090      7.69425e+7 
           8110      7.63057e+7 
           8130      7.57085e+7 
           8150       7.4878e+7 
           8170      7.43538e+7 
           8190      7.35811e+7 
           8210      7.26529e+7 
           8230      7.22113e+7 
           8250      7.15793e+7 
           8270       7.0578e+7 
           8290       7.0205e+7 
           8310      6.96001e+7 
           8330      6.89569e+7 
           8350      6.80218e+7 
           8370      6.75841e+7 
           8390      6.70589e+7 
           8410      6.64368e+7 
           8430      6.57614e+7 
           8450      6.48332e+7 
           8470      6.43646e+7 
           8490      6.40774e+7 
           8510      6.29598e+7 
           8530      6.31568e+7 
           8550      6.10219e+7 
           8570      6.28969e+7 
           8590      6.00669e+7 
