# Kurucz ODFNEW /NOVER (2003)
# teff = 31000 K (value for the effective temperature for the model. Temperatures are given in K)
# logg = 4.5 log(cm/s2) (value for Log(G) for the model.)
# meta = -0.5  (value for the Metallicity for the model.)
# lh = 1.25  (l/Hp where l is the  mixing length of the convective element and Hp is the pressure scale height)
# vtur = 2 km/s (Microturbulence velocity)
# alpha = 0  (Alpha)
#
# column 1: WAVELENGTH (ANGSTROM), Wavelength in Angstrom
# column 2: FLUX (ERG/CM2/S/A), Flux in erg/cm2/s/A
          147.2      5.37089e-8 
            151      1.63422e-7 
          155.2      5.25969e-7 
          158.8       1.3676e-6 
            162      3.09348e-6 
            166      8.22732e-6 
          170.3      2.24034e-5 
          173.4      4.48128e-5 
          176.8      9.32596e-5 
          180.2     0.000188933 
          181.7     0.000255889 
          186.1     0.000606573 
            191      0.00151534 
          193.9      0.00254963 
          198.4      0.00554922 
          201.8       0.0097607 
            205       0.0163296 
          210.5       0.0381582 
          216.2       0.0878264 
          219.8        0.145484 
            223        0.224709 
          226.8         0.37141 
            230          172.74 
            234         426.452 
            240         744.564 
          246.5         1369.65 
          252.4          2332.2 
          256.8         3062.34 
            260         4910.63 
            264         6932.33 
          268.5         10175.9 
          273.5         14656.8 
          278.5         20146.4 
            284         36170.3 
            290           53311 
            296         75035.4 
            301         97333.2 
            308          157885 
            318          329025 
            328          514613 
            338          867265 
            348      1.35606e+6 
            357      2.55445e+6 
            366      4.08858e+6 
            375      5.34239e+6 
            385      7.69827e+6 
            395      1.12276e+7 
            405       1.4614e+7 
            414       1.9071e+7 
            422      2.25381e+7 
            430      2.76098e+7 
            441      3.56911e+7 
            451      4.40312e+7 
            460      5.15688e+7 
            470      6.36245e+7 
            480      7.66998e+7 
            490      9.12623e+7 
            500      1.10073e+8 
            506      3.81782e+8 
            512       1.9595e+9 
            520      1.89103e+9 
            530      1.86729e+9 
            540      1.72771e+9 
            550      2.09424e+9 
            560      2.36381e+9 
            570      2.50353e+9 
            580      2.31973e+9 
            590      2.57336e+9 
            600      2.47773e+9 
            610      2.72499e+9 
            620      2.99845e+9 
            630      3.01678e+9 
            640      2.95249e+9 
            650      3.10175e+9 
            658      3.06238e+9 
            665       3.2522e+9 
            675      3.32183e+9 
            685        3.117e+9 
            695      3.66898e+9 
            705      3.47081e+9 
            716      3.90202e+9 
            726      3.88697e+9 
            735      3.94481e+9 
            745      4.10114e+9 
            755      4.13836e+9 
            765      4.25129e+9 
            775      4.35987e+9 
            785      4.53744e+9 
            795      4.56439e+9 
            805      4.56354e+9 
            815      4.58326e+9 
            825      4.77714e+9 
            835      4.36082e+9 
            845      4.77089e+9 
            855      4.80641e+9 
            865       4.9453e+9 
            875      5.05143e+9 
            885      5.18419e+9 
            895      5.27264e+9 
            905      5.22391e+9 
            915      5.79296e+9 
            925     2.24433e+10 
            935       4.085e+10 
            945     6.80119e+10 
            955     7.71572e+10 
            965     9.29743e+10 
            975     3.73355e+10 
            985     8.38902e+10 
            995     7.62306e+10 
           1005     8.03234e+10 
           1015     8.00905e+10 
           1025     4.96951e+10 
           1035     7.40921e+10 
           1045     8.63146e+10 
           1055     8.24487e+10 
           1065     7.22719e+10 
           1075     7.53214e+10 
           1085     6.85792e+10 
           1095     7.37451e+10 
           1105     7.02504e+10 
           1115     6.89232e+10 
           1125      5.9601e+10 
           1135     6.61969e+10 
           1145     6.17497e+10 
           1155     6.12216e+10 
           1165     5.96672e+10 
           1175     4.33507e+10 
           1185     5.48772e+10 
           1195     5.30842e+10 
           1205      4.8756e+10 
           1215     3.19584e+10 
           1225     4.81435e+10 
           1235     5.13067e+10 
           1245     4.95452e+10 
           1255      4.9175e+10 
           1265     4.93941e+10 
           1275     4.93708e+10 
           1285     4.87332e+10 
           1295     4.43285e+10 
           1305     4.47158e+10 
           1315     4.62626e+10 
           1325     4.42387e+10 
           1335      4.2828e+10 
           1345     4.25351e+10 
           1355      4.1967e+10 
           1365     4.01998e+10 
           1375      3.9404e+10 
           1385     3.83795e+10 
           1395     3.22907e+10 
           1405     3.28785e+10 
           1415     3.55237e+10 
           1425     3.30177e+10 
           1435     3.40007e+10 
           1442     3.41207e+10 
           1447     3.36101e+10 
           1455     3.24959e+10 
           1465     3.15482e+10 
           1475     3.12016e+10 
           1485     3.09109e+10 
           1495     2.99897e+10 
           1505     2.87742e+10 
           1512     2.77338e+10 
           1517     2.78296e+10 
           1525      2.7323e+10 
           1535       2.437e+10 
           1545     2.29681e+10 
           1555     2.23558e+10 
           1565      2.3523e+10 
           1575     2.42109e+10 
           1585     2.41403e+10 
           1595      2.3846e+10 
           1605     2.26518e+10 
           1615     2.18204e+10 
           1625     2.20063e+10 
           1635     2.21213e+10 
           1645     2.15344e+10 
           1655     2.18622e+10 
           1665     2.15025e+10 
           1672     2.05157e+10 
           1677     2.22006e+10 
           1685     2.13866e+10 
           1695     2.07009e+10 
           1705     2.01815e+10 
           1715     1.94844e+10 
           1725     1.89059e+10 
           1735     1.92793e+10 
           1745     1.89378e+10 
           1755     1.86639e+10 
           1765     1.82752e+10 
           1775     1.77745e+10 
           1785     1.77746e+10 
           1795     1.75361e+10 
           1805     1.74638e+10 
           1815     1.67618e+10 
           1825     1.66454e+10 
           1835     1.64354e+10 
           1845     1.53601e+10 
           1855     1.53526e+10 
           1865     1.53975e+10 
           1875     1.52797e+10 
           1885     1.43154e+10 
           1895     1.37336e+10 
           1905     1.41856e+10 
           1915     1.36794e+10 
           1925     1.30415e+10 
           1935     1.35278e+10 
           1945      1.3656e+10 
           1955     1.26147e+10 
           1967     1.30202e+10 
           1976     1.33245e+10 
           1984      1.2665e+10 
           1995     1.23241e+10 
           2005     1.24432e+10 
           2015     1.24175e+10 
           2025     1.24127e+10 
           2035     1.18371e+10 
           2045     1.17054e+10 
           2055     1.04213e+10 
           2065     1.01925e+10 
           2074     1.04546e+10 
           2078     1.01518e+10 
           2085     1.03645e+10 
           2095     1.04503e+10 
           2105       1.079e+10 
           2115     1.07699e+10 
           2125     1.06754e+10 
           2135     1.05005e+10 
           2145     1.02448e+10 
           2155     1.02472e+10 
           2165      1.0013e+10 
           2175      9.96409e+9 
           2185         9.75e+9 
           2195      9.74659e+9 
           2205      9.60105e+9 
           2215       9.3725e+9 
           2225      9.29833e+9 
           2235      9.13386e+9 
           2245       9.0437e+9 
           2255      8.80957e+9 
           2265       8.7885e+9 
           2275      8.67065e+9 
           2285      8.51988e+9 
           2295      8.01449e+9 
           2305      8.19966e+9 
           2315       8.1367e+9 
           2325      8.03689e+9 
           2335      7.90118e+9 
           2345      7.83668e+9 
           2355         7.72e+9 
           2365      7.61578e+9 
           2375        7.485e+9 
           2385      7.30315e+9 
           2395      7.25477e+9 
           2405      7.18479e+9 
           2415      7.07955e+9 
           2425      6.99822e+9 
           2435      6.87097e+9 
           2445      6.79597e+9 
           2455      6.71322e+9 
           2465        6.626e+9 
           2475      6.52829e+9 
           2485      6.42521e+9 
           2495      5.67579e+9 
           2505      6.21676e+9 
           2513      5.97621e+9 
           2518      6.07846e+9 
           2525      6.10508e+9 
           2535      6.03238e+9 
           2545      5.89492e+9 
           2555      5.83963e+9 
           2565      5.78273e+9 
           2575       5.7112e+9 
           2585      5.64286e+9 
           2595      5.56851e+9 
           2605      5.51996e+9 
           2615      5.44036e+9 
           2625      5.37805e+9 
           2635      5.30812e+9 
           2645       5.2316e+9 
           2655      5.16629e+9 
           2665      5.06627e+9 
           2675      5.00098e+9 
           2685      4.97749e+9 
           2695      4.85483e+9 
           2705      4.81802e+9 
           2715      4.76568e+9 
           2725      4.69439e+9 
           2735      4.62714e+9 
           2745      4.60068e+9 
           2755      4.55111e+9 
           2765      4.46341e+9 
           2775      4.45224e+9 
           2785      4.38972e+9 
           2795      4.27127e+9 
           2805      4.26352e+9 
           2815      4.23927e+9 
           2825      4.15621e+9 
           2835      4.08124e+9 
           2845      4.08867e+9 
           2855       4.0298e+9 
           2865      3.98318e+9 
           2875      3.93756e+9 
           2885      3.89239e+9 
           2895      3.84491e+9 
           2910      3.76916e+9 
           2930      3.69186e+9 
           2950      3.57916e+9 
           2970      3.52027e+9 
           2990       3.4333e+9 
           3010      3.34396e+9 
           3030      3.27751e+9 
           3050      3.21122e+9 
           3070      3.14637e+9 
           3090      3.04991e+9 
           3110       3.0059e+9 
           3130      2.93507e+9 
           3150      2.87199e+9 
           3170      2.80812e+9 
           3190      2.73456e+9 
           3210      2.68633e+9 
           3230      2.63179e+9 
           3250      2.58109e+9 
           3270      2.52368e+9 
           3290       2.4703e+9 
           3310      2.42217e+9 
           3330      2.36786e+9 
           3350      2.31768e+9 
           3370      2.27221e+9 
           3390      2.23062e+9 
           3410      2.18545e+9 
           3430      2.13532e+9 
           3450      2.08534e+9 
           3470      2.04767e+9 
           3490      2.00645e+9 
           3510      1.97005e+9 
           3530      1.93603e+9 
           3550      1.89705e+9 
           3570      1.86894e+9 
           3590      1.81877e+9 
           3610      1.78977e+9 
           3630      1.75135e+9 
           3640      1.74558e+9 
           3650      1.70305e+9 
           3670      1.67869e+9 
           3690      1.64682e+9 
           3710      1.59143e+9 
           3730      1.53877e+9 
           3750      1.53655e+9 
           3770      1.50258e+9 
           3790      1.54926e+9 
           3810      1.59245e+9 
           3830      1.42035e+9 
           3850      1.60624e+9 
           3870      1.60015e+9 
           3890      1.33722e+9 
           3910      1.57356e+9 
           3930      1.54232e+9 
           3950      1.51114e+9 
           3970      1.23773e+9 
           3990      1.45653e+9 
           4010      1.44417e+9 
           4030      1.37234e+9 
           4050      1.40455e+9 
           4070      1.35644e+9 
           4090      1.26483e+9 
           4110      1.13605e+9 
           4130      1.28418e+9 
           4150      1.27225e+9 
           4170      1.26211e+9 
           4190      1.23984e+9 
           4210      1.22145e+9 
           4230      1.20132e+9 
           4250      1.17429e+9 
           4270      1.14664e+9 
           4290      1.13137e+9 
           4310      1.10337e+9 
           4330      1.01727e+9 
           4350      9.38056e+8 
           4370       1.0485e+9 
           4390      1.02111e+9 
           4410      1.02188e+9 
           4430      1.00945e+9 
           4450      9.93375e+8 
           4470      9.43535e+8 
           4490      9.60823e+8 
           4510      9.47301e+8 
           4530       9.3275e+8 
           4550      9.14923e+8 
           4570      9.01666e+8 
           4590      8.86011e+8 
           4610      8.70966e+8 
           4630      8.56059e+8 
           4650      8.27925e+8 
           4670      8.29313e+8 
           4690      8.14068e+8 
           4710       7.9372e+8 
           4730      7.94363e+8 
           4750      7.80992e+8 
           4770      7.72271e+8 
           4790       7.6004e+8 
           4810      7.46633e+8 
           4830      7.30531e+8 
           4850      6.83454e+8 
           4870       6.1927e+8 
           4890      6.97227e+8 
           4910      6.90355e+8 
           4930      6.67312e+8 
           4950      6.70079e+8 
           4970      6.62776e+8 
           4990      6.52708e+8 
           5010      6.33323e+8 
           5030      6.33062e+8 
           5050      6.20922e+8 
           5070      6.15271e+8 
           5090      6.05996e+8 
           5110       5.9702e+8 
           5130      5.87736e+8 
           5150      5.79344e+8 
           5170      5.71432e+8 
           5190       5.6361e+8 
           5210      5.55599e+8 
           5230      5.47653e+8 
           5250      5.39784e+8 
           5270      5.32032e+8 
           5290       5.2484e+8 
           5310      5.17433e+8 
           5330      5.10295e+8 
           5350      5.03118e+8 
           5370      4.96242e+8 
           5390      4.89207e+8 
           5410      4.81568e+8 
           5430      4.76034e+8 
           5450      4.69414e+8 
           5470      4.63054e+8 
           5490      4.56761e+8 
           5510      4.50684e+8 
           5530      4.44449e+8 
           5550      4.38646e+8 
           5570      4.32733e+8 
           5590      4.26894e+8 
           5610      4.21317e+8 
           5630       4.1575e+8 
           5650      4.10062e+8 
           5670      4.04175e+8 
           5690      3.97475e+8 
           5710      3.92835e+8 
           5730      3.87895e+8 
           5750      3.82364e+8 
           5770      3.78077e+8 
           5790      3.73132e+8 
           5810      3.68347e+8 
           5830      3.63341e+8 
           5850      3.58979e+8 
           5870      3.45133e+8 
           5890      3.48885e+8 
           5910      3.45762e+8 
           5930      3.41441e+8 
           5950       3.3716e+8 
           5970      3.33456e+8 
           5990      3.28923e+8 
           6010       3.2509e+8 
           6030      3.20896e+8 
           6050      3.17018e+8 
           6070      3.13225e+8 
           6090      3.09373e+8 
           6110      3.05575e+8 
           6130       3.0187e+8 
           6150      2.97877e+8 
           6170      2.94356e+8 
           6190      2.90923e+8 
           6210       2.8746e+8 
           6230      2.83996e+8 
           6250      2.80475e+8 
           6270      2.77184e+8 
           6290       2.7391e+8 
           6310      2.70596e+8 
           6330      2.67441e+8 
           6350      2.64189e+8 
           6370      2.61159e+8 
           6390      2.58051e+8 
           6410      2.55031e+8 
           6430      2.52071e+8 
           6450      2.49115e+8 
           6470      2.45958e+8 
           6490      2.43192e+8 
           6510      2.40447e+8 
           6530      2.36705e+8 
           6550      2.27596e+8 
           6570      2.04332e+8 
           6590      2.27149e+8 
           6610      2.26656e+8 
           6630      2.24451e+8 
           6650      2.21919e+8 
           6670       2.1744e+8 
           6690      2.15022e+8 
           6710      2.14537e+8 
           6730      2.11983e+8 
           6750      2.09811e+8 
           6770      2.07505e+8 
           6790      2.04813e+8 
           6810      2.02864e+8 
           6830      2.00604e+8 
           6850      1.98447e+8 
           6870      1.96263e+8 
           6890      1.94007e+8 
           6910       1.9182e+8 
           6930      1.89907e+8 
           6950      1.87848e+8 
           6970       1.8581e+8 
           6990        1.838e+8 
           7010       1.8181e+8 
           7030      1.79816e+8 
           7050      1.77918e+8 
           7070      1.73536e+8 
           7090      1.74147e+8 
           7110       1.7226e+8 
           7130       1.7045e+8 
           7150      1.68665e+8 
           7170      1.66846e+8 
           7190      1.65125e+8 
           7210      1.63391e+8 
           7230      1.60773e+8 
           7250      1.59873e+8 
           7270      1.58325e+8 
           7290      1.55543e+8 
           7310      1.55032e+8 
           7330      1.53436e+8 
           7350      1.51863e+8 
           7370      1.50305e+8 
           7390      1.48768e+8 
           7410      1.47246e+8 
           7430      1.45738e+8 
           7450      1.44271e+8 
           7470      1.42635e+8 
           7490      1.41317e+8 
           7510      1.39891e+8 
           7530      1.38497e+8 
           7550       1.3713e+8 
           7570      1.35756e+8 
           7590      1.34368e+8 
           7610      1.32986e+8 
           7630       1.3172e+8 
           7650      1.30414e+8 
           7670      1.29133e+8 
           7690      1.27844e+8 
           7710      1.26586e+8 
           7730       1.2532e+8 
           7750      1.24122e+8 
           7770      1.22879e+8 
           7790      1.21715e+8 
           7810      1.20475e+8 
           7830      1.19356e+8 
           7850      1.18284e+8 
           7870      1.17081e+8 
           7890      1.15884e+8 
           7910      1.14889e+8 
           7930      1.13747e+8 
           7950      1.12687e+8 
           7970      1.11546e+8 
           7990      1.10522e+8 
           8010      1.09449e+8 
           8030      1.08384e+8 
           8050      1.07358e+8 
           8070      1.06346e+8 
           8090      1.05217e+8 
           8110      1.04091e+8 
           8130      1.03397e+8 
           8150      1.02335e+8 
           8170      1.01484e+8 
           8190      1.00315e+8 
           8210      9.91789e+7 
           8230       9.8347e+7 
           8250       9.7594e+7 
           8270      9.62192e+7 
           8290       9.5761e+7 
           8310      9.49296e+7 
           8330      9.40183e+7 
           8350      9.28065e+7 
           8370      9.21969e+7 
           8390      9.14849e+7 
           8410      9.06455e+7 
           8430      8.97918e+7 
           8450      8.84808e+7 
           8470       8.8158e+7 
           8490      8.72048e+7 
           8510      8.64208e+7 
           8530       8.5607e+7 
           8550      8.45319e+7 
           8570      8.45943e+7 
