# Kurucz ODFNEW /NOVER (2003)
# teff = 31000 K (value for the effective temperature for the model. Temperatures are given in K)
# logg = 4 log(cm/s2) (value for Log(G) for the model.)
# meta = 0.2  (value for the Metallicity for the model.)
# lh = 1.25  (l/Hp where l is the  mixing length of the convective element and Hp is the pressure scale height)
# vtur = 2 km/s (Microturbulence velocity)
# alpha = 0  (Alpha)
#
# column 1: WAVELENGTH (ANGSTROM), Wavelength in Angstrom
# column 2: FLUX (ERG/CM2/S/A), Flux in erg/cm2/s/A
          147.2      7.67391e-8 
            151      2.27531e-7 
          155.2      7.11588e-7 
          158.8      1.80466e-6 
            162      3.99396e-6 
            166      1.03338e-5 
          170.3      2.72719e-5 
          173.4       5.3527e-5 
          176.8     0.000109124 
          180.2     0.000216139 
          181.7     0.000290772 
          186.1     0.000670164 
            191      0.00162667 
          193.9      0.00269131 
          198.4      0.00572427 
          201.8      0.00988929 
            205       0.0162785 
          210.5       0.0370903 
          216.2       0.0830712 
          219.8        0.136096 
            223        0.207792 
          226.8        0.344356 
            230         101.845 
            234         216.704 
            240          369.98 
          246.5         669.234 
          252.4         1146.47 
          256.8         1626.23 
            260         2870.61 
            264         4701.66 
          268.5          7132.5 
          273.5         10164.3 
          278.5         13495.5 
            284         30818.5 
            290         45937.7 
            296         63374.4 
            301         94118.9 
            308          249292 
            318          543613 
            328          820034 
            338      1.49506e+6 
            348      2.38231e+6 
            357      5.78918e+6 
            366      1.19201e+7 
            375      1.46676e+7 
            385      2.19249e+7 
            395      4.02094e+7 
            405      5.06164e+7 
            414      6.82195e+7 
            422       7.8822e+7 
            430      9.45736e+7 
            441      1.20083e+8 
            451      1.35935e+8 
            460      1.47802e+8 
            470      1.82208e+8 
            480      2.18827e+8 
            490      2.45808e+8 
            500      2.98309e+8 
            506      5.90175e+8 
            512      4.62433e+9 
            520      4.38895e+9 
            530      3.94808e+9 
            540      3.67234e+9 
            550      4.49821e+9 
            560      5.85192e+9 
            570      6.25923e+9 
            580      5.67345e+9 
            590      6.11512e+9 
            600       4.7492e+9 
            610      6.07141e+9 
            620      7.26361e+9 
            630       6.9647e+9 
            640      6.65356e+9 
            650      6.11363e+9 
            658      5.36175e+9 
            665      6.67588e+9 
            675      7.60346e+9 
            685      5.89303e+9 
            695       8.2767e+9 
            705      6.44311e+9 
            716      8.96747e+9 
            726      8.68497e+9 
            735      8.70161e+9 
            745      8.39695e+9 
            755      8.45291e+9 
            765      8.67689e+9 
            775      9.09545e+9 
            785       9.4527e+9 
            795      9.49535e+9 
            805      9.03593e+9 
            815      8.93522e+9 
            825      9.60165e+9 
            835      7.53648e+9 
            845      9.10714e+9 
            855      9.00667e+9 
            865       9.3429e+9 
            875      9.46615e+9 
            885      9.73972e+9 
            895      9.83934e+9 
            905      9.51454e+9 
            915     1.10811e+10 
            925      3.7416e+10 
            935     5.88262e+10 
            945     7.31965e+10 
            955     7.75496e+10 
            965     8.47173e+10 
            975     3.02913e+10 
            985     6.48912e+10 
            995     6.10933e+10 
           1005     6.52434e+10 
           1015     6.90983e+10 
           1025     5.68164e+10 
           1035     6.57608e+10 
           1045     7.77521e+10 
           1055     7.29952e+10 
           1065     6.24204e+10 
           1075     6.54633e+10 
           1085     6.03164e+10 
           1095     6.39484e+10 
           1105     6.11209e+10 
           1115     6.00143e+10 
           1125     4.77153e+10 
           1135     5.74587e+10 
           1145     5.52411e+10 
           1155     5.28852e+10 
           1165      5.1129e+10 
           1175     3.14208e+10 
           1185     4.62224e+10 
           1195     4.51487e+10 
           1205     4.23995e+10 
           1215     3.50974e+10 
           1225     4.21611e+10 
           1235     4.52009e+10 
           1245     4.30558e+10 
           1255     4.30182e+10 
           1265     4.43089e+10 
           1275     4.57718e+10 
           1285      4.5701e+10 
           1295      4.1644e+10 
           1305     4.18422e+10 
           1315     4.47594e+10 
           1325     4.29404e+10 
           1335     4.14709e+10 
           1345     4.15063e+10 
           1355      4.0504e+10 
           1365     3.89483e+10 
           1375     3.76206e+10 
           1385      3.6227e+10 
           1395      2.7058e+10 
           1405     2.84395e+10 
           1415     3.41314e+10 
           1425     3.07728e+10 
           1435     3.28738e+10 
           1442     3.25808e+10 
           1447     3.23704e+10 
           1455     3.07502e+10 
           1465     2.96209e+10 
           1475     3.01245e+10 
           1485     3.00072e+10 
           1495     2.90272e+10 
           1505     2.77363e+10 
           1512     2.66874e+10 
           1517     2.71126e+10 
           1525     2.62473e+10 
           1535     2.25217e+10 
           1545     1.92577e+10 
           1555     1.92242e+10 
           1565     2.18541e+10 
           1575     2.31524e+10 
           1585     2.33095e+10 
           1595      2.3073e+10 
           1605     2.20098e+10 
           1615     2.09364e+10 
           1625     2.14414e+10 
           1635     2.18549e+10 
           1645     2.18573e+10 
           1655     2.17604e+10 
           1665     2.15392e+10 
           1672     1.97758e+10 
           1677     2.33111e+10 
           1685     2.19903e+10 
           1695     2.10746e+10 
           1705     2.08644e+10 
           1715     1.97239e+10 
           1725     1.90313e+10 
           1735     1.97049e+10 
           1745     1.94735e+10 
           1755     1.92571e+10 
           1765     1.90359e+10 
           1775     1.81978e+10 
           1785     1.85183e+10 
           1795     1.81816e+10 
           1805     1.81726e+10 
           1815     1.73839e+10 
           1825     1.72799e+10 
           1835     1.71727e+10 
           1845     1.60308e+10 
           1855     1.64255e+10 
           1865     1.64784e+10 
           1875     1.62035e+10 
           1885     1.51329e+10 
           1895     1.46106e+10 
           1905     1.51843e+10 
           1915     1.46892e+10 
           1925     1.37267e+10 
           1935     1.46618e+10 
           1945     1.49008e+10 
           1955     1.33717e+10 
           1967     1.41497e+10 
           1976     1.46058e+10 
           1984     1.38881e+10 
           1995     1.35574e+10 
           2005     1.38283e+10 
           2015     1.37963e+10 
           2025     1.38716e+10 
           2035     1.30788e+10 
           2045     1.29846e+10 
           2055      1.0895e+10 
           2065     1.05892e+10 
           2074     1.11447e+10 
           2078     1.08366e+10 
           2085     1.15162e+10 
           2095     1.17344e+10 
           2105     1.20321e+10 
           2115     1.21208e+10 
           2125     1.19894e+10 
           2135     1.18418e+10 
           2145     1.15254e+10 
           2155      1.1645e+10 
           2165     1.12306e+10 
           2175      1.1337e+10 
           2185     1.10362e+10 
           2195     1.11861e+10 
           2205     1.10175e+10 
           2215     1.06863e+10 
           2225     1.06453e+10 
           2235     1.04484e+10 
           2245     1.03368e+10 
           2255     1.00557e+10 
           2265     1.00802e+10 
           2275      9.97794e+9 
           2285      9.74721e+9 
           2295      8.61245e+9 
           2305      9.32779e+9 
           2315      9.25089e+9 
           2325      9.21051e+9 
           2335      9.04127e+9 
           2345      8.97871e+9 
           2355      8.79937e+9 
           2365      8.66584e+9 
           2375       8.4708e+9 
           2385      8.19725e+9 
           2395      8.19199e+9 
           2405      8.16113e+9 
           2415      8.05235e+9 
           2425      8.00209e+9 
           2435      7.84119e+9 
           2445      7.77025e+9 
           2455       7.6777e+9 
           2465      7.56903e+9 
           2475      7.45387e+9 
           2485      7.20793e+9 
           2495      5.35044e+9 
           2505      6.86575e+9 
           2513      6.70399e+9 
           2518      6.84852e+9 
           2525      6.97014e+9 
           2535      6.92053e+9 
           2545      6.74702e+9 
           2555      6.68911e+9 
           2565      6.61759e+9 
           2575        6.543e+9 
           2585      6.46823e+9 
           2595      6.36701e+9 
           2605      6.32876e+9 
           2615      6.19947e+9 
           2625      6.15834e+9 
           2635      6.09378e+9 
           2645      5.98802e+9 
           2655      5.92696e+9 
           2665      5.76799e+9 
           2675      5.66177e+9 
           2685      5.69388e+9 
           2695      5.53447e+9 
           2705      5.47304e+9 
           2715      5.41337e+9 
           2725       5.3798e+9 
           2735      5.26851e+9 
           2745      5.26769e+9 
           2755      5.20967e+9 
           2765      5.12081e+9 
           2775      5.12066e+9 
           2785      5.02712e+9 
           2795      4.85474e+9 
           2805      4.88339e+9 
           2815      4.87253e+9 
           2825      4.79986e+9 
           2835      4.68403e+9 
           2845       4.6963e+9 
           2855      4.62089e+9 
           2865      4.55863e+9 
           2875       4.5102e+9 
           2885      4.45935e+9 
           2895      4.40751e+9 
           2910      4.30088e+9 
           2930      4.24307e+9 
           2950      4.11634e+9 
           2970       4.0332e+9 
           2990      3.91579e+9 
           3010      3.79574e+9 
           3030      3.71641e+9 
           3050      3.66407e+9 
           3070      3.60385e+9 
           3090      3.47812e+9 
           3110      3.44934e+9 
           3130      3.35568e+9 
           3150      3.29612e+9 
           3170      3.21413e+9 
           3190      3.14904e+9 
           3210      3.07271e+9 
           3230      3.00935e+9 
           3250      2.96408e+9 
           3270      2.87931e+9 
           3290      2.82941e+9 
           3310      2.76885e+9 
           3330      2.70097e+9 
           3350      2.63961e+9 
           3370       2.5882e+9 
           3390      2.55483e+9 
           3410      2.50075e+9 
           3430       2.4532e+9 
           3450      2.39053e+9 
           3470      2.34891e+9 
           3490      2.30029e+9 
           3510      2.25837e+9 
           3530      2.22173e+9 
           3550        2.175e+9 
           3570      2.13562e+9 
           3590      2.08161e+9 
           3610      2.04158e+9 
           3630      2.00451e+9 
           3640      1.98666e+9 
           3650      1.90422e+9 
           3670      1.87591e+9 
           3690      1.83834e+9 
           3710      1.77574e+9 
           3730      1.73232e+9 
           3750      1.75866e+9 
           3770      1.73223e+9 
           3790        1.782e+9 
           3810      1.81701e+9 
           3830       1.6497e+9 
           3850      1.80449e+9 
           3870      1.75054e+9 
           3890      1.56009e+9 
           3910      1.74423e+9 
           3930      1.68589e+9 
           3950      1.65365e+9 
           3970      1.43775e+9 
           3990       1.6138e+9 
           4010      1.58689e+9 
           4030      1.52783e+9 
           4050      1.53482e+9 
           4070      1.47218e+9 
           4090      1.40086e+9 
           4110      1.29305e+9 
           4130      1.40451e+9 
           4150      1.38823e+9 
           4170      1.37958e+9 
           4190      1.35606e+9 
           4210      1.33291e+9 
           4230      1.31463e+9 
           4250      1.27916e+9 
           4270      1.24952e+9 
           4290      1.22917e+9 
           4310      1.19589e+9 
           4330      1.13488e+9 
           4350       1.0599e+9 
           4370      1.14154e+9 
           4390      1.12387e+9 
           4410      1.11048e+9 
           4430       1.1032e+9 
           4450      1.08245e+9 
           4470      1.04765e+9 
           4490      1.05084e+9 
           4510      1.02906e+9 
           4530      1.01784e+9 
           4550      9.97139e+8 
           4570      9.87655e+8 
           4590      9.68677e+8 
           4610      9.49938e+8 
           4630      9.30326e+8 
           4650      8.85874e+8 
           4670      9.03004e+8 
           4690      8.86893e+8 
           4710      8.69391e+8 
           4730      8.72865e+8 
           4750      8.57783e+8 
           4770      8.51134e+8 
           4790      8.37326e+8 
           4810      8.22008e+8 
           4830      8.06333e+8 
           4850      7.72598e+8 
           4870      7.05618e+8 
           4890      7.70723e+8 
           4910      7.60503e+8 
           4930      7.39512e+8 
           4950      7.35301e+8 
           4970       7.3034e+8 
           4990      7.19066e+8 
           5010       6.9423e+8 
           5030      6.95093e+8 
           5050      6.83497e+8 
           5070       6.7791e+8 
           5090      6.67199e+8 
           5110       6.5685e+8 
           5130      6.45583e+8 
           5150      6.36829e+8 
           5170      6.28289e+8 
           5190      6.20281e+8 
           5210      6.11808e+8 
           5230      6.03006e+8 
           5250      5.92981e+8 
           5270      5.84148e+8 
           5290      5.77814e+8 
           5310      5.69515e+8 
           5330      5.61801e+8 
           5350      5.53923e+8 
           5370      5.46329e+8 
           5390      5.38237e+8 
           5410      5.28189e+8 
           5430      5.24178e+8 
           5450       5.1685e+8 
           5470      5.09614e+8 
           5490      5.02671e+8 
           5510      4.96075e+8 
           5530      4.89019e+8 
           5550      4.83067e+8 
           5570       4.7629e+8 
           5590      4.69283e+8 
           5610      4.63956e+8 
           5630      4.57872e+8 
           5650      4.51344e+8 
           5670      4.44087e+8 
           5690      4.33442e+8 
           5710      4.26691e+8 
           5730      4.21652e+8 
           5750       4.1518e+8 
           5770      4.11356e+8 
           5790      4.05822e+8 
           5810      4.00221e+8 
           5830       3.9462e+8 
           5850      3.91211e+8 
           5870      3.78731e+8 
           5890      3.80627e+8 
           5910      3.77354e+8 
           5930      3.72874e+8 
           5950      3.68754e+8 
           5970      3.65938e+8 
           5990      3.60989e+8 
           6010      3.57423e+8 
           6030      3.52445e+8 
           6050      3.48297e+8 
           6070        3.444e+8 
           6090      3.40232e+8 
           6110      3.35849e+8 
           6130      3.31916e+8 
           6150      3.26902e+8 
           6170      3.23163e+8 
           6190       3.1981e+8 
           6210      3.16161e+8 
           6230      3.12251e+8 
           6250      3.08154e+8 
           6270      3.04696e+8 
           6290      3.01209e+8 
           6310      2.97165e+8 
           6330      2.94096e+8 
           6350      2.90294e+8 
           6370       2.8722e+8 
           6390      2.83755e+8 
           6410      2.80254e+8 
           6430       2.7721e+8 
           6450      2.73783e+8 
           6470      2.69897e+8 
           6490      2.66957e+8 
           6510      2.63897e+8 
           6530       2.6018e+8 
           6550      2.53562e+8 
           6570      2.29346e+8 
           6590      2.50328e+8 
           6610      2.49178e+8 
           6630       2.4664e+8 
           6650      2.43693e+8 
           6670      2.38889e+8 
           6690      2.36082e+8 
           6710       2.3533e+8 
           6730      2.32211e+8 
           6750      2.30184e+8 
           6770      2.27889e+8 
           6790      2.24391e+8 
           6810      2.22734e+8 
           6830      2.20236e+8 
           6850      2.17909e+8 
           6870      2.15404e+8 
           6890      2.12481e+8 
           6910      2.10196e+8 
           6930      2.08569e+8 
           6950      2.06286e+8 
           6970      2.04041e+8 
           6990      2.01796e+8 
           7010      1.99504e+8 
           7030      1.97067e+8 
           7050      1.95162e+8 
           7070       1.9057e+8 
           7090       1.9116e+8 
           7110      1.88424e+8 
           7130      1.86509e+8 
           7150      1.85135e+8 
           7170      1.82909e+8 
           7190      1.81135e+8 
           7210       1.7932e+8 
           7230      1.75742e+8 
           7250      1.75232e+8 
           7270      1.73728e+8 
           7290      1.70756e+8 
           7310      1.70055e+8 
           7330      1.68294e+8 
           7350      1.66591e+8 
           7370      1.64884e+8 
           7390      1.63193e+8 
           7410      1.61503e+8 
           7430      1.59857e+8 
           7450      1.58185e+8 
           7470      1.56131e+8 
           7490       1.5466e+8 
           7510       1.5337e+8 
           7530      1.51772e+8 
           7550      1.50355e+8 
           7570      1.48805e+8 
           7590      1.46963e+8 
           7610      1.45586e+8 
           7630      1.44313e+8 
           7650       1.4289e+8 
           7670      1.41544e+8 
           7690      1.39942e+8 
           7710      1.38615e+8 
           7730      1.37104e+8 
           7750      1.35996e+8 
           7770      1.34654e+8 
           7790       1.3338e+8 
           7810      1.32024e+8 
           7830      1.30779e+8 
           7850      1.29508e+8 
           7870      1.28079e+8 
           7890       1.2677e+8 
           7910      1.25715e+8 
           7930      1.24476e+8 
           7950      1.23392e+8 
           7970      1.22127e+8 
           7990      1.21003e+8 
           8010      1.19795e+8 
           8030      1.18603e+8 
           8050      1.17584e+8 
           8070      1.16464e+8 
           8090      1.15261e+8 
           8110      1.13657e+8 
           8130      1.13212e+8 
           8150      1.12033e+8 
           8170      1.11113e+8 
           8190      1.09605e+8 
           8210      1.08043e+8 
           8230      1.06829e+8 
           8250      1.06312e+8 
           8270      1.04636e+8 
           8290      1.04291e+8 
           8310      1.03446e+8 
           8330      1.02358e+8 
           8350      1.01047e+8 
           8370      1.00408e+8 
           8390      9.97107e+7 
           8410      9.87363e+7 
           8430      9.78602e+7 
           8450      9.65322e+7 
           8470      9.60296e+7 
           8490      9.51282e+7 
           8510      9.37973e+7 
           8530      9.35236e+7 
           8550      9.18395e+7 
           8570      9.25244e+7 
           8590      8.97455e+7 
