# Kurucz ODFNEW /NOVER (2003)
# teff = 10250 K (value for the effective temperature for the model. Temperatures are given in K)
# logg = 2.5 log(cm/s2) (value for Log(G) for the model.)
# meta = -0.5  (value for the Metallicity for the model.)
# lh = 1.25  (l/Hp where l is the  mixing length of the convective element and Hp is the pressure scale height)
# vtur = 2 km/s (Microturbulence velocity)
# alpha = 0.4  (Alpha)
#
# column 1: WAVELENGTH (ANGSTROM), Wavelength in Angstrom
# column 2: FLUX (ERG/CM2/S/A), Flux in erg/cm2/s/A
          268.5     5.29934e-23 
          273.5     2.34693e-22 
          278.5     9.38736e-22 
            284     4.01046e-21 
            290     1.83406e-20 
            296     7.87977e-20 
            301     2.55462e-19 
            308     1.24483e-18 
            318     1.06294e-17 
            328     7.99864e-17 
            338     5.34868e-16 
            348     3.21811e-15 
            357     1.49431e-14 
            366      6.4051e-14 
            375     2.55579e-13 
            385     1.10423e-12 
            395     4.42224e-12 
            405     1.65547e-11 
            414     5.13916e-11 
            422     1.34928e-10 
            430     3.40768e-10 
            441       1.1591e-9 
            451      3.33721e-9 
            460      8.30211e-9 
            470      2.19182e-8 
            480       5.5512e-8 
            490      1.35271e-7 
            500      3.17462e-7 
            506      1.04912e-6 
            512      2.04501e-6 
            520      3.69805e-6 
            530      7.62686e-6 
            540       1.5024e-5 
            550      2.95792e-5 
            560      5.60854e-5 
            570     0.000104036 
            580     0.000185823 
            590     0.000334663 
            600     0.000582978 
            610      0.00099846 
            620      0.00167578 
            630      0.00276724 
            640      0.00448507 
            650      0.00718951 
            658       0.0103596 
            665       0.0141406 
            675        0.021817 
            685       0.0332399 
            695       0.0500213 
            705       0.0742408 
            716        0.113293 
            726         0.16435 
            735        0.227533 
            745        0.323484 
            755        0.455446 
            765        0.634902 
            775        0.877995 
            785         1.20295 
            795         1.63024 
            805         2.19913 
            815         2.94101 
            825         3.90094 
            835         5.11889 
            845         6.71863 
            855         8.72529 
            865         11.2617 
            875         14.4216 
            885         18.4044 
            895          23.317 
            905         29.2805 
            915         1044.75 
            925         7482.85 
            935           12294 
            945         24324.3 
            955          133364 
            965          211545 
            975         47559.6 
            985          794559 
            995      1.07144e+6 
           1005      1.12408e+6 
           1015          486972 
           1025           61001 
           1035          327809 
           1045      1.91272e+6 
           1055      2.86701e+6 
           1065      2.84192e+6 
           1075      3.79068e+6 
           1085       3.9461e+6 
           1095       4.3224e+6 
           1105      1.26956e+7 
           1115      3.88358e+7 
           1125      4.67152e+7 
           1135      5.40138e+7 
           1145      4.98245e+7 
           1155      5.34725e+7 
           1165      5.63307e+7 
           1175      4.68598e+7 
           1185      3.26178e+7 
           1195          377884 
           1205          360326 
           1215         82099.7 
           1225          349685 
           1235      3.30658e+6 
           1245      4.08757e+7 
           1255      6.69731e+7 
           1265      4.10224e+7 
           1275      9.86489e+7 
           1285      1.30724e+8 
           1295      1.01574e+8 
           1305      4.38575e+7 
           1315      1.16738e+8 
           1325      1.40104e+8 
           1335      1.20217e+8 
           1345      1.58478e+8 
           1355       1.5015e+8 
           1365      1.26291e+8 
           1375      1.43112e+8 
           1385      1.48793e+8 
           1395      1.52057e+8 
           1405      1.52728e+8 
           1415      1.40392e+8 
           1425      1.51009e+8 
           1435      1.40322e+8 
           1442      1.54896e+8 
           1447      1.68943e+8 
           1455      1.67756e+8 
           1465      1.55572e+8 
           1475      1.45784e+8 
           1485      1.55028e+8 
           1495      1.64492e+8 
           1505      1.64438e+8 
           1512      1.54189e+8 
           1517      1.64604e+8 
           1525      1.47643e+8 
           1535      1.36097e+8 
           1545      1.65605e+8 
           1555      1.47059e+8 
           1565      1.37954e+8 
           1575      1.44869e+8 
           1585      1.59031e+8 
           1595      1.67453e+8 
           1605      1.56233e+8 
           1615      1.56399e+8 
           1625      1.43095e+8 
           1635      1.49354e+8 
           1645      1.54018e+8 
           1655      1.36088e+8 
           1665       1.5106e+8 
           1672      1.12016e+8 
           1677      1.44325e+8 
           1685      1.58416e+8 
           1695      1.48999e+8 
           1705      1.40012e+8 
           1715      1.36911e+8 
           1725      1.36037e+8 
           1735      1.42921e+8 
           1745      1.41102e+8 
           1755      1.53858e+8 
           1765      1.34319e+8 
           1775      1.46931e+8 
           1785      1.45692e+8 
           1795      1.57788e+8 
           1805      1.50806e+8 
           1815      1.49149e+8 
           1825      1.44216e+8 
           1835      1.39203e+8 
           1845      1.30139e+8 
           1855      1.33119e+8 
           1865       1.3319e+8 
           1875      1.42917e+8 
           1885      1.40143e+8 
           1895      1.35573e+8 
           1905      1.31828e+8 
           1915      1.35232e+8 
           1925        1.362e+8 
           1935      1.36858e+8 
           1945      1.40195e+8 
           1955      1.37207e+8 
           1967      1.42762e+8 
           1976      1.42526e+8 
           1984      1.37474e+8 
           1995      1.32896e+8 
           2005       1.3461e+8 
           2015      1.25965e+8 
           2025       1.3088e+8 
           2035      1.29415e+8 
           2045      1.32999e+8 
           2055       1.2433e+8 
           2065       1.2539e+8 
           2074      1.30418e+8 
           2078      1.32359e+8 
           2085      1.32269e+8 
           2095      1.27498e+8 
           2105      1.25559e+8 
           2115      1.24694e+8 
           2125      1.25826e+8 
           2135      1.09922e+8 
           2145      1.20543e+8 
           2155      1.22518e+8 
           2165      1.17177e+8 
           2175      1.15194e+8 
           2185      1.13787e+8 
           2195      1.20532e+8 
           2205      1.15575e+8 
           2215      1.06602e+8 
           2225      1.03249e+8 
           2235      1.14055e+8 
           2245      1.03443e+8 
           2255      1.01698e+8 
           2265      1.03335e+8 
           2275      1.09286e+8 
           2285      1.11874e+8 
           2295      1.05894e+8 
           2305      1.02609e+8 
           2315      9.89269e+7 
           2325      9.90604e+7 
           2335      9.27344e+7 
           2345      8.72043e+7 
           2355      9.70689e+7 
           2365      8.73859e+7 
           2375      9.21549e+7 
           2385      8.17407e+7 
           2395      8.98735e+7 
           2405      8.50829e+7 
           2415      8.75707e+7 
           2425      9.25323e+7 
           2435      8.82984e+7 
           2445      9.44655e+7 
           2455      9.05472e+7 
           2465      9.06944e+7 
           2475      8.69372e+7 
           2485        9.273e+7 
           2495      8.96582e+7 
           2505      9.65144e+7 
           2513      8.81637e+7 
           2518      9.02381e+7 
           2525      8.42137e+7 
           2535      8.37499e+7 
           2545      8.37154e+7 
           2555       8.7909e+7 
           2565      8.68641e+7 
           2575      9.25599e+7 
           2585      9.17606e+7 
           2595      9.04897e+7 
           2605      8.65098e+7 
           2615      8.61138e+7 
           2625      8.95922e+7 
           2635      9.00529e+7 
           2645      9.78061e+7 
           2655       9.6114e+7 
           2665      8.92728e+7 
           2675      9.29079e+7 
           2685        9.205e+7 
           2695      8.88317e+7 
           2705      9.08431e+7 
           2715      8.68736e+7 
           2725      8.76019e+7 
           2735      9.32831e+7 
           2745      8.12503e+7 
           2755       8.1138e+7 
           2765      8.35186e+7 
           2775      8.84508e+7 
           2785      8.70785e+7 
           2795      6.64627e+7 
           2805      7.46035e+7 
           2815      8.90785e+7 
           2825      8.94875e+7 
           2835      8.61293e+7 
           2845      8.32488e+7 
           2855      8.17469e+7 
           2865      8.54548e+7 
           2875      8.31659e+7 
           2885      8.49712e+7 
           2895      8.24073e+7 
           2910      8.87404e+7 
           2930      8.52774e+7 
           2950      8.51683e+7 
           2970      8.56096e+7 
           2990      8.54964e+7 
           3010      8.67716e+7 
           3030      8.57201e+7 
           3050      8.43161e+7 
           3070      8.27814e+7 
           3090      8.36348e+7 
           3110      8.15343e+7 
           3130      8.08994e+7 
           3150      8.12156e+7 
           3170      8.02803e+7 
           3190      7.78663e+7 
           3210      7.87819e+7 
           3230      7.72351e+7 
           3250      7.73325e+7 
           3270      7.71857e+7 
           3290      7.72699e+7 
           3310      7.71126e+7 
           3330      7.54926e+7 
           3350      7.42582e+7 
           3370      7.41988e+7 
           3390      7.33062e+7 
           3410      7.40201e+7 
           3430      7.35149e+7 
           3450      7.29562e+7 
           3470      7.19393e+7 
           3490      7.14388e+7 
           3510      7.14404e+7 
           3530      7.13013e+7 
           3550      7.08828e+7 
           3570      7.00406e+7 
           3590      6.94787e+7 
           3610      6.90116e+7 
           3630       6.8359e+7 
           3640      6.81005e+7 
           3650       6.9269e+7 
           3670      6.79231e+7 
           3690      6.69868e+7 
           3710      8.03924e+7 
           3730      9.72496e+7 
           3750      1.34146e+8 
           3770      1.35431e+8 
           3790      1.51761e+8 
           3810      1.65567e+8 
           3830      1.37477e+8 
           3850      1.69446e+8 
           3870      1.74896e+8 
           3890      1.28747e+8 
           3910      1.70293e+8 
           3930      1.67796e+8 
           3950      1.67852e+8 
           3970      1.20862e+8 
           3990       1.6271e+8 
           4010      1.62283e+8 
           4030      1.59122e+8 
           4050      1.58691e+8 
           4070      1.55323e+8 
           4090       1.4434e+8 
           4110      1.17668e+8 
           4130       1.4753e+8 
           4150       1.4827e+8 
           4170        1.455e+8 
           4190      1.44217e+8 
           4210      1.42756e+8 
           4230      1.40401e+8 
           4250      1.38428e+8 
           4270      1.36549e+8 
           4290      1.34765e+8 
           4310      1.31417e+8 
           4330      1.18698e+8 
           4350      1.03338e+8 
           4370      1.27629e+8 
           4390      1.24925e+8 
           4410      1.24575e+8 
           4430      1.23103e+8 
           4450      1.21733e+8 
           4470      1.19669e+8 
           4490      1.17191e+8 
           4510      1.16628e+8 
           4530      1.14964e+8 
           4550      1.12585e+8 
           4570      1.12554e+8 
           4590      1.10529e+8 
           4610       1.1054e+8 
           4630      1.07872e+8 
           4650      1.07753e+8 
           4670      1.06203e+8 
           4690      1.05034e+8 
           4710      1.02906e+8 
           4730      1.02441e+8 
           4750      1.01151e+8 
           4770      1.00129e+8 
           4790      9.88828e+7 
           4810      9.74142e+7 
           4830       9.5771e+7 
           4850      8.72151e+7 
           4870      7.31923e+7 
           4890      9.22236e+7 
           4910      9.17083e+7 
           4930      9.01426e+7 
           4950       8.9697e+7 
           4970      8.87371e+7 
           4990      8.75446e+7 
           5010      8.55653e+7 
           5030      8.52078e+7 
           5050      8.34957e+7 
           5070      8.34348e+7 
           5090      8.24823e+7 
           5110      8.13936e+7 
           5130      8.05941e+7 
           5150      7.94807e+7 
           5170      7.80382e+7 
           5190      7.73037e+7 
           5210      7.66946e+7 
           5230      7.55128e+7 
           5250      7.51258e+7 
           5270      7.36804e+7 
           5290      7.35255e+7 
           5310      7.22125e+7 
           5330      7.16755e+7 
           5350      7.11143e+7 
           5370      7.02982e+7 
           5390      6.95194e+7 
           5410      6.86228e+7 
           5430      6.78447e+7 
           5450      6.72526e+7 
           5470       6.6423e+7 
           5490      6.57849e+7 
           5510      6.50142e+7 
           5530      6.43402e+7 
           5550      6.36976e+7 
           5570      6.29896e+7 
           5590      6.23359e+7 
           5610      6.16948e+7 
           5630      6.10409e+7 
           5650       6.0246e+7 
           5670      5.96436e+7 
           5690      5.90913e+7 
           5710      5.84735e+7 
           5730      5.78572e+7 
           5750      5.72355e+7 
           5770       5.6638e+7 
           5790      5.59991e+7 
           5810      5.54189e+7 
           5830      5.48453e+7 
           5850      5.42871e+7 
           5870       5.3498e+7 
           5890      5.30723e+7 
           5910      5.25951e+7 
           5930      5.20748e+7 
           5950      5.13742e+7 
           5970      5.09735e+7 
           5990      5.03155e+7 
           6010      4.99593e+7 
           6030      4.94544e+7 
           6050      4.89262e+7 
           6070      4.84387e+7 
           6090      4.79504e+7 
           6110      4.74745e+7 
           6130      4.69888e+7 
           6150      4.61946e+7 
           6170       4.6047e+7 
           6190      4.56005e+7 
           6210      4.51461e+7 
           6230      4.46761e+7 
           6250      4.40483e+7 
           6270      4.38156e+7 
           6290      4.33803e+7 
           6310      4.29061e+7 
           6330      4.25254e+7 
           6350      4.17198e+7 
           6370      4.14295e+7 
           6390      4.12794e+7 
           6410      4.08517e+7 
           6430      4.04904e+7 
           6450      3.99463e+7 
           6470      3.97249e+7 
           6490      3.92837e+7 
           6510      3.88489e+7 
           6530      3.83162e+7 
           6550      3.59637e+7 
           6570      2.97963e+7 
           6590      3.69737e+7 
           6610      3.70107e+7 
           6630      3.67611e+7 
           6650      3.64432e+7 
           6670      3.60633e+7 
           6690      3.57327e+7 
           6710      3.54262e+7 
           6730      3.50671e+7 
           6750      3.47662e+7 
           6770      3.44501e+7 
           6790      3.41208e+7 
           6810      3.38094e+7 
           6830      3.34784e+7 
           6850      3.31829e+7 
           6870      3.28806e+7 
           6890      3.25844e+7 
           6910      3.22809e+7 
           6930       3.1974e+7 
           6950      3.16974e+7 
           6970      3.14103e+7 
           6990      3.11322e+7 
           7010      3.08022e+7 
           7030      3.05708e+7 
           7050       3.0268e+7 
           7070       2.9996e+7 
           7090       2.9758e+7 
           7110      2.94664e+7 
           7130      2.92191e+7 
           7150      2.89504e+7 
           7170      2.87071e+7 
           7190      2.84536e+7 
           7210      2.82061e+7 
           7230      2.79407e+7 
           7250      2.76907e+7 
           7270      2.74659e+7 
           7290      2.72168e+7 
           7310      2.69751e+7 
           7330      2.67509e+7 
           7350      2.65247e+7 
           7370      2.62963e+7 
           7390      2.60672e+7 
           7410      2.58368e+7 
           7430      2.55757e+7 
           7450      2.53796e+7 
           7470      2.51419e+7 
           7490      2.49501e+7 
           7510      2.47305e+7 
           7530      2.45408e+7 
           7550       2.4335e+7 
           7570      2.41257e+7 
           7590       2.3919e+7 
           7610      2.37251e+7 
           7630      2.35219e+7 
           7650      2.33167e+7 
           7670      2.31261e+7 
           7690      2.29321e+7 
           7710      2.27315e+7 
           7730      2.25541e+7 
           7750       2.2367e+7 
           7770      2.18146e+7 
           7790      2.19963e+7 
           7810       2.1819e+7 
           7830      2.16364e+7 
           7850      2.14272e+7 
           7870      2.12011e+7 
           7890      2.09842e+7 
           7910       2.0933e+7 
           7930      2.07652e+7 
           7950      2.05315e+7 
           7970      2.04316e+7 
           7990      2.00981e+7 
           8010      2.01012e+7 
           8030      1.99399e+7 
           8050      1.97764e+7 
           8070      1.96183e+7 
           8090      1.94621e+7 
           8110      1.93004e+7 
           8130      1.91525e+7 
           8150      1.90002e+7 
           8170      1.88509e+7 
           8190      1.86775e+7 
           8210      1.85687e+7 
           8230      1.83952e+7 
           8250      1.83376e+7 
           8270      1.82408e+7 
           8290      1.80811e+7 
           8310      1.79472e+7 
           8330      1.77525e+7 
           8350      1.75963e+7 
           8370      1.73262e+7 
           8390      1.71731e+7 
           8410      1.69637e+7 
           8430      1.70905e+7 
           8450      1.68478e+7 
           8470      1.62143e+7 
           8490       1.7465e+7 
           8510      1.58755e+7 
           8530      1.76464e+7 
           8550      1.53176e+7 
           8570      1.78396e+7 
           8590      1.65701e+7 
           8610      1.60699e+7 
           8630      1.80598e+7 
           8650      1.76501e+7 
           8670      1.45331e+7 
           8690      1.78357e+7 
           8710      1.80255e+7 
           8730      1.76282e+7 
           8750      1.41628e+7 
           8770      1.69941e+7 
           8790      1.75058e+7 
           8810      1.74026e+7 
           8830      1.71683e+7 
           8850      1.62221e+7 
           8870      1.37185e+7 
           8890      1.66657e+7 
           8910      1.67034e+7 
           8930      1.65923e+7 
           8950      1.65427e+7 
           8970      1.63744e+7 
           8990      1.60881e+7 
           9010      1.34343e+7 
           9030      1.47096e+7 
           9050      1.58024e+7 
           9070      1.56934e+7 
           9090      1.55674e+7 
           9110        1.553e+7 
           9130      1.54236e+7 
           9150      1.53351e+7 
           9170       1.5193e+7 
