# Kurucz ODFNEW /NOVER (2003)
# teff = 18000 K (value for the effective temperature for the model. Temperatures are given in K)
# logg = 4.5 log(cm/s2) (value for Log(G) for the model.)
# meta = -1  (value for the Metallicity for the model.)
# lh = 1.25  (l/Hp where l is the  mixing length of the convective element and Hp is the pressure scale height)
# vtur = 2 km/s (Microturbulence velocity)
# alpha = 0  (Alpha)
#
# column 1: WAVELENGTH (ANGSTROM), Wavelength in Angstrom
# column 2: FLUX (ERG/CM2/S/A), Flux in erg/cm2/s/A
          147.2     5.47764e-23 
            151     6.01964e-22 
          155.2      5.0756e-21 
          158.8     2.82232e-20 
            162     1.21563e-19 
            166     6.98308e-19 
          170.3     4.17997e-18 
          173.4       1.438e-17 
          176.8     5.31006e-17 
          180.2     1.86845e-16 
          181.7     3.20658e-16 
          186.1     1.48959e-15 
            191     7.58591e-15 
          193.9     1.90784e-14 
          198.4      7.5787e-14 
          201.8     2.06963e-13 
            205     5.17964e-13 
          210.5     2.33782e-12 
          216.2     1.02938e-11 
          219.8     2.52447e-11 
            223     5.45894e-11 
          226.8     1.32827e-10 
            230     3.20811e-10 
            234     8.26994e-10 
            240      2.93784e-9 
          246.5      1.07459e-8 
          252.4       3.2928e-8 
          256.8      7.28652e-8 
            260      1.29102e-7 
            264      2.56634e-7 
          268.5       5.4143e-7 
          273.5      1.20489e-6 
          278.5      2.60818e-6 
            284      5.90204e-6 
            290      1.38664e-5 
            296      3.13935e-5 
            301       6.0538e-5 
            308     0.000145701 
            318     0.000480467 
            328      0.00146393 
            338      0.00416386 
            348       0.0111226 
            357       0.0256231 
            366       0.0565758 
            375        0.119881 
            385        0.264429 
            395        0.558726 
            405          1.1353 
            414         2.08296 
            422         3.48882 
            430         5.72225 
            441         10.9613 
            451         19.2013 
            460         31.0926 
            470         51.8877 
            480         84.5843 
            490         134.946 
            500         210.863 
            506         1832.32 
            512         4618.29 
            520         6088.83 
            530         8973.64 
            540         11243.5 
            550         16688.2 
            560         22057.2 
            570         29304.7 
            580         33528.2 
            590         47129.6 
            600         61795.1 
            610         78699.1 
            620           97688 
            630          121846 
            640          147592 
            650          181829 
            658          214110 
            665          242807 
            675          288940 
            685          345196 
            695          415340 
            705          489193 
            716          581640 
            726          677979 
            735          776576 
            745          902752 
            755       1.0425e+6 
            765      1.19181e+6 
            775      1.36723e+6 
            785      1.55656e+6 
            795      1.75965e+6 
            805      1.98758e+6 
            815      2.22836e+6 
            825      2.50671e+6 
            835      2.76723e+6 
            845      3.10575e+6 
            855      3.43735e+6 
            865      3.82643e+6 
            875      4.22665e+6 
            885      4.67871e+6 
            895      5.13813e+6 
            905      5.54038e+6 
            915      9.05213e+6 
            925      2.79963e+7 
            935      6.47773e+7 
            945      3.68649e+8 
            955       1.4607e+9 
            965      2.17245e+9 
            975      5.00523e+8 
            985      4.65405e+9 
            995      5.41145e+9 
           1005      5.77352e+9 
           1015      3.61194e+9 
           1025       2.4319e+8 
           1035      2.48227e+9 
           1045      6.14966e+9 
           1055      6.48684e+9 
           1065      5.79098e+9 
           1075      6.49645e+9 
           1085      6.02716e+9 
           1095      6.41464e+9 
           1105      5.91987e+9 
           1115      5.86173e+9 
           1125      5.54992e+9 
           1135      5.92426e+9 
           1145      5.47066e+9 
           1155       5.6274e+9 
           1165      5.76325e+9 
           1175      5.02679e+9 
           1185      5.46519e+9 
           1195       3.9912e+9 
           1205      2.23009e+9 
           1215      2.41961e+8 
           1225      1.85023e+9 
           1235      4.28321e+9 
           1245      4.90956e+9 
           1255      4.88712e+9 
           1265      4.60322e+9 
           1275      4.87243e+9 
           1285      4.91096e+9 
           1295      4.25718e+9 
           1305      3.96655e+9 
           1315      4.67659e+9 
           1325      4.50133e+9 
           1335      4.23418e+9 
           1345      4.45197e+9 
           1355      4.34546e+9 
           1365      4.17264e+9 
           1375      4.13867e+9 
           1385      4.15257e+9 
           1395      3.97477e+9 
           1405      4.02641e+9 
           1415      3.92925e+9 
           1425      3.90936e+9 
           1435      3.86622e+9 
           1442      3.89436e+9 
           1447      3.85472e+9 
           1455      3.77419e+9 
           1465      3.67264e+9 
           1475      3.61955e+9 
           1485       3.5262e+9 
           1495      3.49638e+9 
           1505      3.39918e+9 
           1512      3.27582e+9 
           1517      3.33432e+9 
           1525      3.28161e+9 
           1535      3.13762e+9 
           1545      3.20067e+9 
           1555      3.05587e+9 
           1565      2.99664e+9 
           1575      3.04907e+9 
           1585      3.03081e+9 
           1595      3.04342e+9 
           1605      2.92577e+9 
           1615      2.89355e+9 
           1625      2.81467e+9 
           1635      2.81487e+9 
           1645      2.78048e+9 
           1655      2.64864e+9 
           1665        2.763e+9 
           1672      2.63938e+9 
           1677      2.68033e+9 
           1685      2.68732e+9 
           1695      2.61518e+9 
           1705        2.529e+9 
           1715      2.46322e+9 
           1725      2.42537e+9 
           1735       2.4607e+9 
           1745      2.39039e+9 
           1755      2.41875e+9 
           1765      2.25284e+9 
           1775      2.32952e+9 
           1785      2.29876e+9 
           1795      2.30982e+9 
           1805      2.27539e+9 
           1815      2.21345e+9 
           1825      2.21482e+9 
           1835      2.16446e+9 
           1845      2.07698e+9 
           1855      2.02268e+9 
           1865      2.01642e+9 
           1875      2.05937e+9 
           1885      1.96241e+9 
           1895      1.90325e+9 
           1905      1.95838e+9 
           1915      1.88887e+9 
           1925      1.86086e+9 
           1935      1.86321e+9 
           1945      1.88075e+9 
           1955      1.79778e+9 
           1967      1.83648e+9 
           1976       1.8469e+9 
           1984      1.78514e+9 
           1995      1.73058e+9 
           2005      1.74606e+9 
           2015      1.72293e+9 
           2025       1.7371e+9 
           2035      1.69069e+9 
           2045      1.67545e+9 
           2055       1.6161e+9 
           2065      1.62416e+9 
           2074      1.63576e+9 
           2078      1.60495e+9 
           2085      1.60962e+9 
           2095      1.56536e+9 
           2105      1.57076e+9 
           2115       1.5556e+9 
           2125      1.55768e+9 
           2135      1.52643e+9 
           2145      1.50568e+9 
           2155      1.50042e+9 
           2165       1.4661e+9 
           2175      1.45034e+9 
           2185       1.4352e+9 
           2195      1.43708e+9 
           2205      1.40424e+9 
           2215      1.37839e+9 
           2225      1.34867e+9 
           2235      1.36567e+9 
           2245      1.34232e+9 
           2255      1.31518e+9 
           2265      1.31335e+9 
           2275      1.30103e+9 
           2285      1.29689e+9 
           2295      1.26651e+9 
           2305      1.25356e+9 
           2315      1.23601e+9 
           2325      1.22791e+9 
           2335      1.19717e+9 
           2345      1.15923e+9 
           2355      1.17366e+9 
           2365      1.14031e+9 
           2375      1.14496e+9 
           2385      1.11133e+9 
           2395      1.12427e+9 
           2405      1.10257e+9 
           2415      1.09365e+9 
           2425      1.09676e+9 
           2435      1.06832e+9 
           2445      1.06761e+9 
           2455      1.06449e+9 
           2465      1.04012e+9 
           2475       1.0313e+9 
           2485      1.03388e+9 
           2495      1.00866e+9 
           2505      1.01744e+9 
           2513      9.95398e+8 
           2518      1.00214e+9 
           2525      9.77096e+8 
           2535       9.6014e+8 
           2545      9.54412e+8 
           2555      9.65077e+8 
           2565      9.49836e+8 
           2575      9.51734e+8 
           2585      9.46246e+8 
           2595      9.36058e+8 
           2605      9.23611e+8 
           2615      9.15514e+8 
           2625      9.05927e+8 
           2635      8.98413e+8 
           2645      9.09134e+8 
           2655      8.99359e+8 
           2665      8.82172e+8 
           2675      8.80854e+8 
           2685      8.74044e+8 
           2695      8.60204e+8 
           2705        8.554e+8 
           2715      8.42211e+8 
           2725      8.30257e+8 
           2735      8.31248e+8 
           2745      8.04153e+8 
           2755      7.99517e+8 
           2765      7.99609e+8 
           2775      8.03053e+8 
           2785      7.93217e+8 
           2795      7.66477e+8 
           2805      7.75338e+8 
           2815      7.76543e+8 
           2825      7.64068e+8 
           2835      7.51328e+8 
           2845      7.47359e+8 
           2855      7.44305e+8 
           2865       7.4178e+8 
           2875      7.32618e+8 
           2885      7.27548e+8 
           2895      7.22171e+8 
           2910      7.13811e+8 
           2930      6.97342e+8 
           2950      6.83459e+8 
           2970      6.75866e+8 
           2990       6.6302e+8 
           3010      6.53864e+8 
           3030      6.43209e+8 
           3050      6.31885e+8 
           3070      6.21001e+8 
           3090      6.10857e+8 
           3110      6.00143e+8 
           3130      5.90614e+8 
           3150      5.80632e+8 
           3170      5.71042e+8 
           3190      5.58055e+8 
           3210      5.52109e+8 
           3230      5.43307e+8 
           3250      5.34572e+8 
           3270      5.26362e+8 
           3290       5.1772e+8 
           3310      5.09832e+8 
           3330      5.01688e+8 
           3350      4.93298e+8 
           3370      4.85868e+8 
           3390      4.78284e+8 
           3410      4.70908e+8 
           3430      4.63063e+8 
           3450      4.55399e+8 
           3470      4.48819e+8 
           3490      4.42112e+8 
           3510      4.35743e+8 
           3530      4.29126e+8 
           3550      4.22601e+8 
           3570      4.16962e+8 
           3590      4.09699e+8 
           3610      4.04102e+8 
           3630      3.97632e+8 
           3640      3.95706e+8 
           3650      3.92268e+8 
           3670      3.87808e+8 
           3690      3.80268e+8 
           3710       3.6868e+8 
           3730      3.52768e+8 
           3750      3.79636e+8 
           3770      3.86115e+8 
           3790      4.25955e+8 
           3810      4.59619e+8 
           3830      3.88186e+8 
           3850      4.84786e+8 
           3870       5.0952e+8 
           3890      3.57557e+8 
           3910      5.03584e+8 
           3930      5.08253e+8 
           3950      4.90418e+8 
           3970      3.36384e+8 
           3990       4.6743e+8 
           4010      4.80561e+8 
           4030      4.52329e+8 
           4050      4.72126e+8 
           4070      4.59469e+8 
           4090      3.95217e+8 
           4110      3.30116e+8 
           4130      4.28547e+8 
           4150      4.31667e+8 
           4170      4.29247e+8 
           4190      4.24644e+8 
           4210      4.18239e+8 
           4230      4.11535e+8 
           4250       4.0498e+8 
           4270      3.96381e+8 
           4290      3.90483e+8 
           4310       3.7912e+8 
           4330      3.18641e+8 
           4350      2.84799e+8 
           4370      3.59608e+8 
           4390      3.51081e+8 
           4410      3.56911e+8 
           4430       3.5097e+8 
           4450      3.47156e+8 
           4470      3.25937e+8 
           4490      3.34775e+8 
           4510      3.32202e+8 
           4530      3.27145e+8 
           4550       3.2231e+8 
           4570       3.1771e+8 
           4590      3.13069e+8 
           4610      3.08533e+8 
           4630      3.03923e+8 
           4650      2.99554e+8 
           4670      2.95336e+8 
           4690      2.91144e+8 
           4710       2.8348e+8 
           4730      2.82435e+8 
           4750      2.78225e+8 
           4770      2.74953e+8 
           4790       2.7033e+8 
           4810      2.65448e+8 
           4830      2.58087e+8 
           4850      2.23531e+8 
           4870      1.94425e+8 
           4890      2.45018e+8 
           4910       2.4687e+8 
           4930      2.39276e+8 
           4950       2.4222e+8 
           4970      2.39207e+8 
           4990      2.35901e+8 
           5010      2.29789e+8 
           5030      2.29425e+8 
           5050      2.24479e+8 
           5070      2.23474e+8 
           5090      2.20485e+8 
           5110      2.17478e+8 
           5130      2.14641e+8 
           5150      2.11755e+8 
           5170      2.09049e+8 
           5190      2.06322e+8 
           5210      2.03312e+8 
           5230      2.00961e+8 
           5250      1.98366e+8 
           5270      1.95765e+8 
           5290      1.93318e+8 
           5310      1.90809e+8 
           5330      1.88372e+8 
           5350      1.85874e+8 
           5370       1.8363e+8 
           5390      1.81297e+8 
           5410      1.78981e+8 
           5430       1.7663e+8 
           5450      1.74486e+8 
           5470      1.72281e+8 
           5490       1.7019e+8 
           5510      1.68051e+8 
           5530         1.66e+8 
           5550      1.63962e+8 
           5570      1.61924e+8 
           5590      1.59948e+8 
           5610       1.5796e+8 
           5630      1.56091e+8 
           5650      1.54008e+8 
           5670      1.52209e+8 
           5690      1.50442e+8 
           5710      1.48662e+8 
           5730      1.46881e+8 
           5750      1.45131e+8 
           5770      1.43403e+8 
           5790      1.41695e+8 
           5810      1.40006e+8 
           5830       1.3836e+8 
           5850      1.36722e+8 
           5870      1.31648e+8 
           5890      1.33308e+8 
           5910      1.31976e+8 
           5930      1.30455e+8 
           5950      1.28866e+8 
           5970      1.27444e+8 
           5990      1.25923e+8 
           6010      1.24533e+8 
           6030      1.23107e+8 
           6050      1.21698e+8 
           6070      1.20314e+8 
           6090      1.18947e+8 
           6110      1.17604e+8 
           6130      1.16276e+8 
           6150      1.14924e+8 
           6170      1.13675e+8 
           6190      1.12411e+8 
           6210      1.11151e+8 
           6230      1.09904e+8 
           6250      1.08652e+8 
           6270      1.07491e+8 
           6290      1.06304e+8 
           6310       1.0512e+8 
           6330      1.03977e+8 
           6350      1.02557e+8 
           6370      1.01561e+8 
           6390      1.00613e+8 
           6410         9.95e+7 
           6430      9.84538e+7 
           6450      9.73733e+7 
           6470      9.63222e+7 
           6490      9.51213e+7 
           6510      9.38177e+7 
           6530      9.19716e+7 
           6550      8.48312e+7 
           6570      7.36957e+7 
           6590      8.77541e+7 
           6610        8.875e+7 
           6630      8.81897e+7 
           6650      8.74982e+7 
           6670      8.59411e+7 
           6690      8.50829e+7 
           6710      8.48359e+7 
           6730      8.39581e+7 
           6750      8.30892e+7 
           6770      8.22374e+7 
           6790      8.13769e+7 
           6810      8.05471e+7 
           6830      7.97183e+7 
           6850      7.89082e+7 
           6870      7.81062e+7 
           6890       7.7313e+7 
           6910      7.65284e+7 
           6930       7.5743e+7 
           6950      7.49934e+7 
           6970      7.42425e+7 
           6990      7.34952e+7 
           7010      7.27591e+7 
           7030      7.20339e+7 
           7050      7.12983e+7 
           7070      6.98554e+7 
           7090      6.99145e+7 
           7110      6.92207e+7 
           7130      6.85417e+7 
           7150      6.78647e+7 
           7170      6.72038e+7 
           7190      6.65477e+7 
           7210      6.58985e+7 
           7230      6.51676e+7 
           7250      6.46215e+7 
           7270      6.39999e+7 
           7290      6.31055e+7 
           7310      6.27705e+7 
           7330       6.2169e+7 
           7350      6.15738e+7 
           7370      6.09855e+7 
           7390      6.04041e+7 
           7410      5.98301e+7 
           7430      5.92559e+7 
           7450      5.87027e+7 
           7470       5.8143e+7 
           7490      5.75979e+7 
           7510      5.70537e+7 
           7530      5.65258e+7 
           7550       5.5998e+7 
           7570      5.54764e+7 
           7590      5.49594e+7 
           7610      5.44504e+7 
           7630       5.3946e+7 
           7650      5.34473e+7 
           7670      5.29551e+7 
           7690      5.24685e+7 
           7710      5.19868e+7 
           7730      5.15114e+7 
           7750      5.10414e+7 
           7770      5.04495e+7 
           7790      5.01175e+7 
           7810      4.96573e+7 
           7830      4.92147e+7 
           7850      4.87619e+7 
           7870      4.83198e+7 
           7890      4.78609e+7 
           7910      4.74813e+7 
           7930      4.70576e+7 
           7950      4.66208e+7 
           7970      4.62216e+7 
           7990      4.57805e+7 
           8010      4.54065e+7 
           8030      4.50053e+7 
           8050      4.46082e+7 
           8070      4.42161e+7 
           8090       4.3821e+7 
           8110      4.34414e+7 
           8130       4.3062e+7 
           8150      4.26853e+7 
           8170       4.2318e+7 
           8190      4.19408e+7 
           8210      4.15238e+7 
           8230      4.11976e+7 
           8250      4.08797e+7 
           8270      4.04839e+7 
           8290       4.0194e+7 
           8310      3.98703e+7 
           8330      3.95341e+7 
           8350      3.91456e+7 
           8370      3.88566e+7 
           8390      3.85522e+7 
           8410      3.82034e+7 
           8430      3.78506e+7 
           8450       3.7421e+7 
           8470      3.70996e+7 
           8490      3.68346e+7 
           8510      3.63042e+7 
           8530      3.62662e+7 
           8550      3.51913e+7 
           8570      3.59818e+7 
           8590      3.45667e+7 
