# Kurucz ODFNEW /NOVER (2003)
# teff = 25000 K (value for the effective temperature for the model. Temperatures are given in K)
# logg = 3 log(cm/s2) (value for Log(G) for the model.)
# meta = -2.5  (value for the Metallicity for the model.)
# lh = 1.25  (l/Hp where l is the  mixing length of the convective element and Hp is the pressure scale height)
# vtur = 2 km/s (Microturbulence velocity)
# alpha = 0.4  (Alpha)
#
# column 1: WAVELENGTH (ANGSTROM), Wavelength in Angstrom
# column 2: FLUX (ERG/CM2/S/A), Flux in erg/cm2/s/A
          147.2     2.67006e-13 
            151     1.19623e-12 
          155.2     5.75971e-12 
          158.8     2.07192e-11 
            162     6.16671e-11 
            166     2.27342e-10 
          170.3     8.59687e-10 
          173.4      2.16108e-9 
          176.8      5.71032e-9 
          180.2      1.45253e-8 
          181.7      2.16773e-8 
          186.1      6.77822e-8 
            191      2.26548e-7 
          193.9      4.48371e-7 
          198.4      1.24621e-6 
          201.8      2.62376e-6 
            205      5.16395e-6 
          210.5      1.56387e-5 
          216.2      4.67881e-5 
          219.8      9.06733e-5 
            223     0.000159839 
          226.8      0.00030666 
            230       0.0256739 
            234       0.0636242 
            240        0.144132 
          246.5        0.339565 
          252.4        0.712646 
          256.8         1.03651 
            260         1.70425 
            264         2.60542 
          268.5         4.22568 
          273.5          7.0262 
          278.5          11.458 
            284         19.3362 
            290         33.1025 
            296         55.1189 
            301         80.2724 
            308         128.188 
            318         307.899 
            328         613.292 
            338         1189.34 
            348         2193.39 
            357         3722.69 
            366         6149.74 
            375         9678.56 
            385         15894.9 
            395         25125.8 
            405         38797.2 
            414         56532.7 
            422         77013.3 
            430          103791 
            441          154602 
            451          218313 
            460          291200 
            470          398047 
            480          533945 
            490          707517 
            500          927086 
            506      8.58763e+6 
            512       2.3639e+7 
            520      2.58416e+7 
            530      3.08317e+7 
            540      3.09458e+7 
            550      3.93567e+7 
            560      4.37503e+7 
            570      4.93378e+7 
            580      4.81741e+7 
            590      5.88124e+7 
            600      6.59109e+7 
            610      7.35063e+7 
            620      8.00001e+7 
            630      8.84341e+7 
            640      9.42283e+7 
            650      1.04379e+8 
            658      1.12071e+8 
            665      1.18379e+8 
            675      1.25407e+8 
            685      1.33414e+8 
            695      1.49857e+8 
            705      1.56892e+8 
            716      1.72817e+8 
            726      1.83606e+8 
            735      1.96445e+8 
            745      2.10932e+8 
            755      2.24078e+8 
            765      2.37898e+8 
            775      2.53978e+8 
            785      2.70033e+8 
            795      2.83573e+8 
            805      3.00075e+8 
            815      3.14179e+8 
            825      3.32535e+8 
            835      3.35894e+8 
            845      3.63911e+8 
            855      3.80437e+8 
            865      3.99102e+8 
            875      4.18734e+8 
            885      4.37785e+8 
            895      4.56087e+8 
            905      4.71104e+8 
            915       1.2377e+9 
            925     1.25877e+10 
            935     1.86808e+10 
            945     2.49356e+10 
            955     2.62357e+10 
            965     2.81755e+10 
            975      1.9539e+10 
            985     2.68107e+10 
            995     2.56721e+10 
           1005     2.63059e+10 
           1015     2.55945e+10 
           1025     2.01706e+10 
           1035     2.47049e+10 
           1045     2.60034e+10 
           1055     2.54857e+10 
           1065     2.39993e+10 
           1075      2.4302e+10 
           1085     2.31873e+10 
           1095     2.40514e+10 
           1105     2.32876e+10 
           1115     2.29621e+10 
           1125     2.17824e+10 
           1135     2.24951e+10 
           1145     2.17852e+10 
           1155      2.1838e+10 
           1165     2.16266e+10 
           1175     1.92225e+10 
           1185     2.08359e+10 
           1195     2.01845e+10 
           1205     1.89122e+10 
           1215     1.45555e+10 
           1225     1.94916e+10 
           1235     1.94408e+10 
           1245     1.89526e+10 
           1255     1.88706e+10 
           1265     1.85551e+10 
           1275     1.83497e+10 
           1285     1.80628e+10 
           1295     1.69993e+10 
           1305     1.71337e+10 
           1315     1.72343e+10 
           1325     1.68564e+10 
           1335     1.63926e+10 
           1345     1.63891e+10 
           1355     1.62238e+10 
           1365     1.59018e+10 
           1375     1.56672e+10 
           1385     1.54716e+10 
           1395     1.45496e+10 
           1405     1.44947e+10 
           1415     1.46836e+10 
           1425     1.44709e+10 
           1435     1.43134e+10 
           1442     1.41976e+10 
           1447     1.40793e+10 
           1455     1.38929e+10 
           1465     1.36797e+10 
           1475     1.34723e+10 
           1485      1.3278e+10 
           1495     1.30581e+10 
           1505     1.27917e+10 
           1512     1.27009e+10 
           1517     1.26104e+10 
           1525     1.24388e+10 
           1535     1.20764e+10 
           1545     1.18257e+10 
           1555     1.16269e+10 
           1565      1.1626e+10 
           1575     1.15284e+10 
           1585     1.13717e+10 
           1595      1.1215e+10 
           1605     1.09169e+10 
           1615     1.07526e+10 
           1625     1.06228e+10 
           1635     1.04833e+10 
           1645     1.01039e+10 
           1655     1.02406e+10 
           1665     1.00734e+10 
           1672      9.97484e+9 
           1677      9.98631e+9 
           1685      9.85071e+9 
           1695      9.68906e+9 
           1705       9.5274e+9 
           1715      9.33131e+9 
           1725      9.20787e+9 
           1735      9.14295e+9 
           1745      9.00122e+9 
           1755      8.88499e+9 
           1765      8.71458e+9 
           1775      8.60662e+9 
           1785      8.50963e+9 
           1795      8.40233e+9 
           1805      8.30278e+9 
           1815      8.16191e+9 
           1825      8.05111e+9 
           1835      7.94681e+9 
           1845      7.75422e+9 
           1855      7.57252e+9 
           1865      7.51363e+9 
           1875      7.48578e+9 
           1885      7.28559e+9 
           1895      7.10745e+9 
           1905      7.14442e+9 
           1915      6.95165e+9 
           1925      6.84769e+9 
           1935      6.81865e+9 
           1945      6.77621e+9 
           1955      6.56601e+9 
           1967      6.57231e+9 
           1976      6.53072e+9 
           1984      6.40121e+9 
           1995      6.23445e+9 
           2005      6.25779e+9 
           2015      6.20075e+9 
           2025      6.13167e+9 
           2035      6.02243e+9 
           2045       5.9407e+9 
           2055      5.59167e+9 
           2065      5.49418e+9 
           2074      5.56869e+9 
           2078      5.50679e+9 
           2085      5.59779e+9 
           2095      5.51932e+9 
           2105      5.49345e+9 
           2115      5.44525e+9 
           2125      5.38219e+9 
           2135       5.3099e+9 
           2145      5.23275e+9 
           2155      5.18057e+9 
           2165      5.10606e+9 
           2175      5.04854e+9 
           2185      4.97608e+9 
           2195      4.92467e+9 
           2205      4.86127e+9 
           2215      4.78983e+9 
           2225      4.73721e+9 
           2235      4.67561e+9 
           2245      4.61947e+9 
           2255      4.55066e+9 
           2265      4.50381e+9 
           2275      4.44764e+9 
           2285      4.39184e+9 
           2295      4.28698e+9 
           2305      4.27405e+9 
           2315       4.2287e+9 
           2325      4.17658e+9 
           2335      4.12305e+9 
           2345      4.07495e+9 
           2355      4.02534e+9 
           2365      3.97608e+9 
           2375       3.9267e+9 
           2385      3.87013e+9 
           2395      3.83079e+9 
           2405      3.78565e+9 
           2415      3.73866e+9 
           2425      3.69495e+9 
           2435      3.64916e+9 
           2445      3.60614e+9 
           2455      3.56344e+9 
           2465      3.52101e+9 
           2475      3.47878e+9 
           2485      3.43754e+9 
           2495      3.29076e+9 
           2505      3.35609e+9 
           2513      3.30248e+9 
           2518      3.30138e+9 
           2525      3.27808e+9 
           2535      3.23996e+9 
           2545      3.19274e+9 
           2555      3.16271e+9 
           2565      3.12722e+9 
           2575      3.09179e+9 
           2585      3.05613e+9 
           2595      3.02093e+9 
           2605      2.99989e+9 
           2615      2.96509e+9 
           2625      2.92882e+9 
           2635      2.89063e+9 
           2645      2.85922e+9 
           2655      2.82495e+9 
           2665      2.79106e+9 
           2675      2.75802e+9 
           2685      2.73757e+9 
           2695      2.69332e+9 
           2705      2.67618e+9 
           2715      2.64622e+9 
           2725      2.60228e+9 
           2735      2.58188e+9 
           2745       2.5587e+9 
           2755      2.53038e+9 
           2765      2.48678e+9 
           2775      2.47511e+9 
           2785      2.44765e+9 
           2795      2.41247e+9 
           2805      2.39233e+9 
           2815      2.36842e+9 
           2825      2.32652e+9 
           2835      2.31211e+9 
           2845      2.29221e+9 
           2855      2.26721e+9 
           2865      2.24287e+9 
           2875      2.21882e+9 
           2885      2.19523e+9 
           2895      2.17164e+9 
           2910      2.13694e+9 
           2930      2.09189e+9 
           2950      2.03769e+9 
           2970      2.00526e+9 
           2990      1.96356e+9 
           3010      1.92267e+9 
           3030      1.88346e+9 
           3050      1.84499e+9 
           3070      1.80752e+9 
           3090      1.76909e+9 
           3110      1.73507e+9 
           3130      1.70139e+9 
           3150      1.66722e+9 
           3170      1.63357e+9 
           3190      1.59076e+9 
           3210      1.56847e+9 
           3230      1.53878e+9 
           3250      1.50863e+9 
           3270      1.48065e+9 
           3290      1.45038e+9 
           3310      1.42421e+9 
           3330      1.39692e+9 
           3350      1.36824e+9 
           3370      1.34439e+9 
           3390       1.3191e+9 
           3410       1.2944e+9 
           3430      1.26539e+9 
           3450      1.23813e+9 
           3470      1.21843e+9 
           3490      1.19668e+9 
           3510       1.1795e+9 
           3530      1.15828e+9 
           3550      1.13747e+9 
           3570       1.1208e+9 
           3590      1.09575e+9 
           3610      1.07719e+9 
           3630      1.05661e+9 
           3640      1.05268e+9 
           3650      1.03937e+9 
           3670      1.02363e+9 
           3690      9.91038e+8 
           3710      9.79506e+8 
           3730      9.69734e+8 
           3750      1.03148e+9 
           3770      1.02234e+9 
           3790      1.02831e+9 
           3810      1.05206e+9 
           3830      9.62106e+8 
           3850      1.04112e+9 
           3870      1.02166e+9 
           3890      9.22199e+8 
           3910      9.96326e+8 
           3930      9.74381e+8 
           3950      9.62872e+8 
           3970      8.55696e+8 
           3990      9.30033e+8 
           4010      9.11572e+8 
           4030      8.82574e+8 
           4050      8.86098e+8 
           4070      8.70383e+8 
           4090      8.45339e+8 
           4110      7.74039e+8 
           4130      8.23478e+8 
           4150      8.10551e+8 
           4170      8.01039e+8 
           4190      7.89205e+8 
           4210      7.76176e+8 
           4230       7.6418e+8 
           4250      7.51769e+8 
           4270      7.39537e+8 
           4290      7.28011e+8 
           4310      7.16281e+8 
           4330      6.90048e+8 
           4350      6.42506e+8 
           4370      6.83036e+8 
           4390      6.65294e+8 
           4410      6.61869e+8 
           4430      6.50377e+8 
           4450      6.41976e+8 
           4470      6.19652e+8 
           4490      6.22404e+8 
           4510      6.12969e+8 
           4530      6.03659e+8 
           4550      5.94032e+8 
           4570      5.85327e+8 
           4590      5.76553e+8 
           4610      5.68034e+8 
           4630       5.5957e+8 
           4650      5.50184e+8 
           4670      5.42891e+8 
           4690      5.33355e+8 
           4710      5.22331e+8 
           4730      5.19439e+8 
           4750      5.11801e+8 
           4770      5.04422e+8 
           4790      4.97099e+8 
           4810       4.8988e+8 
           4830      4.82731e+8 
           4850      4.68091e+8 
           4870      4.30992e+8 
           4890      4.62103e+8 
           4910      4.55783e+8 
           4930      4.43924e+8 
           4950      4.42927e+8 
           4970      4.36777e+8 
           4990      4.30635e+8 
           5010       4.2111e+8 
           5030      4.18706e+8 
           5050       4.1123e+8 
           5070      4.07171e+8 
           5090      4.01549e+8 
           5110      3.96032e+8 
           5130      3.90588e+8 
           5150      3.85259e+8 
           5170      3.80001e+8 
           5190      3.74854e+8 
           5210      3.69789e+8 
           5230      3.64803e+8 
           5250      3.59897e+8 
           5270      3.55082e+8 
           5290      3.50342e+8 
           5310      3.45677e+8 
           5330      3.41085e+8 
           5350      3.36579e+8 
           5370      3.32143e+8 
           5390      3.27776e+8 
           5410      3.23311e+8 
           5430       3.1926e+8 
           5450      3.15107e+8 
           5470      3.11019e+8 
           5490      3.06995e+8 
           5510      3.03045e+8 
           5530      2.99145e+8 
           5550      2.95317e+8 
           5570      2.91537e+8 
           5590      2.87827e+8 
           5610      2.84174e+8 
           5630      2.80578e+8 
           5650      2.77037e+8 
           5670      2.73551e+8 
           5690      2.70084e+8 
           5710      2.66751e+8 
           5730      2.63423e+8 
           5750      2.60124e+8 
           5770      2.56932e+8 
           5790      2.53756e+8 
           5810      2.50639e+8 
           5830      2.47559e+8 
           5850      2.44526e+8 
           5870      2.36521e+8 
           5890      2.38588e+8 
           5910      2.35714e+8 
           5930      2.32863e+8 
           5950      2.30055e+8 
           5970       2.2729e+8 
           5990      2.24567e+8 
           6010      2.21875e+8 
           6030      2.19235e+8 
           6050      2.16625e+8 
           6070      2.14065e+8 
           6090      2.11534e+8 
           6110      2.09041e+8 
           6130      2.06587e+8 
           6150      2.04169e+8 
           6170      2.01779e+8 
           6190      1.99435e+8 
           6210      1.97117e+8 
           6230      1.94834e+8 
           6250      1.92586e+8 
           6270      1.90373e+8 
           6290      1.88183e+8 
           6310      1.86027e+8 
           6330      1.83904e+8 
           6350      1.81813e+8 
           6370      1.79745e+8 
           6390      1.77717e+8 
           6410      1.75711e+8 
           6430      1.73727e+8 
           6450      1.71782e+8 
           6470      1.69858e+8 
           6490      1.67963e+8 
           6510      1.66088e+8 
           6530      1.64233e+8 
           6550      1.60878e+8 
           6570      1.47568e+8 
           6590      1.58662e+8 
           6610      1.57117e+8 
           6630      1.55399e+8 
           6650      1.53776e+8 
           6670      1.51093e+8 
           6690      1.49468e+8 
           6710      1.48821e+8 
           6730      1.47205e+8 
           6750      1.45623e+8 
           6770      1.44057e+8 
           6790      1.42507e+8 
           6810      1.40989e+8 
           6830      1.39486e+8 
           6850      1.37998e+8 
           6870      1.36533e+8 
           6890      1.35083e+8 
           6910      1.33663e+8 
           6930       1.3225e+8 
           6950      1.30874e+8 
           6970      1.29503e+8 
           6990      1.28139e+8 
           7010      1.26818e+8 
           7030      1.25495e+8 
           7050      1.24201e+8 
           7070      1.21208e+8 
           7090      1.21649e+8 
           7110      1.20392e+8 
           7130      1.19162e+8 
           7150      1.17943e+8 
           7170      1.16715e+8 
           7190      1.15549e+8 
           7210       1.1438e+8 
           7230      1.13186e+8 
           7250      1.12067e+8 
           7270      1.10946e+8 
           7290      1.09047e+8 
           7310      1.08712e+8 
           7330      1.07636e+8 
           7350      1.06563e+8 
           7370      1.05507e+8 
           7390      1.04454e+8 
           7410      1.03424e+8 
           7430      1.02397e+8 
           7450        1.014e+8 
           7470      1.00399e+8 
           7490      9.94201e+7 
           7510       9.8417e+7 
           7530       9.7483e+7 
           7550      9.65376e+7 
           7570      9.55943e+7 
           7590      9.46661e+7 
           7610      9.37528e+7 
           7630      9.28478e+7 
           7650      9.19574e+7 
           7670      9.10751e+7 
           7690      9.02006e+7 
           7710       8.9334e+7 
           7730      8.84877e+7 
           7750      8.76364e+7 
           7770      8.68115e+7 
           7790      8.59938e+7 
           7810      8.51278e+7 
           7830      8.43801e+7 
           7850      8.36572e+7 
           7870      8.28737e+7 
           7890      8.20546e+7 
           7910      8.13271e+7 
           7930       8.0522e+7 
           7950      7.97002e+7 
           7970      7.89033e+7 
           7990       7.8255e+7 
           8010      7.74772e+7 
           8030      7.67879e+7 
           8050       7.6122e+7 
           8070      7.54443e+7 
           8090      7.46286e+7 
           8110      7.39917e+7 
           8130      7.34286e+7 
           8150      7.26206e+7 
           8170      7.21131e+7 
           8190      7.14075e+7 
           8210      7.06017e+7 
           8230      7.01533e+7 
           8250      6.95368e+7 
           8270      6.86005e+7 
           8290      6.82041e+7 
           8310      6.76144e+7 
           8330      6.69969e+7 
           8350      6.61414e+7 
           8370      6.56214e+7 
           8390      6.51055e+7 
           8410      6.44873e+7 
           8430      6.38742e+7 
           8450      6.30762e+7 
           8470      6.23586e+7 
           8490      6.25199e+7 
           8510      6.09779e+7 
           8530      6.17071e+7 
           8550      5.91357e+7 
           8570      6.14094e+7 
