# Kurucz ODFNEW /NOVER (2003)
# teff = 23000 K (value for the effective temperature for the model. Temperatures are given in K)
# logg = 3.5 log(cm/s2) (value for Log(G) for the model.)
# meta = -0.5  (value for the Metallicity for the model.)
# lh = 1.25  (l/Hp where l is the  mixing length of the convective element and Hp is the pressure scale height)
# vtur = 2 km/s (Microturbulence velocity)
# alpha = 0.4  (Alpha)
#
# column 1: WAVELENGTH (ANGSTROM), Wavelength in Angstrom
# column 2: FLUX (ERG/CM2/S/A), Flux in erg/cm2/s/A
          147.2     1.45418e-16 
            151     7.21537e-16 
          155.2     3.90586e-15 
          158.8     1.55682e-14 
            162     5.08306e-14 
            166     2.10458e-13 
          170.3     9.04709e-13 
          173.4     2.48747e-12 
          176.8     7.25552e-12 
          180.2     2.03795e-11 
          181.7     3.17691e-11 
          186.1     1.12497e-10 
            191     4.31079e-10 
          193.9     9.25761e-10 
          198.4      2.90405e-9 
          201.8      6.66634e-9 
            205      1.42185e-8 
          210.5      4.96003e-8 
          216.2      1.69455e-7 
          219.8      3.56283e-7 
            223      6.76028e-7 
          226.8      1.41315e-6 
            230      8.18692e-5 
            234     0.000195575 
            240     0.000493274 
          246.5      0.00127944 
          252.4      0.00294987 
          256.8      0.00505795 
            260      0.00820111 
            264       0.0134052 
          268.5        0.023285 
          273.5       0.0416802 
          278.5        0.073736 
            284        0.140232 
            290        0.260839 
            296        0.474782 
            301        0.763222 
            308         1.45809 
            318         3.68221 
            328         8.13836 
            338         18.0793 
            348         37.2549 
            357         99.0264 
            366         184.748 
            375         306.741 
            385         542.582 
            395         945.343 
            405          1549.5 
            414         2411.21 
            422          3404.2 
            430         4885.26 
            441         7744.53 
            451         11552.6 
            460         16056.6 
            470         23219.4 
            480         32649.9 
            490         45825.7 
            500         63200.1 
            506          502348 
            512      2.45918e+6 
            520      2.91617e+6 
            530      3.76676e+6 
            540      4.07452e+6 
            550      5.89429e+6 
            560      6.98379e+6 
            570       8.5981e+6 
            580      8.44595e+6 
            590       1.1304e+7 
            600       1.3218e+7 
            610      1.58548e+7 
            620      1.77516e+7 
            630      2.00106e+7 
            640      2.06971e+7 
            650      1.95079e+7 
            658      2.64263e+7 
            665      2.94645e+7 
            675       3.1143e+7 
            685      3.35538e+7 
            695      4.10294e+7 
            705      4.32095e+7 
            716       4.9309e+7 
            726      5.22764e+7 
            735      5.60842e+7 
            745      6.36732e+7 
            755       6.9183e+7 
            765      7.52139e+7 
            775      8.20792e+7 
            785      8.89393e+7 
            795      9.38269e+7 
            805      9.99457e+7 
            815       1.0491e+8 
            825      1.14587e+8 
            835      1.08979e+8 
            845      1.24501e+8 
            855      1.31006e+8 
            865        1.404e+8 
            875      1.50465e+8 
            885      1.62669e+8 
            895      1.71907e+8 
            905      1.74744e+8 
            915      2.89383e+8 
            925      2.71958e+9 
            935      6.95736e+9 
            945     1.33843e+10 
            955     1.62097e+10 
            965     1.86834e+10 
            975      4.15517e+9 
            985     1.67936e+10 
            995     1.60536e+10 
           1005     1.81751e+10 
           1015     1.80772e+10 
           1025      9.56288e+9 
           1035     1.43285e+10 
           1045     2.09753e+10 
           1055      1.9468e+10 
           1065     1.61015e+10 
           1075     1.85065e+10 
           1085     1.67579e+10 
           1095     1.87955e+10 
           1105     1.64934e+10 
           1115      1.5727e+10 
           1125      1.3505e+10 
           1135     1.74125e+10 
           1145     1.56672e+10 
           1155     1.63609e+10 
           1165     1.64773e+10 
           1175     1.12255e+10 
           1185     1.58426e+10 
           1195     1.39351e+10 
           1205      8.04246e+9 
           1215      7.05775e+9 
           1225     1.31251e+10 
           1235     1.48807e+10 
           1245     1.47731e+10 
           1255     1.44449e+10 
           1265     1.43412e+10 
           1275     1.47779e+10 
           1285     1.44146e+10 
           1295      9.65397e+9 
           1305     1.04193e+10 
           1315     1.38897e+10 
           1325     1.31053e+10 
           1335     1.25677e+10 
           1345      1.2723e+10 
           1355     1.27163e+10 
           1365     1.17747e+10 
           1375     1.15131e+10 
           1385     1.13345e+10 
           1395      8.26219e+9 
           1405      9.09655e+9 
           1415      1.0344e+10 
           1425     1.02192e+10 
           1435     1.04754e+10 
           1442     1.07221e+10 
           1447     1.04916e+10 
           1455     1.02186e+10 
           1465      9.62876e+9 
           1475      9.65189e+9 
           1485      9.46665e+9 
           1495      9.29121e+9 
           1505      8.57986e+9 
           1512      7.81359e+9 
           1517      8.06453e+9 
           1525      8.25034e+9 
           1535      7.23824e+9 
           1545      7.25563e+9 
           1555      6.92642e+9 
           1565      7.34993e+9 
           1575      7.70612e+9 
           1585      7.58925e+9 
           1595      7.60411e+9 
           1605      7.51989e+9 
           1615      7.37043e+9 
           1625      7.26316e+9 
           1635      7.55566e+9 
           1645      7.47076e+9 
           1655      7.34416e+9 
           1665      7.41466e+9 
           1672      7.16701e+9 
           1677      7.57644e+9 
           1685      7.39162e+9 
           1695      7.04227e+9 
           1705      6.79727e+9 
           1715      6.46718e+9 
           1725      6.39926e+9 
           1735      6.55748e+9 
           1745      6.42686e+9 
           1755      6.45352e+9 
           1765      6.29232e+9 
           1775       6.0034e+9 
           1785      6.02902e+9 
           1795      6.18781e+9 
           1805      6.19506e+9 
           1815       5.6294e+9 
           1825       5.8286e+9 
           1835      5.64273e+9 
           1845      5.17999e+9 
           1855       5.1763e+9 
           1865      5.25297e+9 
           1875      5.43208e+9 
           1885      4.89813e+9 
           1895      4.55681e+9 
           1905      4.90887e+9 
           1915      4.65926e+9 
           1925      4.45432e+9 
           1935      4.67654e+9 
           1945      4.73961e+9 
           1955       4.3294e+9 
           1967      4.65064e+9 
           1976      4.84601e+9 
           1984      4.49988e+9 
           1995      4.40837e+9 
           2005      4.52822e+9 
           2015      4.48497e+9 
           2025      4.60027e+9 
           2035      4.22722e+9 
           2045      4.28002e+9 
           2055      4.13998e+9 
           2065      4.16351e+9 
           2074      4.33616e+9 
           2078      3.98751e+9 
           2085      4.14693e+9 
           2095      3.93165e+9 
           2105      4.03747e+9 
           2115      4.03517e+9 
           2125      4.08171e+9 
           2135      4.00596e+9 
           2145       3.7997e+9 
           2155      3.94241e+9 
           2165       3.9191e+9 
           2175      3.85702e+9 
           2185      3.75923e+9 
           2195      3.78135e+9 
           2205      3.75077e+9 
           2215      3.69648e+9 
           2225      3.60466e+9 
           2235      3.55761e+9 
           2245      3.57652e+9 
           2255      3.47515e+9 
           2265      3.49844e+9 
           2275      3.45064e+9 
           2285      3.43818e+9 
           2295       3.2402e+9 
           2305      3.33262e+9 
           2315      3.24828e+9 
           2325      3.21092e+9 
           2335      3.11176e+9 
           2345      3.12049e+9 
           2355      3.11911e+9 
           2365      3.07784e+9 
           2375      3.02539e+9 
           2385      2.99822e+9 
           2395      2.97028e+9 
           2405      2.92159e+9 
           2415      2.88078e+9 
           2425      2.88411e+9 
           2435      2.81097e+9 
           2445      2.80466e+9 
           2455       2.7963e+9 
           2465      2.75146e+9 
           2475      2.71427e+9 
           2485      2.67367e+9 
           2495      2.40882e+9 
           2505      2.60059e+9 
           2513       2.5086e+9 
           2518      2.57001e+9 
           2525      2.54378e+9 
           2535       2.5139e+9 
           2545      2.42381e+9 
           2555      2.46016e+9 
           2565      2.41857e+9 
           2575      2.42737e+9 
           2585      2.39651e+9 
           2595      2.37433e+9 
           2605      2.35991e+9 
           2615      2.32977e+9 
           2625      2.30927e+9 
           2635      2.28293e+9 
           2645      2.26764e+9 
           2655      2.24781e+9 
           2665      2.19145e+9 
           2675        2.187e+9 
           2685      2.17779e+9 
           2695      2.11742e+9 
           2705      2.10436e+9 
           2715      2.09083e+9 
           2725      2.06075e+9 
           2735      2.05337e+9 
           2745      2.00238e+9 
           2755      1.99438e+9 
           2765      1.97175e+9 
           2775      1.97679e+9 
           2785      1.94698e+9 
           2795      1.87843e+9 
           2805      1.89652e+9 
           2815      1.89334e+9 
           2825      1.86259e+9 
           2835      1.81249e+9 
           2845      1.82946e+9 
           2855       1.8041e+9 
           2865      1.79511e+9 
           2875      1.77539e+9 
           2885      1.75962e+9 
           2895      1.73638e+9 
           2910      1.70407e+9 
           2930      1.67154e+9 
           2950      1.62869e+9 
           2970      1.60721e+9 
           2990      1.57087e+9 
           3010      1.52948e+9 
           3030      1.51321e+9 
           3050      1.48582e+9 
           3070      1.45913e+9 
           3090      1.41122e+9 
           3110      1.39909e+9 
           3130      1.36977e+9 
           3150      1.34522e+9 
           3170      1.31679e+9 
           3190      1.28437e+9 
           3210       1.2698e+9 
           3230      1.24268e+9 
           3250      1.22215e+9 
           3270      1.19869e+9 
           3290       1.1749e+9 
           3310      1.15552e+9 
           3330      1.13312e+9 
           3350      1.11151e+9 
           3370      1.09169e+9 
           3390       1.0734e+9 
           3410      1.05446e+9 
           3430      1.03039e+9 
           3450      1.00828e+9 
           3470      9.92251e+8 
           3490       9.7423e+8 
           3510      9.61814e+8 
           3530      9.47228e+8 
           3550      9.30487e+8 
           3570      9.17962e+8 
           3590      8.94579e+8 
           3610      8.79751e+8 
           3630      8.65738e+8 
           3640        8.644e+8 
           3650      8.46068e+8 
           3670      8.36257e+8 
           3690      8.13714e+8 
           3710      7.92319e+8 
           3730      7.74531e+8 
           3750      8.37337e+8 
           3770      8.37224e+8 
           3790      8.65548e+8 
           3810      8.94661e+8 
           3830      7.95377e+8 
           3850      9.02194e+8 
           3870      8.91207e+8 
           3890      7.59006e+8 
           3910      8.80902e+8 
           3930      8.51958e+8 
           3950      8.48519e+8 
           3970       7.0475e+8 
           3990      8.18364e+8 
           4010      8.10034e+8 
           4030      7.72531e+8 
           4050      7.87015e+8 
           4070      7.59581e+8 
           4090      7.21205e+8 
           4110       6.4772e+8 
           4130      7.19737e+8 
           4150      7.14654e+8 
           4170      7.09418e+8 
           4190      7.00387e+8 
           4210      6.92643e+8 
           4230      6.79329e+8 
           4250      6.64399e+8 
           4270      6.47033e+8 
           4290      6.40686e+8 
           4310       6.2654e+8 
           4330       5.8729e+8 
           4350      5.38919e+8 
           4370      5.97262e+8 
           4390      5.84893e+8 
           4410      5.83436e+8 
           4430      5.75722e+8 
           4450      5.67876e+8 
           4470      5.43329e+8 
           4490      5.49095e+8 
           4510      5.44681e+8 
           4530      5.35531e+8 
           4550       5.2703e+8 
           4570      5.18441e+8 
           4590      5.10535e+8 
           4610      5.01701e+8 
           4630      4.94933e+8 
           4650      4.81782e+8 
           4670      4.79495e+8 
           4690      4.74935e+8 
           4710      4.58326e+8 
           4730      4.58752e+8 
           4750      4.51341e+8 
           4770       4.4912e+8 
           4790      4.41995e+8 
           4810      4.33686e+8 
           4830      4.26049e+8 
           4850      4.05069e+8 
           4870      3.65914e+8 
           4890      4.08883e+8 
           4910      4.04434e+8 
           4930      3.91255e+8 
           4950      3.92189e+8 
           4970      3.88642e+8 
           4990      3.82765e+8 
           5010      3.69959e+8 
           5030      3.71743e+8 
           5050      3.62925e+8 
           5070      3.61928e+8 
           5090      3.56574e+8 
           5110      3.51451e+8 
           5130      3.45624e+8 
           5150      3.41169e+8 
           5170      3.37435e+8 
           5190      3.33022e+8 
           5210      3.27236e+8 
           5230      3.24187e+8 
           5250      3.19877e+8 
           5270      3.15297e+8 
           5290      3.11436e+8 
           5310       3.0713e+8 
           5330       3.0296e+8 
           5350      2.98554e+8 
           5370      2.95289e+8 
           5390      2.91221e+8 
           5410      2.87553e+8 
           5430      2.83305e+8 
           5450      2.79682e+8 
           5470      2.76067e+8 
           5490      2.72809e+8 
           5510      2.69418e+8 
           5530      2.65772e+8 
           5550      2.62601e+8 
           5570      2.59103e+8 
           5590      2.55987e+8 
           5610      2.52489e+8 
           5630      2.49581e+8 
           5650      2.45398e+8 
           5670      2.42017e+8 
           5690      2.38899e+8 
           5710      2.36871e+8 
           5730      2.34095e+8 
           5750      2.30704e+8 
           5770      2.28541e+8 
           5790      2.25695e+8 
           5810      2.22883e+8 
           5830      2.19982e+8 
           5850      2.17435e+8 
           5870      2.09363e+8 
           5890      2.11158e+8 
           5910      2.09375e+8 
           5930      2.06754e+8 
           5950      2.04026e+8 
           5970      2.02239e+8 
           5990       1.9942e+8 
           6010      1.97376e+8 
           6030      1.94898e+8 
           6050      1.92685e+8 
           6070      1.90497e+8 
           6090      1.88202e+8 
           6110      1.86043e+8 
           6130      1.83899e+8 
           6150       1.8127e+8 
           6170      1.79454e+8 
           6190      1.77519e+8 
           6210      1.75489e+8 
           6230       1.7349e+8 
           6250      1.71321e+8 
           6270      1.69444e+8 
           6290      1.67549e+8 
           6310      1.65514e+8 
           6330      1.63774e+8 
           6350      1.61399e+8 
           6370      1.59848e+8 
           6390      1.58213e+8 
           6410       1.5642e+8 
           6430      1.54783e+8 
           6450       1.5301e+8 
           6470      1.51085e+8 
           6490      1.49475e+8 
           6510      1.47918e+8 
           6530      1.45944e+8 
           6550      1.41358e+8 
           6570      1.26647e+8 
           6590       1.4008e+8 
           6610      1.39881e+8 
           6630      1.38481e+8 
           6650      1.36968e+8 
           6670      1.34454e+8 
           6690      1.33037e+8 
           6710      1.32672e+8 
           6730      1.31094e+8 
           6750      1.29864e+8 
           6770      1.28481e+8 
           6790      1.26647e+8 
           6810      1.25685e+8 
           6830      1.24303e+8 
           6850      1.23089e+8 
           6870      1.21783e+8 
           6890       1.2045e+8 
           6910      1.19138e+8 
           6930      1.17957e+8 
           6950      1.16764e+8 
           6970       1.1556e+8 
           6990      1.14329e+8 
           7010      1.13149e+8 
           7030       1.1198e+8 
           7050       1.1083e+8 
           7070      1.08011e+8 
           7090      1.08579e+8 
           7110      1.07268e+8 
           7130      1.06215e+8 
           7150      1.05261e+8 
           7170      1.04191e+8 
           7190      1.03168e+8 
           7210      1.02125e+8 
           7230      1.00076e+8 
           7250       9.9969e+7 
           7270      9.90705e+7 
           7290      9.73084e+7 
           7310      9.70868e+7 
           7330        9.613e+7 
           7350      9.51892e+7 
           7370      9.42502e+7 
           7390      9.33199e+7 
           7410      9.23983e+7 
           7430      9.14511e+7 
           7450      9.05943e+7 
           7470      8.95157e+7 
           7490      8.88167e+7 
           7510      8.79368e+7 
           7530      8.70982e+7 
           7550      8.62805e+7 
           7570      8.54504e+7 
           7590      8.46214e+7 
           7610      8.37674e+7 
           7630      8.30052e+7 
           7650      8.22113e+7 
           7670      8.14373e+7 
           7690      8.06575e+7 
           7710      7.98847e+7 
           7730      7.91188e+7 
           7750      7.83848e+7 
           7770      7.73141e+7 
           7790      7.69238e+7 
           7810      7.61413e+7 
           7830      7.54886e+7 
           7850      7.47865e+7 
           7870      7.40663e+7 
           7890      7.32495e+7 
           7910       7.2741e+7 
           7930      7.19852e+7 
           7950      7.11943e+7 
           7970      7.05527e+7 
           7990      6.98459e+7 
           8010      6.92803e+7 
           8030      6.86727e+7 
           8050      6.80819e+7 
           8070      6.75135e+7 
           8090      6.67599e+7 
           8110      6.60988e+7 
           8130       6.5717e+7 
           8150      6.50092e+7 
           8170      6.45671e+7 
           8190      6.38253e+7 
           8210      6.30564e+7 
           8230      6.26057e+7 
           8250      6.21752e+7 
           8270      6.11753e+7 
           8290      6.09901e+7 
           8310      6.04678e+7 
           8330      5.99389e+7 
           8350      5.91172e+7 
           8370      5.87167e+7 
           8390      5.83033e+7 
           8410        5.776e+7 
           8430      5.71735e+7 
           8450      5.62436e+7 
           8470      5.59573e+7 
           8490      5.57358e+7 
           8510      5.47146e+7 
           8530      5.49917e+7 
           8550      5.29877e+7 
           8570      5.48437e+7 
