# Kurucz ODFNEW /NOVER (2003)
# teff = 7750 K (value for the effective temperature for the model. Temperatures are given in K)
# logg = 3.5 log(cm/s2) (value for Log(G) for the model.)
# meta = -0.5  (value for the Metallicity for the model.)
# lh = 1.25  (l/Hp where l is the  mixing length of the convective element and Hp is the pressure scale height)
# vtur = 2 km/s (Microturbulence velocity)
# alpha = 0  (Alpha)
#
# column 1: WAVELENGTH (ANGSTROM), Wavelength in Angstrom
# column 2: FLUX (ERG/CM2/S/A), Flux in erg/cm2/s/A
            328     7.99829e-26 
            338     8.86754e-25 
            348     8.50615e-24 
            357      5.8007e-23 
            366     3.58685e-22 
            375      2.0201e-21 
            385     1.24739e-20 
            395     6.98117e-20 
            405     3.57035e-19 
            414     1.44444e-18 
            422     4.74117e-18 
            430     1.48463e-17 
            441      6.6369e-17 
            451     2.41835e-16 
            460     7.35566e-16 
            470     2.40022e-15 
            480     7.42569e-15 
            490      2.1871e-14 
            500      6.1428e-14 
            506     1.48169e-13 
            512     2.99091e-13 
            520     6.34588e-13 
            530     1.58095e-12 
            540     3.73267e-12 
            550     8.63464e-12 
            560     1.92089e-11 
            570     4.14321e-11 
            580     8.58034e-11 
            590     1.76839e-10 
            600     3.51007e-10 
            610     6.79824e-10 
            620      1.28543e-9 
            630      2.37684e-9 
            640      4.30369e-9 
            650      7.63793e-9 
            658      1.19163e-8 
            665      1.74068e-8 
            675      2.94785e-8 
            685      4.90629e-8 
            695      8.03336e-8 
            705      1.29279e-7 
            716      2.15005e-7 
            726      3.35927e-7 
            735      4.96148e-7 
            745      7.55733e-7 
            755      1.13675e-6 
            765      1.68935e-6 
            775      2.48132e-6 
            785      3.60471e-6 
            795       5.1561e-6 
            805      7.35524e-6 
            815      1.03668e-5 
            825      1.44598e-5 
            835      1.99845e-5 
            845      2.73763e-5 
            855      3.71826e-5 
            865      5.00889e-5 
            875      6.68653e-5 
            885      8.87681e-5 
            895     0.000116872 
            905     0.000152504 
            915        0.141427 
            925        0.502643 
            935        0.667036 
            945        0.882695 
            955         1.21496 
            965         1.56635 
            975         1.87563 
            985         2.46592 
            995         2.99626 
           1005         3.94773 
           1015         4.85875 
           1025          5.5002 
           1035         7.38917 
           1045         9.15894 
           1055         11.2055 
           1065         13.3789 
           1075         16.4569 
           1085         20.0121 
           1095         23.6439 
           1105         65.3632 
           1115         193.503 
           1125         270.828 
           1135         371.838 
           1145         454.049 
           1155         483.442 
           1165         617.268 
           1175         679.088 
           1185         725.142 
           1195         336.465 
           1205         245.524 
           1215         66.8082 
           1225         280.446 
           1235         717.854 
           1245         1506.94 
           1255         2893.71 
           1265         3329.35 
           1275         4945.19 
           1285         7169.66 
           1295         9013.74 
           1305         8762.43 
           1315         12264.9 
           1325         14782.5 
           1335           16671 
           1345         20357.3 
           1355           21360 
           1365         24099.3 
           1375         26563.6 
           1385         28891.6 
           1395         32966.3 
           1405         36659.1 
           1415         39237.9 
           1425         43455.3 
           1435         44254.9 
           1442         51430.2 
           1447         53954.2 
           1455         60535.8 
           1465         61495.6 
           1475         67641.2 
           1485         74417.4 
           1495         83164.4 
           1505         91383.7 
           1512         92925.7 
           1517         99459.8 
           1525          107408 
           1535          216087 
           1545          428460 
           1555          397494 
           1565          310585 
           1575          437503 
           1585          481907 
           1595          503649 
           1605          514064 
           1615          721112 
           1625      1.02323e+6 
           1635      1.72509e+6 
           1645      3.43425e+6 
           1655      2.09943e+6 
           1665      4.67993e+6 
           1672      2.54802e+6 
           1677      5.94632e+6 
           1685      7.85655e+6 
           1695      6.96399e+6 
           1705      7.88766e+6 
           1715      1.01618e+7 
           1725      1.05247e+7 
           1735      1.25363e+7 
           1745      1.19735e+7 
           1755      1.42826e+7 
           1765      1.03769e+7 
           1775      1.33515e+7 
           1785      1.33643e+7 
           1795       1.6464e+7 
           1805        1.407e+7 
           1815      1.52225e+7 
           1825      1.33414e+7 
           1835      1.32535e+7 
           1845      1.14789e+7 
           1855      1.28597e+7 
           1865      1.42559e+7 
           1875      1.40485e+7 
           1885      1.44904e+7 
           1895      1.54174e+7 
           1905      1.41722e+7 
           1915      1.55418e+7 
           1925      1.55292e+7 
           1935      1.21444e+7 
           1945      1.66196e+7 
           1955      1.68078e+7 
           1967      1.82499e+7 
           1976      1.77897e+7 
           1984      1.70819e+7 
           1995      1.66271e+7 
           2005      1.56942e+7 
           2015       1.5497e+7 
           2025      1.42492e+7 
           2035      1.63065e+7 
           2045       1.7813e+7 
           2055      1.69148e+7 
           2065      1.62222e+7 
           2074      1.88764e+7 
           2078      1.97016e+7 
           2085      1.89889e+7 
           2095      1.79214e+7 
           2105      1.67278e+7 
           2115      1.72337e+7 
           2125      1.77685e+7 
           2135      1.41618e+7 
           2145      1.69433e+7 
           2155      1.69243e+7 
           2165      1.56986e+7 
           2175      1.55434e+7 
           2185      1.64391e+7 
           2195      1.79731e+7 
           2205      1.71588e+7 
           2215      1.52013e+7 
           2225       1.5132e+7 
           2235      1.79238e+7 
           2245      1.59302e+7 
           2255      1.48817e+7 
           2265        1.481e+7 
           2275      1.62283e+7 
           2285      1.70087e+7 
           2295      1.54604e+7 
           2305      1.61724e+7 
           2315      1.57785e+7 
           2325      1.54047e+7 
           2335      1.35028e+7 
           2345      1.11676e+7 
           2355      1.53381e+7 
           2365      1.17352e+7 
           2375      1.39394e+7 
           2385      1.00921e+7 
           2395      1.18824e+7 
           2405      1.15278e+7 
           2415      1.20365e+7 
           2425      1.47972e+7 
           2435      1.43309e+7 
           2445      1.55184e+7 
           2455      1.52398e+7 
           2465      1.53228e+7 
           2475      1.41039e+7 
           2485      1.44342e+7 
           2495      1.36935e+7 
           2505      1.67723e+7 
           2513      1.39735e+7 
           2518      1.42205e+7 
           2525      1.27709e+7 
           2535      1.19516e+7 
           2545      1.18201e+7 
           2555      1.35427e+7 
           2565      1.33096e+7 
           2575      1.50661e+7 
           2585      1.51437e+7 
           2595      1.46221e+7 
           2605      1.36746e+7 
           2615      1.29162e+7 
           2625       1.5485e+7 
           2635      1.60665e+7 
           2645      1.93383e+7 
           2655      1.96455e+7 
           2665       1.6869e+7 
           2675      1.81804e+7 
           2685      1.82679e+7 
           2695      1.66968e+7 
           2705      1.74921e+7 
           2715      1.59345e+7 
           2725      1.62607e+7 
           2735      1.78624e+7 
           2745      1.34132e+7 
           2755      1.46001e+7 
           2765      1.55704e+7 
           2775      1.76153e+7 
           2785       1.6335e+7 
           2795      8.57573e+6 
           2805      1.06344e+7 
           2815      1.84276e+7 
           2825       1.9351e+7 
           2835      1.84764e+7 
           2845      1.75904e+7 
           2855       1.6244e+7 
           2865       1.8421e+7 
           2875      1.79987e+7 
           2885      1.83634e+7 
           2895      1.74169e+7 
           2910      2.01131e+7 
           2930      1.92264e+7 
           2950      1.90371e+7 
           2970      1.97348e+7 
           2990      1.98615e+7 
           3010      2.01706e+7 
           3030      2.00595e+7 
           3050      2.00751e+7 
           3070      2.02333e+7 
           3090      2.05656e+7 
           3110      2.00079e+7 
           3130      1.99395e+7 
           3150      2.05835e+7 
           3170      2.05406e+7 
           3190      1.93475e+7 
           3210      1.99554e+7 
           3230      1.91591e+7 
           3250      1.99109e+7 
           3270      2.03291e+7 
           3290      2.05522e+7 
           3310      2.08454e+7 
           3330      2.03903e+7 
           3350      2.01411e+7 
           3370      1.99628e+7 
           3390      2.00423e+7 
           3410      2.02563e+7 
           3430       2.0472e+7 
           3450      2.03008e+7 
           3470      2.00609e+7 
           3490      2.00435e+7 
           3510      2.04414e+7 
           3530      2.03691e+7 
           3550         2.08e+7 
           3570      2.00137e+7 
           3590      1.99044e+7 
           3610      1.99952e+7 
           3630      2.01926e+7 
           3640      1.99511e+7 
           3650      2.06769e+7 
           3670      2.04824e+7 
           3690      1.96033e+7 
           3710      2.14576e+7 
           3730      2.29137e+7 
           3750      2.93079e+7 
           3770      3.13541e+7 
           3790      3.79638e+7 
           3810      4.38001e+7 
           3830      3.49098e+7 
           3850      4.79194e+7 
           3870      5.30197e+7 
           3890      3.22528e+7 
           3910      5.27339e+7 
           3930      4.78543e+7 
           3950      5.25985e+7 
           3970      3.00434e+7 
           3990      5.19751e+7 
           4010      5.74064e+7 
           4030      5.73158e+7 
           4050      5.67075e+7 
           4070      5.40911e+7 
           4090      4.43726e+7 
           4110      3.44701e+7 
           4130      5.20604e+7 
           4150      5.45041e+7 
           4170      5.43183e+7 
           4190      5.36444e+7 
           4210      5.35397e+7 
           4230      5.22219e+7 
           4250      5.22551e+7 
           4270      5.09961e+7 
           4290      5.06629e+7 
           4310      4.69672e+7 
           4330      3.78339e+7 
           4350      3.25334e+7 
           4370      4.74342e+7 
           4390      4.84593e+7 
           4410      4.78425e+7 
           4430      4.77187e+7 
           4450      4.78614e+7 
           4470      4.74944e+7 
           4490      4.71022e+7 
           4510       4.7554e+7 
           4530      4.61785e+7 
           4550      4.53677e+7 
           4570       4.6245e+7 
           4590      4.50739e+7 
           4610      4.55558e+7 
           4630      4.44883e+7 
           4650      4.46047e+7 
           4670      4.43392e+7 
           4690      4.31483e+7 
           4710      4.17739e+7 
           4730      4.29689e+7 
           4750      4.27263e+7 
           4770      4.21304e+7 
           4790      4.15822e+7 
           4810      4.07894e+7 
           4830      3.90344e+7 
           4850      3.14148e+7 
           4870      2.54802e+7 
           4890      3.68787e+7 
           4910      3.85869e+7 
           4930      3.81629e+7 
           4950      3.84855e+7 
           4970      3.85943e+7 
           4990       3.7641e+7 
           5010      3.67092e+7 
           5030      3.72443e+7 
           5050      3.66677e+7 
           5070       3.6826e+7 
           5090       3.6367e+7 
           5110      3.61709e+7 
           5130      3.55759e+7 
           5150      3.49876e+7 
           5170      3.41283e+7 
           5190      3.38798e+7 
           5210      3.39283e+7 
           5230      3.35178e+7 
           5250      3.39395e+7 
           5270      3.24615e+7 
           5290      3.31899e+7 
           5310      3.27439e+7 
           5330      3.19523e+7 
           5350      3.23956e+7 
           5370      3.19092e+7 
           5390      3.16508e+7 
           5410      3.11095e+7 
           5430      3.10622e+7 
           5450      3.09666e+7 
           5470      3.06914e+7 
           5490       3.0542e+7 
           5510       3.0302e+7 
           5530      2.99071e+7 
           5550      2.98668e+7 
           5570      2.94293e+7 
           5590      2.91046e+7 
           5610      2.89561e+7 
           5630       2.8866e+7 
           5650      2.85723e+7 
           5670      2.82317e+7 
           5690      2.81057e+7 
           5710      2.78433e+7 
           5730      2.77686e+7 
           5750      2.74424e+7 
           5770      2.72502e+7 
           5790      2.69938e+7 
           5810      2.67971e+7 
           5830      2.65936e+7 
           5850      2.63163e+7 
           5870      2.61143e+7 
           5890      2.55963e+7 
           5910      2.56822e+7 
           5930      2.54696e+7 
           5950      2.52593e+7 
           5970      2.50639e+7 
           5990      2.48118e+7 
           6010      2.45551e+7 
           6030      2.43873e+7 
           6050      2.42243e+7 
           6070      2.40629e+7 
           6090       2.3831e+7 
           6110      2.36036e+7 
           6130      2.32693e+7 
           6150      2.29887e+7 
           6170      2.28518e+7 
           6190      2.28784e+7 
           6210      2.27078e+7 
           6230      2.24477e+7 
           6250      2.20478e+7 
           6270       2.2167e+7 
           6290      2.19911e+7 
           6310      2.17194e+7 
           6330       2.1589e+7 
           6350      2.13317e+7 
           6370      2.11831e+7 
           6390      2.10849e+7 
           6410      2.08123e+7 
           6430      2.07067e+7 
           6450      2.03693e+7 
           6470      2.03048e+7 
           6490      1.99884e+7 
           6510      1.98107e+7 
           6530      1.92602e+7 
           6550      1.69931e+7 
           6570      1.36937e+7 
           6590      1.82743e+7 
           6610      1.89744e+7 
           6630      1.90452e+7 
           6650      1.89666e+7 
           6670      1.88319e+7 
           6690      1.87489e+7 
           6710      1.86063e+7 
           6730      1.84701e+7 
           6750      1.82872e+7 
           6770      1.82032e+7 
           6790      1.80585e+7 
           6810      1.79217e+7 
           6830      1.77669e+7 
           6850      1.76304e+7 
           6870      1.75167e+7 
           6890      1.73874e+7 
           6910      1.72537e+7 
           6930       1.7119e+7 
           6950      1.69925e+7 
           6970       1.6861e+7 
           6990      1.67415e+7 
           7010      1.65618e+7 
           7030      1.64639e+7 
           7050      1.63608e+7 
           7070      1.62419e+7 
           7090      1.61227e+7 
           7110      1.58309e+7 
           7130      1.58356e+7 
           7150      1.57317e+7 
           7170      1.56154e+7 
           7190      1.54821e+7 
           7210      1.53847e+7 
           7230       1.5273e+7 
           7250      1.51581e+7 
           7270      1.50748e+7 
           7290      1.49206e+7 
           7310      1.48278e+7 
           7330      1.47189e+7 
           7350      1.46396e+7 
           7370      1.45401e+7 
           7390      1.44036e+7 
           7410      1.42594e+7 
           7430      1.41602e+7 
           7450      1.40775e+7 
           7470      1.39394e+7 
           7490      1.38523e+7 
           7510      1.37867e+7 
           7530      1.37036e+7 
           7550      1.36278e+7 
           7570       1.3519e+7 
           7590      1.34276e+7 
           7610      1.33311e+7 
           7630      1.32393e+7 
           7650      1.31335e+7 
           7670      1.30074e+7 
           7690      1.29386e+7 
           7710      1.28335e+7 
           7730      1.27754e+7 
           7750      1.26707e+7 
           7770      1.23946e+7 
           7790      1.25167e+7 
           7810       1.2423e+7 
           7830      1.23111e+7 
           7850      1.22087e+7 
           7870       1.2126e+7 
           7890       1.2035e+7 
           7910      1.19627e+7 
           7930      1.18587e+7 
           7950      1.17771e+7 
           7970      1.17531e+7 
           7990      1.16247e+7 
           8010      1.15755e+7 
           8030      1.14904e+7 
           8050      1.14195e+7 
           8070      1.13433e+7 
           8090      1.12596e+7 
           8110      1.12007e+7 
           8130      1.11286e+7 
           8150      1.10513e+7 
           8170      1.09764e+7 
           8190      1.08038e+7 
           8210      1.07848e+7 
           8230      1.07024e+7 
           8250      1.06356e+7 
           8270      1.06399e+7 
           8290      1.05672e+7 
           8310       1.0488e+7 
           8330        1.034e+7 
           8350      1.03527e+7 
           8370      1.02758e+7 
           8390      1.01691e+7 
           8410      1.01032e+7 
           8430      1.00389e+7 
           8450      9.88854e+6 
           8470      9.72321e+6 
           8490      9.93408e+6 
           8510      9.32979e+6 
           8530      9.89757e+6 
           8550      8.73869e+6 
           8570      9.94337e+6 
           8590      9.30998e+6 
           8610      9.05233e+6 
           8630      9.94014e+6 
           8650      9.61177e+6 
           8670      7.98877e+6 
           8690      9.64321e+6 
           8710      9.95106e+6 
           8730      9.63068e+6 
           8750      7.82761e+6 
           8770      9.25012e+6 
           8790      9.81268e+6 
           8810      9.80944e+6 
           8830      9.58676e+6 
           8850      8.78638e+6 
           8870      7.54398e+6 
           8890       9.2328e+6 
           8910      9.51598e+6 
           8930      9.53718e+6 
           8950      9.55057e+6 
           8970      9.39566e+6 
           8990      9.02481e+6 
           9010      7.38515e+6 
           9030      8.08014e+6 
           9050      8.99017e+6 
           9070      8.99957e+6 
           9090       8.9208e+6 
           9110      9.06098e+6 
           9130      9.07646e+6 
           9150      9.02063e+6 
           9170      8.90785e+6 
           9190      8.70898e+6 
           9210      8.16178e+6 
           9230       6.5628e+6 
           9250      7.89145e+6 
           9270      8.34713e+6 
           9290      8.57444e+6 
           9310      8.58024e+6 
           9330      8.54306e+6 
           9350      8.50483e+6 
