# Kurucz ODFNEW /NOVER (2003)
# teff = 19000 K (value for the effective temperature for the model. Temperatures are given in K)
# logg = 3 log(cm/s2) (value for Log(G) for the model.)
# meta = -1  (value for the Metallicity for the model.)
# lh = 1.25  (l/Hp where l is the  mixing length of the convective element and Hp is the pressure scale height)
# vtur = 2 km/s (Microturbulence velocity)
# alpha = 0.4  (Alpha)
#
# column 1: WAVELENGTH (ANGSTROM), Wavelength in Angstrom
# column 2: FLUX (ERG/CM2/S/A), Flux in erg/cm2/s/A
          147.2      1.3041e-21 
            151     9.02624e-21 
          155.2     6.85907e-20 
          158.8      3.6017e-19 
            162     1.48573e-18 
            166     8.13025e-18 
          170.3     4.64682e-17 
          173.4     1.55265e-16 
          176.8     5.56665e-16 
          180.2     1.90604e-15 
          181.7     3.23465e-15 
          186.1     1.45663e-14 
            191     7.19102e-14 
          193.9     1.78258e-13 
          198.4      6.9277e-13 
          201.8      1.8575e-12 
            205     4.56333e-12 
          210.5     2.00751e-11 
          216.2     8.61178e-11 
          219.8     2.07781e-10 
            223     4.43781e-10 
          226.8      1.06255e-9 
            230      8.51309e-9 
            234      2.24974e-8 
            240      7.25662e-8 
          246.5      2.41157e-7 
          252.4      6.85207e-7 
          256.8      1.41109e-6 
            260       2.4294e-6 
            264       4.5895e-6 
          268.5      9.15953e-6 
          273.5       1.9197e-5 
          278.5      3.92791e-5 
            284      8.38972e-5 
            290     0.000185068 
            296     0.000394483 
            301     0.000724926 
            308      0.00161876 
            318      0.00496338 
            328       0.0138801 
            338        0.036811 
            348       0.0916626 
            357         0.20092 
            366        0.421344 
            375        0.843151 
            385         1.75922 
            395         3.51799 
            405         6.79457 
            414         11.9572 
            422         19.2541 
            430         30.4155 
            441         55.7459 
            451         93.9856 
            460         146.917 
            470         236.509 
            480         372.102 
            490          574.54 
            500         870.124 
            506         8802.46 
            512         31728.5 
            520         41667.3 
            530         63354.6 
            540           71713 
            550          112942 
            560          142691 
            570          186057 
            580          188521 
            590          266405 
            600          355245 
            610          447904 
            620          536212 
            630          651118 
            640          749623 
            650          878818 
            658      1.06502e+6 
            665      1.17502e+6 
            675      1.33626e+6 
            685      1.54859e+6 
            695      1.87115e+6 
            705      2.12845e+6 
            716      2.49852e+6 
            726      2.80977e+6 
            735      3.16077e+6 
            745      3.65784e+6 
            755      4.14629e+6 
            765      4.66386e+6 
            775      5.27205e+6 
            785      5.91249e+6 
            795      6.51502e+6 
            805      7.22967e+6 
            815      7.91544e+6 
            825      8.83283e+6 
            835      9.37683e+6 
            845      1.04584e+7 
            855      1.14185e+7 
            865      1.25456e+7 
            875      1.37741e+7 
            885      1.51279e+7 
            895      1.63875e+7 
            905      1.72462e+7 
            915      3.38547e+7 
            925      4.32385e+8 
            935      1.54949e+9 
            945       3.6605e+9 
            955      4.74906e+9 
            965       5.7491e+9 
            975       1.4869e+9 
            985      5.90396e+9 
            995      5.61237e+9 
           1005      6.20096e+9 
           1015      6.04391e+9 
           1025      2.56812e+9 
           1035      4.60843e+9 
           1045      7.08076e+9 
           1055      6.68214e+9 
           1065      5.79065e+9 
           1075       6.6262e+9 
           1085      6.01884e+9 
           1095      6.74454e+9 
           1105      5.97201e+9 
           1115      5.82931e+9 
           1125      5.45913e+9 
           1135      6.45651e+9 
           1145      5.93733e+9 
           1155      6.21818e+9 
           1165      6.35698e+9 
           1175       5.0729e+9 
           1185      6.31994e+9 
           1195      5.16648e+9 
           1205      2.98732e+9 
           1215      1.80022e+9 
           1225       4.8613e+9 
           1235      5.81066e+9 
           1245      5.97921e+9 
           1255      5.79676e+9 
           1265      5.57811e+9 
           1275      5.84343e+9 
           1285      5.73618e+9 
           1295      4.16575e+9 
           1305      4.24815e+9 
           1315      5.56873e+9 
           1325      5.33006e+9 
           1335       4.9681e+9 
           1345      5.24436e+9 
           1355      5.23987e+9 
           1365      4.94056e+9 
           1375      4.89407e+9 
           1385      4.92362e+9 
           1395      4.23476e+9 
           1405      4.46268e+9 
           1415      4.63972e+9 
           1425      4.61231e+9 
           1435      4.66936e+9 
           1442      4.74081e+9 
           1447      4.66043e+9 
           1455      4.56999e+9 
           1465      4.41619e+9 
           1475      4.36569e+9 
           1485      4.28061e+9 
           1495      4.22674e+9 
           1505      4.02239e+9 
           1512      3.78057e+9 
           1517      3.88976e+9 
           1525      3.91693e+9 
           1535      3.61968e+9 
           1545       3.7076e+9 
           1555      3.53168e+9 
           1565      3.62544e+9 
           1575      3.72519e+9 
           1585      3.67518e+9 
           1595      3.69825e+9 
           1605      3.59981e+9 
           1615      3.55898e+9 
           1625      3.50375e+9 
           1635      3.57292e+9 
           1645      3.53073e+9 
           1655      3.43262e+9 
           1665      3.51178e+9 
           1672      3.39956e+9 
           1677      3.48755e+9 
           1685      3.45664e+9 
           1695      3.33743e+9 
           1705      3.22155e+9 
           1715       3.0952e+9 
           1725      3.07866e+9 
           1735      3.12562e+9 
           1745      3.06206e+9 
           1755      3.09539e+9 
           1765       2.9465e+9 
           1775      2.92595e+9 
           1785      2.91419e+9 
           1795       2.9681e+9 
           1805      2.94941e+9 
           1815      2.77221e+9 
           1825      2.83331e+9 
           1835      2.76604e+9 
           1845      2.58762e+9 
           1855      2.53253e+9 
           1865      2.56383e+9 
           1875      2.65164e+9 
           1885      2.44864e+9 
           1895      2.31103e+9 
           1905      2.45625e+9 
           1915      2.35054e+9 
           1925      2.28246e+9 
           1935      2.35583e+9 
           1945      2.37598e+9 
           1955      2.21936e+9 
           1967      2.33822e+9 
           1976      2.40544e+9 
           1984       2.2697e+9 
           1995       2.2137e+9 
           2005      2.25455e+9 
           2015      2.24012e+9 
           2025      2.28677e+9 
           2035      2.15391e+9 
           2045      2.15767e+9 
           2055      2.09042e+9 
           2065      2.11625e+9 
           2074      2.17377e+9 
           2078      2.05819e+9 
           2085      2.09855e+9 
           2095      2.01187e+9 
           2105      2.04467e+9 
           2115       2.0338e+9 
           2125       2.0605e+9 
           2135      2.02001e+9 
           2145      1.94398e+9 
           2155       1.9895e+9 
           2165      1.96626e+9 
           2175      1.94098e+9 
           2185       1.9096e+9 
           2195      1.91398e+9 
           2205      1.88627e+9 
           2215      1.85945e+9 
           2225      1.81895e+9 
           2235      1.81455e+9 
           2245      1.81016e+9 
           2255      1.76614e+9 
           2265      1.77341e+9 
           2275      1.75225e+9 
           2285      1.74813e+9 
           2295      1.69088e+9 
           2305      1.69914e+9 
           2315      1.66502e+9 
           2325      1.65024e+9 
           2335      1.60062e+9 
           2345      1.58179e+9 
           2355       1.5961e+9 
           2365      1.56236e+9 
           2375      1.55217e+9 
           2385      1.52699e+9 
           2395      1.52747e+9 
           2405      1.50307e+9 
           2415      1.48167e+9 
           2425      1.49029e+9 
           2435      1.45635e+9 
           2445      1.45164e+9 
           2455      1.44828e+9 
           2465       1.4205e+9 
           2475       1.4083e+9 
           2485      1.39736e+9 
           2495      1.34484e+9 
           2505      1.37021e+9 
           2513      1.32803e+9 
           2518      1.34671e+9 
           2525      1.32767e+9 
           2535      1.30754e+9 
           2545      1.28077e+9 
           2555      1.29927e+9 
           2565      1.27456e+9 
           2575      1.28042e+9 
           2585       1.2685e+9 
           2595      1.25651e+9 
           2605      1.25093e+9 
           2615      1.23808e+9 
           2625      1.22489e+9 
           2635      1.21018e+9 
           2645      1.21564e+9 
           2655       1.2042e+9 
           2665      1.18229e+9 
           2675      1.17837e+9 
           2685      1.17264e+9 
           2695      1.14875e+9 
           2705      1.14609e+9 
           2715      1.13286e+9 
           2725      1.11345e+9 
           2735      1.11404e+9 
           2745      1.08204e+9 
           2755      1.07777e+9 
           2765      1.07019e+9 
           2775      1.07447e+9 
           2785       1.0607e+9 
           2795      1.02375e+9 
           2805       1.0349e+9 
           2815      1.03455e+9 
           2825      1.01709e+9 
           2835      9.96381e+8 
           2845      1.00061e+9 
           2855      9.92962e+8 
           2865      9.87327e+8 
           2875      9.76551e+8 
           2885      9.68661e+8 
           2895      9.59329e+8 
           2910      9.45549e+8 
           2930      9.24523e+8 
           2950      9.04887e+8 
           2970      8.94791e+8 
           2990      8.75991e+8 
           3010       8.6127e+8 
           3030       8.4842e+8 
           3050      8.33118e+8 
           3070      8.18421e+8 
           3090      8.00995e+8 
           3110      7.89013e+8 
           3130      7.76154e+8 
           3150      7.62305e+8 
           3170      7.48555e+8 
           3190      7.30054e+8 
           3210       7.2296e+8 
           3230      7.10495e+8 
           3250      6.98639e+8 
           3270      6.87477e+8 
           3290      6.74967e+8 
           3310      6.64772e+8 
           3330      6.53549e+8 
           3350      6.41405e+8 
           3370      6.31857e+8 
           3390      6.21539e+8 
           3410      6.11419e+8 
           3430       5.9877e+8 
           3450      5.87131e+8 
           3470      5.79194e+8 
           3490      5.70409e+8 
           3510       5.6408e+8 
           3530        5.555e+8 
           3550      5.46747e+8 
           3570      5.39899e+8 
           3590      5.28756e+8 
           3610      5.20543e+8 
           3630      5.12392e+8 
           3640       5.1106e+8 
           3650      5.02805e+8 
           3670      4.96277e+8 
           3690      4.78572e+8 
           3710      4.83636e+8 
           3730      4.90919e+8 
           3750       5.5401e+8 
           3770      5.57345e+8 
           3790      5.74453e+8 
           3810       5.9696e+8 
           3830      5.29849e+8 
           3850       6.0475e+8 
           3870      5.97358e+8 
           3890      5.08352e+8 
           3910      5.88969e+8 
           3930      5.71818e+8 
           3950      5.70098e+8 
           3970      4.72654e+8 
           3990      5.50182e+8 
           4010      5.42599e+8 
           4030      5.19575e+8 
           4050      5.29339e+8 
           4070      5.17509e+8 
           4090      4.94105e+8 
           4110      4.38437e+8 
           4130      4.87916e+8 
           4150      4.83552e+8 
           4170       4.7912e+8 
           4190      4.73742e+8 
           4210      4.67253e+8 
           4230      4.59687e+8 
           4250       4.5195e+8 
           4270       4.4192e+8 
           4290      4.37973e+8 
           4310      4.30409e+8 
           4330      4.04179e+8 
           4350      3.69731e+8 
           4370      4.10761e+8 
           4390      3.99481e+8 
           4410      3.99837e+8 
           4430      3.92818e+8 
           4450      3.88915e+8 
           4470      3.72395e+8 
           4490      3.75625e+8 
           4510      3.72412e+8 
           4530      3.66469e+8 
           4550      3.60961e+8 
           4570      3.55717e+8 
           4590      3.50871e+8 
           4610      3.45759e+8 
           4630      3.40793e+8 
           4650      3.34627e+8 
           4670      3.31058e+8 
           4690      3.27008e+8 
           4710      3.17478e+8 
           4730      3.16449e+8 
           4750      3.11686e+8 
           4770       3.0916e+8 
           4790      3.04712e+8 
           4810      2.99773e+8 
           4830      2.95229e+8 
           4850      2.81076e+8 
           4870      2.52848e+8 
           4890      2.83271e+8 
           4910      2.80202e+8 
           4930      2.71578e+8 
           4950      2.72663e+8 
           4970      2.69298e+8 
           4990       2.6554e+8 
           5010      2.58186e+8 
           5030      2.58296e+8 
           5050      2.52251e+8 
           5070      2.51672e+8 
           5090      2.48273e+8 
           5110       2.4489e+8 
           5130      2.41496e+8 
           5150      2.38346e+8 
           5170      2.35533e+8 
           5190      2.32462e+8 
           5210      2.28557e+8 
           5230       2.2651e+8 
           5250      2.23584e+8 
           5270      2.20656e+8 
           5290      2.17914e+8 
           5310      2.15099e+8 
           5330      2.12255e+8 
           5350      2.09302e+8 
           5370      2.07041e+8 
           5390      2.04405e+8 
           5410      2.01815e+8 
           5430        1.989e+8 
           5450      1.96618e+8 
           5470      1.94176e+8 
           5490      1.91939e+8 
           5510      1.89518e+8 
           5530      1.87152e+8 
           5550      1.84925e+8 
           5570      1.82591e+8 
           5590      1.80431e+8 
           5610      1.78058e+8 
           5630      1.76094e+8 
           5650      1.73327e+8 
           5670      1.71403e+8 
           5690      1.69479e+8 
           5710      1.67681e+8 
           5730      1.65698e+8 
           5750      1.63636e+8 
           5770      1.61802e+8 
           5790      1.59877e+8 
           5810      1.57975e+8 
           5830      1.56083e+8 
           5850       1.5428e+8 
           5870      1.48879e+8 
           5890      1.50389e+8 
           5910      1.48899e+8 
           5930      1.47168e+8 
           5950      1.45318e+8 
           5970      1.43817e+8 
           5990      1.42061e+8 
           6010      1.40533e+8 
           6030      1.38908e+8 
           6050      1.37332e+8 
           6070      1.35764e+8 
           6090      1.34203e+8 
           6110      1.32711e+8 
           6130      1.31215e+8 
           6150      1.29596e+8 
           6170      1.28262e+8 
           6190      1.26844e+8 
           6210      1.25423e+8 
           6230      1.24027e+8 
           6250      1.22598e+8 
           6270       1.2128e+8 
           6290       1.1993e+8 
           6310      1.18546e+8 
           6330      1.17328e+8 
           6350      1.15693e+8 
           6370      1.14569e+8 
           6390      1.13493e+8 
           6410      1.12254e+8 
           6430      1.11083e+8 
           6450       1.0987e+8 
           6470      1.08652e+8 
           6490      1.07509e+8 
           6510      1.06343e+8 
           6530      1.05056e+8 
           6550      1.01852e+8 
           6570      9.12217e+7 
           6590      1.01079e+8 
           6610      1.00804e+8 
           6630      9.97769e+7 
           6650      9.87858e+7 
           6670      9.70426e+7 
           6690      9.60508e+7 
           6710      9.57217e+7 
           6730      9.47211e+7 
           6750      9.37555e+7 
           6770      9.27832e+7 
           6790      9.17389e+7 
           6810      9.08678e+7 
           6830      8.99246e+7 
           6850      8.90229e+7 
           6870      8.81142e+7 
           6890      8.72145e+7 
           6910      8.63238e+7 
           6930      8.54262e+7 
           6950       8.4592e+7 
           6970      8.37428e+7 
           6990      8.28788e+7 
           7010      8.20615e+7 
           7030       8.1237e+7 
           7050      8.04205e+7 
           7070      7.84738e+7 
           7090      7.88411e+7 
           7110      7.80554e+7 
           7130      7.72846e+7 
           7150      7.65139e+7 
           7170      7.57579e+7 
           7190      7.50309e+7 
           7210      7.42964e+7 
           7230      7.31652e+7 
           7250      7.28338e+7 
           7270      7.21485e+7 
           7290      7.09308e+7 
           7310      7.07406e+7 
           7330      7.00725e+7 
           7350      6.94002e+7 
           7370      6.87342e+7 
           7390      6.80757e+7 
           7410      6.74253e+7 
           7430      6.67687e+7 
           7450      6.61527e+7 
           7470      6.55094e+7 
           7490      6.49021e+7 
           7510       6.4269e+7 
           7530      6.36869e+7 
           7550      6.30928e+7 
           7570      6.25028e+7 
           7590      6.19123e+7 
           7610      6.13375e+7 
           7630      6.07698e+7 
           7650      6.02053e+7 
           7670      5.96483e+7 
           7690      5.90932e+7 
           7710      5.85468e+7 
           7730       5.8011e+7 
           7750      5.74749e+7 
           7770      5.67638e+7 
           7790      5.64354e+7 
           7810      5.58775e+7 
           7830       5.5413e+7 
           7850      5.49286e+7 
           7870      5.44308e+7 
           7890      5.38672e+7 
           7910      5.34855e+7 
           7930      5.29111e+7 
           7950      5.23782e+7 
           7970      5.19034e+7 
           7990      5.14225e+7 
           8010      5.10064e+7 
           8030       5.0582e+7 
           8050      5.01542e+7 
           8070      4.97446e+7 
           8090      4.92105e+7 
           8110       4.8802e+7 
           8130      4.84539e+7 
           8150      4.79385e+7 
           8170      4.76228e+7 
           8190      4.71608e+7 
           8210      4.65713e+7 
           8230      4.62857e+7 
           8250      4.59254e+7 
           8270      4.53053e+7 
           8290      4.50755e+7 
           8310      4.46967e+7 
           8330      4.43124e+7 
           8350      4.37389e+7 
           8370      4.33801e+7 
           8390      4.30574e+7 
           8410      4.26355e+7 
           8430      4.22575e+7 
           8450      4.16952e+7 
           8470      4.11231e+7 
           8490      4.15379e+7 
           8510      4.02047e+7 
           8530      4.11586e+7 
           8550      3.88569e+7 
           8570      4.12015e+7 
           8590      3.89488e+7 
