# Kurucz ODFNEW /NOVER (2003)
# teff = 23000 K (value for the effective temperature for the model. Temperatures are given in K)
# logg = 4.5 log(cm/s2) (value for Log(G) for the model.)
# meta = -2  (value for the Metallicity for the model.)
# lh = 1.25  (l/Hp where l is the  mixing length of the convective element and Hp is the pressure scale height)
# vtur = 2 km/s (Microturbulence velocity)
# alpha = 0  (Alpha)
#
# column 1: WAVELENGTH (ANGSTROM), Wavelength in Angstrom
# column 2: FLUX (ERG/CM2/S/A), Flux in erg/cm2/s/A
          147.2     1.48977e-16 
            151     8.24985e-16 
          155.2     4.97707e-15 
          158.8     2.15753e-14 
            162     7.53531e-14 
            166     3.36453e-13 
          170.3     1.55448e-12 
          173.4     4.47125e-12 
          176.8     1.36515e-11 
          180.2     3.99491e-11 
          181.7     6.33305e-11 
          186.1     2.34327e-10 
            191     9.36325e-10 
          193.9      2.05503e-9 
          198.4       6.6421e-9 
          201.8      1.55546e-8 
            205      3.37412e-8 
          210.5      1.20636e-7 
          216.2      4.20885e-7 
          219.8      8.95114e-7 
            223      1.71369e-6 
          226.8      3.61465e-6 
            230      1.26514e-5 
            234      2.84714e-5 
            240      7.84526e-5 
          246.5       0.0002219 
          252.4     0.000546628 
          256.8      0.00102474 
            260       0.0016288 
            264      0.00281904 
          268.5      0.00511503 
          273.5      0.00968035 
          278.5       0.0179097 
            284       0.0343118 
            290       0.0676903 
            296        0.129617 
            301        0.218359 
            308        0.435846 
            318         1.12917 
            328          2.7284 
            338         6.23672 
            348         13.5522 
            357         26.1765 
            366           48.87 
            375         88.2612 
            385         164.422 
            395         295.927 
            405         516.087 
            414         830.407 
            422         1243.47 
            430         1831.02 
            441         3042.41 
            451         4711.87 
            460         6858.93 
            470         10218.1 
            480         14939.5 
            490         21470.9 
            500         30350.8 
            506          177568 
            512          554293 
            520          700948 
            530          982957 
            540       1.0831e+6 
            550      1.51227e+6 
            560       1.8201e+6 
            570      2.21469e+6 
            580      2.27012e+6 
            590      2.97368e+6 
            600      3.67437e+6 
            610       4.3289e+6 
            620      5.01754e+6 
            630      5.82588e+6 
            640      6.61603e+6 
            650       7.6464e+6 
            658      8.54151e+6 
            665      9.32485e+6 
            675      1.04265e+7 
            685       1.1718e+7 
            695       1.3397e+7 
            705      1.49297e+7 
            716      1.67952e+7 
            726       1.8605e+7 
            735      2.04953e+7 
            745      2.26801e+7 
            755      2.49741e+7 
            765      2.73606e+7 
            775      2.99878e+7 
            785      3.27262e+7 
            795      3.55411e+7 
            805      3.85673e+7 
            815      4.16826e+7 
            825      4.51013e+7 
            835      4.80226e+7 
            845      5.20945e+7 
            855      5.56623e+7 
            865      5.98608e+7 
            875      6.40606e+7 
            885      6.84075e+7 
            895      7.28039e+7 
            905      7.65211e+7 
            915      1.16143e+8 
            925      5.88898e+8 
            935      1.87161e+9 
            945      7.69004e+9 
            955     1.38143e+10 
            965      1.9181e+10 
            975       6.3562e+9 
            985     2.51046e+10 
            995     2.51679e+10 
           1005     2.60034e+10 
           1015     2.13402e+10 
           1025      4.35348e+9 
           1035     1.81467e+10 
           1045     2.51437e+10 
           1055     2.48074e+10 
           1065     2.28809e+10 
           1075     2.36184e+10 
           1085     2.17994e+10 
           1095     2.28779e+10 
           1105     2.18008e+10 
           1115     2.15154e+10 
           1125       2.025e+10 
           1135     2.06285e+10 
           1145     1.95217e+10 
           1155     1.97703e+10 
           1165     1.93804e+10 
           1175     1.69536e+10 
           1185     1.82757e+10 
           1195     1.67006e+10 
           1205     1.31601e+10 
           1215      3.15731e+9 
           1225     1.23488e+10 
           1235     1.57818e+10 
           1245     1.58717e+10 
           1255     1.56294e+10 
           1265     1.52716e+10 
           1275     1.52335e+10 
           1285     1.49222e+10 
           1295     1.38152e+10 
           1305     1.37235e+10 
           1315     1.39879e+10 
           1325     1.34991e+10 
           1335     1.29327e+10 
           1345     1.30635e+10 
           1355     1.29092e+10 
           1365     1.25377e+10 
           1375     1.23012e+10 
           1385     1.20787e+10 
           1395     1.15213e+10 
           1405     1.14191e+10 
           1415     1.13264e+10 
           1425     1.11459e+10 
           1435     1.09596e+10 
           1442     1.08515e+10 
           1447     1.07336e+10 
           1455     1.05631e+10 
           1465     1.03304e+10 
           1475     1.01461e+10 
           1485       9.9373e+9 
           1495      9.75288e+9 
           1505      9.47585e+9 
           1512      9.32503e+9 
           1517      9.28085e+9 
           1525      9.13319e+9 
           1535      8.79777e+9 
           1545      8.73066e+9 
           1555       8.4919e+9 
           1565      8.48463e+9 
           1575      8.38285e+9 
           1585      8.23662e+9 
           1595      8.10893e+9 
           1605      7.86912e+9 
           1615      7.73153e+9 
           1625      7.67062e+9 
           1635      7.56876e+9 
           1645      7.36398e+9 
           1655      7.30056e+9 
           1665      7.21204e+9 
           1672       7.0371e+9 
           1677      7.08415e+9 
           1685      6.98334e+9 
           1695      6.84152e+9 
           1705      6.70474e+9 
           1715      6.56017e+9 
           1725      6.46357e+9 
           1735      6.38527e+9 
           1745      6.26986e+9 
           1755      6.20131e+9 
           1765      5.98491e+9 
           1775        5.957e+9 
           1785      5.88914e+9 
           1795       5.8174e+9 
           1805      5.73901e+9 
           1815      5.61888e+9 
           1825      5.54548e+9 
           1835      5.45567e+9 
           1845      5.28723e+9 
           1855      5.14816e+9 
           1865      5.11693e+9 
           1875      5.11286e+9 
           1885      4.93121e+9 
           1895      4.79495e+9 
           1905       4.8388e+9 
           1915      4.69203e+9 
           1925      4.61464e+9 
           1935      4.60198e+9 
           1945      4.58137e+9 
           1955      4.41427e+9 
           1967      4.43126e+9 
           1976      4.41627e+9 
           1984      4.30847e+9 
           1995      4.19019e+9 
           2005      4.20716e+9 
           2015      4.17395e+9 
           2025      4.13319e+9 
           2035      4.04382e+9 
           2045      3.98698e+9 
           2055      3.88815e+9 
           2065      3.84961e+9 
           2074      3.86444e+9 
           2078      3.78144e+9 
           2085      3.77464e+9 
           2095      3.69088e+9 
           2105      3.67987e+9 
           2115      3.64255e+9 
           2125      3.60743e+9 
           2135      3.55429e+9 
           2145      3.49683e+9 
           2155      3.46072e+9 
           2165       3.4162e+9 
           2175       3.3679e+9 
           2185      3.32657e+9 
           2195      3.28632e+9 
           2205      3.24186e+9 
           2215      3.20006e+9 
           2225      3.15538e+9 
           2235      3.11521e+9 
           2245       3.0784e+9 
           2255      3.03597e+9 
           2265      3.00056e+9 
           2275      2.96194e+9 
           2285      2.92647e+9 
           2295      2.86869e+9 
           2305       2.8518e+9 
           2315      2.81358e+9 
           2325      2.77967e+9 
           2335      2.74057e+9 
           2345      2.70451e+9 
           2355      2.67778e+9 
           2365      2.64205e+9 
           2375       2.6109e+9 
           2385      2.57475e+9 
           2395      2.54521e+9 
           2405      2.51504e+9 
           2415      2.48372e+9 
           2425      2.45854e+9 
           2435      2.42682e+9 
           2445      2.39844e+9 
           2455      2.37175e+9 
           2465      2.34213e+9 
           2475      2.31513e+9 
           2485       2.2875e+9 
           2495      2.24015e+9 
           2505      2.23323e+9 
           2513      2.20185e+9 
           2518      2.20001e+9 
           2525      2.18139e+9 
           2535      2.15472e+9 
           2545       2.1274e+9 
           2555      2.10801e+9 
           2565      2.08279e+9 
           2575      2.06079e+9 
           2585      2.03733e+9 
           2595      2.01382e+9 
           2605      2.00616e+9 
           2615      1.98473e+9 
           2625      1.96292e+9 
           2635      1.93763e+9 
           2645      1.91735e+9 
           2655      1.89267e+9 
           2665      1.86656e+9 
           2675      1.84394e+9 
           2685      1.83745e+9 
           2695       1.8006e+9 
           2705      1.79689e+9 
           2715      1.77693e+9 
           2725      1.74093e+9 
           2735      1.73859e+9 
           2745      1.71515e+9 
           2755      1.69781e+9 
           2765      1.66574e+9 
           2775      1.66486e+9 
           2785      1.64661e+9 
           2795       1.6131e+9 
           2805      1.60569e+9 
           2815      1.59492e+9 
           2825      1.55821e+9 
           2835       1.5462e+9 
           2845      1.54466e+9 
           2855      1.52859e+9 
           2865       1.5128e+9 
           2875      1.49691e+9 
           2885      1.48144e+9 
           2895      1.46605e+9 
           2910      1.44333e+9 
           2930      1.41351e+9 
           2950      1.37333e+9 
           2970      1.35707e+9 
           2990      1.32949e+9 
           3010      1.30311e+9 
           3030      1.27743e+9 
           3050      1.25219e+9 
           3070      1.22761e+9 
           3090      1.20333e+9 
           3110      1.18023e+9 
           3130      1.15877e+9 
           3150      1.13655e+9 
           3170      1.11442e+9 
           3190      1.08301e+9 
           3210      1.07219e+9 
           3230       1.0518e+9 
           3250      1.03194e+9 
           3270      1.01404e+9 
           3290      9.93743e+8 
           3310      9.77026e+8 
           3330      9.59108e+8 
           3350      9.39801e+8 
           3370      9.24566e+8 
           3390      9.07919e+8 
           3410      8.91631e+8 
           3430      8.71817e+8 
           3450      8.53097e+8 
           3470      8.40632e+8 
           3490      8.25829e+8 
           3510      8.13264e+8 
           3530        8.009e+8 
           3550      7.87328e+8 
           3570      7.78442e+8 
           3590      7.59738e+8 
           3610      7.49146e+8 
           3630      7.34223e+8 
           3640      7.33408e+8 
           3650      7.21703e+8 
           3670      7.12935e+8 
           3690      6.99501e+8 
           3710      6.75147e+8 
           3730      6.45885e+8 
           3750      6.69286e+8 
           3770      6.68883e+8 
           3790       7.1545e+8 
           3810      7.53999e+8 
           3830      6.46395e+8 
           3850      7.86881e+8 
           3870      8.05734e+8 
           3890      6.08036e+8 
           3910      7.95469e+8 
           3930      7.92539e+8 
           3950       7.7164e+8 
           3970      5.66711e+8 
           3990      7.37434e+8 
           4010      7.42138e+8 
           4030      6.90045e+8 
           4050      7.28355e+8 
           4070      7.11321e+8 
           4090      6.33621e+8 
           4110       5.4232e+8 
           4130      6.64167e+8 
           4150      6.62024e+8 
           4170      6.58462e+8 
           4190      6.50196e+8 
           4210       6.3959e+8 
           4230      6.29009e+8 
           4250      6.18598e+8 
           4270      6.07093e+8 
           4290      5.96533e+8 
           4310      5.81599e+8 
           4330      5.08363e+8 
           4350      4.59462e+8 
           4370      5.51515e+8 
           4390      5.29846e+8 
           4410      5.42311e+8 
           4430      5.31666e+8 
           4450      5.25985e+8 
           4470      4.87483e+8 
           4490      5.08862e+8 
           4510      5.02229e+8 
           4530      4.94426e+8 
           4550      4.86778e+8 
           4570      4.79279e+8 
           4590         4.72e+8 
           4610      4.64812e+8 
           4630      4.57747e+8 
           4650      4.50629e+8 
           4670      4.44048e+8 
           4690      4.37392e+8 
           4710      4.24379e+8 
           4730      4.24267e+8 
           4750      4.17796e+8 
           4770      4.12032e+8 
           4790      4.05626e+8 
           4810      3.98417e+8 
           4830      3.89036e+8 
           4850      3.48181e+8 
           4870        3.073e+8 
           4890      3.69827e+8 
           4910      3.69274e+8 
           4930      3.54302e+8 
           4950      3.61239e+8 
           4970      3.56187e+8 
           4990      3.51129e+8 
           5010      3.40976e+8 
           5030      3.41263e+8 
           5050      3.33986e+8 
           5070       3.3181e+8 
           5090      3.27201e+8 
           5110      3.22654e+8 
           5130      3.18182e+8 
           5150      3.13784e+8 
           5170      3.09514e+8 
           5190      3.05273e+8 
           5210      3.01074e+8 
           5230      2.97027e+8 
           5250      2.93005e+8 
           5270      2.89063e+8 
           5290      2.85171e+8 
           5310      2.81357e+8 
           5330      2.77592e+8 
           5350      2.73888e+8 
           5370      2.70284e+8 
           5390      2.66713e+8 
           5410        2.632e+8 
           5430      2.59731e+8 
           5450      2.56345e+8 
           5470      2.53013e+8 
           5490      2.49723e+8 
           5510      2.46486e+8 
           5530      2.43315e+8 
           5550      2.40182e+8 
           5570      2.37113e+8 
           5590      2.34081e+8 
           5610      2.31098e+8 
           5630      2.28175e+8 
           5650      2.25265e+8 
           5670      2.22424e+8 
           5690      2.19619e+8 
           5710      2.16893e+8 
           5730      2.14188e+8 
           5750      2.11515e+8 
           5770      2.08897e+8 
           5790      2.06322e+8 
           5810      2.03777e+8 
           5830      2.01261e+8 
           5850      1.98798e+8 
           5870      1.89278e+8 
           5890      1.93468e+8 
           5910      1.91632e+8 
           5930      1.89313e+8 
           5950      1.87021e+8 
           5970      1.84777e+8 
           5990      1.82558e+8 
           6010      1.80385e+8 
           6030      1.78227e+8 
           6050      1.76114e+8 
           6070      1.74035e+8 
           6090       1.7198e+8 
           6110      1.69958e+8 
           6130      1.67968e+8 
           6150      1.65991e+8 
           6170      1.64066e+8 
           6190      1.62162e+8 
           6210      1.60279e+8 
           6230      1.58426e+8 
           6250      1.56604e+8 
           6270      1.54801e+8 
           6290      1.53028e+8 
           6310      1.51284e+8 
           6330      1.49558e+8 
           6350      1.47842e+8 
           6370      1.46182e+8 
           6390      1.44539e+8 
           6410      1.42914e+8 
           6430      1.41307e+8 
           6450      1.39726e+8 
           6470      1.38161e+8 
           6490      1.36622e+8 
           6510      1.34717e+8 
           6530      1.32453e+8 
           6550      1.24472e+8 
           6570      1.09367e+8 
           6590       1.2686e+8 
           6610      1.27275e+8 
           6630       1.2632e+8 
           6650      1.25169e+8 
           6670      1.22277e+8 
           6690      1.20992e+8 
           6710       1.2115e+8 
           6730      1.19849e+8 
           6750      1.18561e+8 
           6770      1.17294e+8 
           6790      1.16032e+8 
           6810      1.14807e+8 
           6830      1.13587e+8 
           6850      1.12387e+8 
           6870      1.11198e+8 
           6890       1.1003e+8 
           6910      1.08873e+8 
           6930      1.07736e+8 
           6950       1.0661e+8 
           6970      1.05495e+8 
           6990      1.04398e+8 
           7010      1.03321e+8 
           7030      1.02253e+8 
           7050      1.01196e+8 
           7070      9.84088e+7 
           7090       9.9136e+7 
           7110       9.8117e+7 
           7130      9.71153e+7 
           7150      9.61306e+7 
           7170      9.51407e+7 
           7190      9.41895e+7 
           7210      9.32401e+7 
           7230      9.22204e+7 
           7250      9.13755e+7 
           7270        9.046e+7 
           7290      8.87734e+7 
           7310      8.86549e+7 
           7330      8.77861e+7 
           7350      8.69115e+7 
           7370      8.60521e+7 
           7390      8.52075e+7 
           7410      8.43708e+7 
           7430      8.35419e+7 
           7450      8.27342e+7 
           7470      8.19272e+7 
           7490      8.11276e+7 
           7510      8.03087e+7 
           7530      7.95637e+7 
           7550      7.87925e+7 
           7570      7.80348e+7 
           7590      7.72841e+7 
           7610      7.65401e+7 
           7630      7.58093e+7 
           7650      7.50852e+7 
           7670      7.43739e+7 
           7690      7.36627e+7 
           7710      7.29641e+7 
           7730      7.22781e+7 
           7750      7.15919e+7 
           7770      7.09118e+7 
           7790      7.02564e+7 
           7810      6.95512e+7 
           7830      6.89444e+7 
           7850      6.83795e+7 
           7870      6.77405e+7 
           7890      6.70647e+7 
           7910      6.64971e+7 
           7930      6.58806e+7 
           7950      6.52634e+7 
           7970      6.45389e+7 
           7990       6.3933e+7 
           8010      6.33323e+7 
           8030      6.27484e+7 
           8050      6.21754e+7 
           8070      6.16362e+7 
           8090      6.09922e+7 
           8110      6.05314e+7 
           8130      6.00174e+7 
           8150      5.94169e+7 
           8170      5.89627e+7 
           8190      5.83661e+7 
           8210      5.77132e+7 
           8230      5.73608e+7 
           8250      5.68671e+7 
           8270      5.60911e+7 
           8290      5.58318e+7 
           8310      5.53724e+7 
           8330      5.48517e+7 
           8350      5.40975e+7 
           8370      5.38124e+7 
           8390      5.34261e+7 
           8410      5.29545e+7 
           8430      5.24411e+7 
           8450      5.16238e+7 
           8470      5.14896e+7 
           8490      5.09337e+7 
           8510      5.04714e+7 
           8530      5.00527e+7 
           8550      4.91453e+7 
           8570      4.96835e+7 
           8590      4.77579e+7 
