# Kurucz ODFNEW /NOVER (2003)
# teff = 32000 K (value for the effective temperature for the model. Temperatures are given in K)
# logg = 4 log(cm/s2) (value for Log(G) for the model.)
# meta = 0  (value for the Metallicity for the model.)
# lh = 1.25  (l/Hp where l is the  mixing length of the convective element and Hp is the pressure scale height)
# vtur = 2 km/s (Microturbulence velocity)
# alpha = 0.4  (Alpha)
#
# column 1: WAVELENGTH (ANGSTROM), Wavelength in Angstrom
# column 2: FLUX (ERG/CM2/S/A), Flux in erg/cm2/s/A
          147.2      3.95284e-7 
            151      1.12459e-6 
          155.2      3.36846e-6 
          158.8      8.25139e-6 
            162      1.77355e-5 
            166      4.43706e-5 
          170.3     0.000113076 
          173.4     0.000217035 
          176.8     0.000433601 
          180.2     0.000839635 
          181.7      0.00112429 
          186.1      0.00252265 
            191      0.00595945 
          193.9      0.00970681 
          198.4       0.0202335 
          201.8       0.0343896 
            205       0.0557766 
          210.5        0.124037 
          216.2        0.270596 
          219.8        0.438519 
            223        0.661513 
          226.8         1.08987 
            230         454.831 
            234         976.293 
            240         1600.77 
          246.5         2777.07 
          252.4         4711.83 
          256.8          6469.6 
            260         10790.3 
            264         16108.4 
          268.5         24635.3 
          273.5         34599.1 
          278.5         44401.9 
            284          103314 
            290          151234 
            296          202859 
            301          287633 
            308          791631 
            318      1.70833e+6 
            328      2.50195e+6 
            338       4.4646e+6 
            348      6.89694e+6 
            357      1.51293e+7 
            366      3.17963e+7 
            375      3.82101e+7 
            385      5.72522e+7 
            395      1.09227e+8 
            405       1.3559e+8 
            414       1.8909e+8 
            422        2.099e+8 
            430      2.39302e+8 
            441      2.95563e+8 
            451      3.37092e+8 
            460      3.53549e+8 
            470      4.23254e+8 
            480      4.93542e+8 
            490      5.23954e+8 
            500      6.55087e+8 
            506      1.03468e+9 
            512       7.5464e+9 
            520      7.08875e+9 
            530      6.41258e+9 
            540      6.20893e+9 
            550      6.95511e+9 
            560      9.21533e+9 
            570     1.00702e+10 
            580      9.16167e+9 
            590      9.78046e+9 
            600      6.96112e+9 
            610      9.28449e+9 
            620     1.13401e+10 
            630      1.0983e+10 
            640     1.08144e+10 
            650     1.02274e+10 
            658      7.75831e+9 
            665     1.00881e+10 
            675     1.18007e+10 
            685      9.16643e+9 
            695      1.2238e+10 
            705      8.86065e+9 
            716     1.32186e+10 
            726     1.28355e+10 
            735     1.29346e+10 
            745     1.17901e+10 
            755     1.19259e+10 
            765     1.25464e+10 
            775     1.31128e+10 
            785      1.3281e+10 
            795      1.3464e+10 
            805     1.26723e+10 
            815     1.25838e+10 
            825     1.35598e+10 
            835     1.03678e+10 
            845     1.29651e+10 
            855      1.2845e+10 
            865     1.32651e+10 
            875     1.33278e+10 
            885     1.35627e+10 
            895     1.36493e+10 
            905     1.32104e+10 
            915     1.50687e+10 
            925     4.48839e+10 
            935     6.72552e+10 
            945     8.21947e+10 
            955     8.86777e+10 
            965     9.66071e+10 
            975      4.3236e+10 
            985     7.81668e+10 
            995     7.14817e+10 
           1005     7.37476e+10 
           1015     7.78453e+10 
           1025     6.50709e+10 
           1035     7.51718e+10 
           1045     8.57661e+10 
           1055     8.15586e+10 
           1065     7.02126e+10 
           1075     7.30623e+10 
           1085     6.82592e+10 
           1095     7.21804e+10 
           1105     6.87602e+10 
           1115     6.71415e+10 
           1125     5.21059e+10 
           1135     6.43925e+10 
           1145     6.15974e+10 
           1155     5.82959e+10 
           1165      5.7813e+10 
           1175     3.89084e+10 
           1185     5.26022e+10 
           1195      5.0636e+10 
           1205     4.79232e+10 
           1215     4.01554e+10 
           1225     4.75837e+10 
           1235     5.04743e+10 
           1245     4.84466e+10 
           1255     4.83832e+10 
           1265     4.92151e+10 
           1275     5.04299e+10 
           1285     5.00998e+10 
           1295     4.59841e+10 
           1305     4.61183e+10 
           1315     4.86351e+10 
           1325     4.68523e+10 
           1335      4.5428e+10 
           1345     4.50132e+10 
           1355     4.42138e+10 
           1365     4.23592e+10 
           1375     4.10918e+10 
           1385     3.95716e+10 
           1395     2.84634e+10 
           1405     3.03403e+10 
           1415     3.77778e+10 
           1425     3.41883e+10 
           1435     3.62199e+10 
           1442     3.59343e+10 
           1447      3.5708e+10 
           1455     3.39924e+10 
           1465     3.31227e+10 
           1475     3.33435e+10 
           1485     3.31898e+10 
           1495     3.21472e+10 
           1505     3.11094e+10 
           1512     3.05517e+10 
           1517     3.07386e+10 
           1525     2.96994e+10 
           1535     2.61175e+10 
           1545     2.23936e+10 
           1555     2.24072e+10 
           1565     2.48859e+10 
           1575     2.60668e+10 
           1585     2.59398e+10 
           1595     2.58747e+10 
           1605      2.4455e+10 
           1615     2.33876e+10 
           1625     2.37854e+10 
           1635      2.3997e+10 
           1645     2.38203e+10 
           1655     2.38923e+10 
           1665     2.33507e+10 
           1672     2.17312e+10 
           1677     2.50338e+10 
           1685     2.38904e+10 
           1695     2.30297e+10 
           1705     2.27137e+10 
           1715     2.17298e+10 
           1725     2.09126e+10 
           1735     2.15783e+10 
           1745     2.13466e+10 
           1755     2.09927e+10 
           1765     2.06721e+10 
           1775      1.9983e+10 
           1785     2.01689e+10 
           1795      1.9739e+10 
           1805     1.97082e+10 
           1815     1.91154e+10 
           1825      1.8868e+10 
           1835     1.87893e+10 
           1845     1.77617e+10 
           1855     1.79473e+10 
           1865     1.79352e+10 
           1875     1.75001e+10 
           1885     1.66745e+10 
           1895     1.62797e+10 
           1905     1.66927e+10 
           1915     1.61603e+10 
           1925     1.52506e+10 
           1935     1.60302e+10 
           1945     1.61565e+10 
           1955     1.47921e+10 
           1967     1.53531e+10 
           1976     1.56661e+10 
           1984     1.50797e+10 
           1995     1.46895e+10 
           2005     1.48967e+10 
           2015     1.48382e+10 
           2025     1.47692e+10 
           2035     1.41787e+10 
           2045     1.39908e+10 
           2055     1.15641e+10 
           2065     1.11962e+10 
           2074     1.16816e+10 
           2078     1.15774e+10 
           2085     1.23022e+10 
           2095     1.26838e+10 
           2105     1.28509e+10 
           2115     1.29478e+10 
           2125     1.26785e+10 
           2135     1.25972e+10 
           2145      1.2354e+10 
           2155     1.23613e+10 
           2165      1.1868e+10 
           2175     1.20155e+10 
           2185     1.16983e+10 
           2195     1.18265e+10 
           2205     1.16404e+10 
           2215     1.12499e+10 
           2225     1.12708e+10 
           2235     1.10977e+10 
           2245      1.0949e+10 
           2255     1.06321e+10 
           2265     1.06559e+10 
           2275     1.05399e+10 
           2285     1.02472e+10 
           2295      9.32127e+9 
           2305      9.85462e+9 
           2315      9.78232e+9 
           2325      9.74644e+9 
           2335      9.59681e+9 
           2345      9.49321e+9 
           2355      9.32174e+9 
           2365      9.17504e+9 
           2375      8.98908e+9 
           2385      8.66218e+9 
           2395      8.66881e+9 
           2405       8.6581e+9 
           2415      8.49805e+9 
           2425      8.44412e+9 
           2435      8.28977e+9 
           2445      8.20319e+9 
           2455      8.08274e+9 
           2465      7.98505e+9 
           2475      7.85485e+9 
           2485      7.56604e+9 
           2495      5.38427e+9 
           2505      7.14312e+9 
           2513      7.09294e+9 
           2518      7.18661e+9 
           2525      7.35658e+9 
           2535      7.30686e+9 
           2545      7.12392e+9 
           2555      7.07461e+9 
           2565      6.98005e+9 
           2575       6.9248e+9 
           2585      6.84427e+9 
           2595      6.71442e+9 
           2605      6.68628e+9 
           2615      6.55536e+9 
           2625      6.50442e+9 
           2635      6.42964e+9 
           2645      6.33157e+9 
           2655      6.25992e+9 
           2665      6.12232e+9 
           2675      5.99345e+9 
           2685      6.01107e+9 
           2695      5.88771e+9 
           2705      5.83859e+9 
           2715      5.76091e+9 
           2725      5.68674e+9 
           2735      5.56717e+9 
           2745      5.58568e+9 
           2755      5.50847e+9 
           2765      5.42336e+9 
           2775      5.40636e+9 
           2785      5.30446e+9 
           2795      5.12962e+9 
           2805       5.1678e+9 
           2815      5.13971e+9 
           2825      5.06798e+9 
           2835      4.97417e+9 
           2845      4.96719e+9 
           2855      4.88485e+9 
           2865      4.81868e+9 
           2875      4.75878e+9 
           2885      4.71182e+9 
           2895      4.65415e+9 
           2910      4.53645e+9 
           2930      4.47561e+9 
           2950      4.35149e+9 
           2970      4.25866e+9 
           2990      4.13336e+9 
           3010      4.00738e+9 
           3030      3.90656e+9 
           3050      3.85971e+9 
           3070      3.79711e+9 
           3090      3.66917e+9 
           3110      3.63479e+9 
           3130      3.53307e+9 
           3150      3.47404e+9 
           3170      3.39244e+9 
           3190      3.32234e+9 
           3210      3.23471e+9 
           3230      3.17242e+9 
           3250      3.12426e+9 
           3270      3.03025e+9 
           3290      2.98158e+9 
           3310      2.91571e+9 
           3330      2.84478e+9 
           3350      2.77912e+9 
           3370      2.72593e+9 
           3390      2.69065e+9 
           3410      2.63303e+9 
           3430      2.58865e+9 
           3450      2.51878e+9 
           3470      2.47719e+9 
           3490      2.42701e+9 
           3510       2.3823e+9 
           3530      2.34366e+9 
           3550      2.29317e+9 
           3570      2.25023e+9 
           3590      2.19848e+9 
           3610      2.15881e+9 
           3630      2.11464e+9 
           3640      2.09036e+9 
           3650      2.00189e+9 
           3670      1.97157e+9 
           3690      1.93283e+9 
           3710      1.86809e+9 
           3730      1.83154e+9 
           3750       1.8539e+9 
           3770      1.82482e+9 
           3790      1.87383e+9 
           3810      1.90471e+9 
           3830      1.74215e+9 
           3850      1.88552e+9 
           3870      1.82349e+9 
           3890      1.64804e+9 
           3910      1.81959e+9 
           3930      1.76116e+9 
           3950      1.72063e+9 
           3970      1.51594e+9 
           3990      1.68616e+9 
           4010       1.6558e+9 
           4030      1.59834e+9 
           4050      1.60458e+9 
           4070      1.53731e+9 
           4090      1.46455e+9 
           4110      1.36032e+9 
           4130      1.46876e+9 
           4150      1.45131e+9 
           4170      1.44364e+9 
           4190      1.41517e+9 
           4210      1.38913e+9 
           4230      1.37211e+9 
           4250      1.33485e+9 
           4270      1.30559e+9 
           4290      1.28041e+9 
           4310      1.24911e+9 
           4330      1.19347e+9 
           4350      1.11513e+9 
           4370      1.19644e+9 
           4390      1.17456e+9 
           4410      1.15932e+9 
           4430      1.15072e+9 
           4450      1.12879e+9 
           4470      1.09492e+9 
           4490      1.09599e+9 
           4510      1.07477e+9 
           4530      1.06375e+9 
           4550      1.04028e+9 
           4570      1.03055e+9 
           4590      1.01056e+9 
           4610      9.91436e+8 
           4630      9.71853e+8 
           4650      9.26557e+8 
           4670      9.42268e+8 
           4690      9.22637e+8 
           4710      9.06582e+8 
           4730      9.13177e+8 
           4750      8.96821e+8 
           4770      8.87759e+8 
           4790      8.73859e+8 
           4810      8.57961e+8 
           4830      8.41569e+8 
           4850      8.08921e+8 
           4870      7.42549e+8 
           4890      8.04076e+8 
           4910      7.93179e+8 
           4930      7.72605e+8 
           4950      7.66466e+8 
           4970       7.6211e+8 
           4990      7.50672e+8 
           5010       7.2716e+8 
           5030      7.24769e+8 
           5050      7.13781e+8 
           5070      7.07501e+8 
           5090      6.96295e+8 
           5110      6.86008e+8 
           5130      6.75587e+8 
           5150      6.66032e+8 
           5170      6.55717e+8 
           5190      6.47442e+8 
           5210      6.38595e+8 
           5230      6.29767e+8 
           5250      6.19579e+8 
           5270      6.10233e+8 
           5290      6.03554e+8 
           5310      5.94807e+8 
           5330      5.86665e+8 
           5350      5.78562e+8 
           5370      5.70524e+8 
           5390      5.61941e+8 
           5410      5.50702e+8 
           5430      5.47368e+8 
           5450      5.39642e+8 
           5470      5.32177e+8 
           5490      5.25045e+8 
           5510      5.17803e+8 
           5530      5.10923e+8 
           5550      5.04348e+8 
           5570      4.97382e+8 
           5590      4.89573e+8 
           5610      4.84377e+8 
           5630      4.78006e+8 
           5650      4.71418e+8 
           5670      4.64512e+8 
           5690      4.53596e+8 
           5710      4.43803e+8 
           5730      4.38542e+8 
           5750      4.31884e+8 
           5770      4.27673e+8 
           5790      4.22083e+8 
           5810      4.16314e+8 
           5830       4.1098e+8 
           5850      4.07305e+8 
           5870      3.95088e+8 
           5890      3.97393e+8 
           5910      3.93597e+8 
           5930      3.89394e+8 
           5950      3.85322e+8 
           5970      3.81963e+8 
           5990      3.77505e+8 
           6010      3.73485e+8 
           6030      3.68525e+8 
           6050      3.64126e+8 
           6070      3.59778e+8 
           6090      3.55448e+8 
           6110      3.50885e+8 
           6130      3.46654e+8 
           6150      3.41843e+8 
           6170      3.37691e+8 
           6190      3.34165e+8 
           6210      3.30258e+8 
           6230      3.25966e+8 
           6250      3.21974e+8 
           6270      3.18333e+8 
           6290       3.1455e+8 
           6310      3.10194e+8 
           6330      3.07146e+8 
           6350      3.03215e+8 
           6370       2.9993e+8 
           6390      2.96367e+8 
           6410       2.9255e+8 
           6430      2.89484e+8 
           6450       2.8598e+8 
           6470      2.82109e+8 
           6490       2.7887e+8 
           6510      2.75284e+8 
           6530       2.7155e+8 
           6550      2.65302e+8 
           6570      2.41521e+8 
           6590      2.62005e+8 
           6610      2.60352e+8 
           6630      2.57627e+8 
           6650      2.54453e+8 
           6670      2.49423e+8 
           6690      2.46411e+8 
           6710      2.45597e+8 
           6730      2.42559e+8 
           6750      2.40445e+8 
           6770      2.37999e+8 
           6790      2.34883e+8 
           6810      2.32718e+8 
           6830      2.29984e+8 
           6850      2.27567e+8 
           6870      2.24959e+8 
           6890      2.21671e+8 
           6910      2.19372e+8 
           6930      2.17817e+8 
           6950      2.15434e+8 
           6970      2.13099e+8 
           6990      2.10748e+8 
           7010      2.08274e+8 
           7030      2.05871e+8 
           7050      2.03742e+8 
           7070      1.99162e+8 
           7090      1.99636e+8 
           7110      1.97136e+8 
           7130      1.95164e+8 
           7150      1.93352e+8 
           7170      1.90934e+8 
           7190      1.89137e+8 
           7210      1.87285e+8 
           7230      1.84167e+8 
           7250      1.82995e+8 
           7270      1.81447e+8 
           7290      1.78426e+8 
           7310      1.77592e+8 
           7330      1.75804e+8 
           7350      1.73977e+8 
           7370      1.72194e+8 
           7390      1.70443e+8 
           7410      1.68666e+8 
           7430      1.66954e+8 
           7450       1.6517e+8 
           7470      1.63037e+8 
           7490      1.61537e+8 
           7510      1.60183e+8 
           7530      1.58523e+8 
           7550       1.5703e+8 
           7570      1.55425e+8 
           7590      1.53378e+8 
           7610      1.52026e+8 
           7630      1.50726e+8 
           7650      1.49192e+8 
           7670      1.47832e+8 
           7690       1.4607e+8 
           7710        1.448e+8 
           7730      1.43062e+8 
           7750      1.42017e+8 
           7770      1.40651e+8 
           7790      1.39296e+8 
           7810      1.37898e+8 
           7830      1.36592e+8 
           7850      1.35261e+8 
           7870      1.33705e+8 
           7890      1.32392e+8 
           7910      1.31375e+8 
           7930       1.3009e+8 
           7950      1.28906e+8 
           7970      1.27536e+8 
           7990      1.26391e+8 
           8010      1.25167e+8 
           8030      1.23943e+8 
           8050      1.22816e+8 
           8070       1.2167e+8 
           8090      1.20419e+8 
           8110      1.18686e+8 
           8130      1.18256e+8 
           8150      1.17024e+8 
           8170      1.16029e+8 
           8190      1.14452e+8 
           8210      1.12744e+8 
           8230      1.11523e+8 
           8250      1.10895e+8 
           8270      1.09197e+8 
           8290      1.08808e+8 
           8310      1.07935e+8 
           8330      1.06788e+8 
           8350      1.05477e+8 
           8370      1.04764e+8 
           8390       1.0404e+8 
           8410      1.03024e+8 
           8430      1.02138e+8 
           8450      1.00832e+8 
           8470      1.00262e+8 
           8490      9.93304e+7 
           8510      9.80213e+7 
           8530      9.76657e+7 
           8550      9.60292e+7 
           8570      9.65612e+7 
           8590      9.39065e+7 
