# Kurucz ODFNEW /NOVER (2003)
# teff = 18000 K (value for the effective temperature for the model. Temperatures are given in K)
# logg = 4.5 log(cm/s2) (value for Log(G) for the model.)
# meta = 0  (value for the Metallicity for the model.)
# lh = 1.25  (l/Hp where l is the  mixing length of the convective element and Hp is the pressure scale height)
# vtur = 2 km/s (Microturbulence velocity)
# alpha = 0  (Alpha)
#
# column 1: WAVELENGTH (ANGSTROM), Wavelength in Angstrom
# column 2: FLUX (ERG/CM2/S/A), Flux in erg/cm2/s/A
          147.2     1.10648e-22 
            151      9.5918e-22 
          155.2     7.81923e-21 
          158.8     4.27621e-20 
            162     1.81747e-19 
            166      1.0257e-18 
          170.3     6.01503e-18 
          173.4     2.04079e-17 
          176.8     7.41304e-17 
          180.2     2.56536e-16 
          181.7     4.36935e-16 
          186.1     1.98572e-15 
            191     9.86729e-15 
          193.9     2.44431e-14 
          198.4     9.48692e-14 
          201.8     2.54762e-13 
            205     6.27957e-13 
          210.5     2.75876e-12 
          216.2     1.18252e-11 
          219.8     2.85315e-11 
            223      6.0787e-11 
          226.8     1.45431e-10 
            230     3.60549e-10 
            234     9.37695e-10 
            240      3.27323e-9 
          246.5      1.17293e-8 
          252.4      3.53295e-8 
          256.8      7.70411e-8 
            260      1.35745e-7 
            264      2.67153e-7 
          268.5      5.57316e-7 
          273.5      1.22519e-6 
          278.5      2.62484e-6 
            284      5.88103e-6 
            290       1.3655e-5 
            296      3.05676e-5 
            301      5.84589e-5 
            308     0.000138883 
            318     0.000453309 
            328      0.00135972 
            338      0.00383806 
            348       0.0101561 
            357       0.0233317 
            366       0.0513308 
            375        0.107858 
            385        0.236555 
            395        0.496696 
            405          1.0047 
            414         1.83799 
            422          3.0653 
            430          5.0016 
            441         9.57277 
            451         16.7364 
            460         27.0262 
            470         45.0336 
            480         73.2742 
            490         116.805 
            500         182.322 
            506         1711.38 
            512         6488.11 
            520         8506.51 
            530         12294.7 
            540         15162.2 
            550         22784.3 
            560         29528.1 
            570         39401.8 
            580         44526.6 
            590         63205.3 
            600         81726.2 
            610          105122 
            620          128063 
            630          158238 
            640          185670 
            650          217487 
            658          270285 
            665          301528 
            675          353441 
            685          418531 
            695          507186 
            705          589503 
            716          697108 
            726          802883 
            735          909702 
            745      1.06409e+6 
            755      1.22537e+6 
            765      1.39935e+6 
            775      1.60075e+6 
            785      1.82017e+6 
            795      2.03152e+6 
            805      2.28162e+6 
            815       2.5331e+6 
            825      2.85974e+6 
            835      3.10558e+6 
            845      3.47033e+6 
            855      3.84184e+6 
            865      4.26744e+6 
            875      4.73194e+6 
            885      5.25971e+6 
            895      5.75894e+6 
            905      6.10292e+6 
            915      1.12363e+7 
            925      4.26604e+7 
            935      9.61533e+7 
            945      3.97445e+8 
            955      1.25511e+9 
            965      1.85799e+9 
            975      3.70153e+8 
            985      3.22666e+9 
            995      3.38184e+9 
           1005      4.05217e+9 
           1015      2.98016e+9 
           1025        3.199e+8 
           1035      1.73516e+9 
           1045       4.9298e+9 
           1055      5.19354e+9 
           1065      4.16313e+9 
           1075      5.15759e+9 
           1085      4.58293e+9 
           1095      5.21849e+9 
           1105      4.56787e+9 
           1115      4.45175e+9 
           1125      4.34647e+9 
           1135      5.28353e+9 
           1145      4.54222e+9 
           1155      4.90586e+9 
           1165      5.22393e+9 
           1175      4.15361e+9 
           1185      5.13171e+9 
           1195      2.94572e+9 
           1205      1.72374e+9 
           1215      3.61871e+8 
           1225      1.75769e+9 
           1235      4.43487e+9 
           1245      5.07556e+9 
           1255      5.02609e+9 
           1265      4.37204e+9 
           1275      4.92665e+9 
           1285      5.23927e+9 
           1295      3.56708e+9 
           1305      3.02397e+9 
           1315      4.82735e+9 
           1325      4.61571e+9 
           1335      4.02407e+9 
           1345      4.72603e+9 
           1355       4.5211e+9 
           1365      4.04708e+9 
           1375      4.17115e+9 
           1385      4.24782e+9 
           1395      3.88321e+9 
           1405      4.02679e+9 
           1415      3.85323e+9 
           1425      3.96316e+9 
           1435      3.90556e+9 
           1442      4.10326e+9 
           1447      4.07081e+9 
           1455      3.97189e+9 
           1465      3.73197e+9 
           1475      3.65556e+9 
           1485       3.5766e+9 
           1495      3.61993e+9 
           1505      3.38886e+9 
           1512      3.09093e+9 
           1517      3.27096e+9 
           1525      3.26848e+9 
           1535       2.9731e+9 
           1545      3.10124e+9 
           1555      2.90661e+9 
           1565      2.90204e+9 
           1575      3.04451e+9 
           1585      3.08135e+9 
           1595      3.12413e+9 
           1605       3.0081e+9 
           1615      3.01459e+9 
           1625      2.86346e+9 
           1635      2.97342e+9 
           1645      2.95645e+9 
           1655      2.73006e+9 
           1665      2.95733e+9 
           1672      2.81174e+9 
           1677      2.87069e+9 
           1685      2.93558e+9 
           1695       2.7863e+9 
           1705      2.64291e+9 
           1715      2.48871e+9 
           1725      2.45462e+9 
           1735      2.56758e+9 
           1745      2.47377e+9 
           1755      2.57568e+9 
           1765      2.35817e+9 
           1775      2.41226e+9 
           1785      2.43142e+9 
           1795      2.51408e+9 
           1805      2.49266e+9 
           1815      2.30562e+9 
           1825      2.35881e+9 
           1835      2.24971e+9 
           1845      2.09491e+9 
           1855      2.02454e+9 
           1865      2.06213e+9 
           1875      2.22493e+9 
           1885      2.03313e+9 
           1895       1.9235e+9 
           1905      2.05471e+9 
           1915      1.94394e+9 
           1925      1.89949e+9 
           1935      1.95688e+9 
           1945      1.98292e+9 
           1955       1.8445e+9 
           1967      1.97903e+9 
           1976      2.03938e+9 
           1984       1.9063e+9 
           1995      1.84653e+9 
           2005      1.89066e+9 
           2015      1.80996e+9 
           2025       1.9213e+9 
           2035      1.79148e+9 
           2045      1.81022e+9 
           2055      1.73189e+9 
           2065      1.76357e+9 
           2074      1.81539e+9 
           2078      1.72003e+9 
           2085      1.76847e+9 
           2095      1.67094e+9 
           2105      1.69991e+9 
           2115      1.69128e+9 
           2125      1.71453e+9 
           2135       1.6404e+9 
           2145      1.62105e+9 
           2155      1.65982e+9 
           2165       1.6135e+9 
           2175      1.59392e+9 
           2185      1.55253e+9 
           2195      1.58221e+9 
           2205      1.53961e+9 
           2215      1.49679e+9 
           2225      1.43748e+9 
           2235      1.49433e+9 
           2245      1.45249e+9 
           2255      1.40089e+9 
           2265      1.42505e+9 
           2275      1.43336e+9 
           2285      1.43852e+9 
           2295      1.38489e+9 
           2305       1.3568e+9 
           2315      1.31481e+9 
           2325      1.30296e+9 
           2335      1.24995e+9 
           2345      1.22144e+9 
           2355      1.24355e+9 
           2365      1.19682e+9 
           2375      1.20734e+9 
           2385       1.1569e+9 
           2395      1.20506e+9 
           2405      1.15357e+9 
           2415      1.16154e+9 
           2425      1.17414e+9 
           2435      1.12252e+9 
           2445      1.15312e+9 
           2455      1.13462e+9 
           2465      1.11992e+9 
           2475        1.092e+9 
           2485      1.12447e+9 
           2495      1.08794e+9 
           2505      1.11319e+9 
           2513      1.06114e+9 
           2518      1.08937e+9 
           2525      1.04257e+9 
           2535      1.03682e+9 
           2545      1.01275e+9 
           2555      1.03929e+9 
           2565      1.02422e+9 
           2575      1.04781e+9 
           2585      1.04355e+9 
           2595      1.03849e+9 
           2605      1.01255e+9 
           2615       1.0046e+9 
           2625      9.98652e+8 
           2635       9.9673e+8 
           2645      1.01624e+9 
           2655      1.00512e+9 
           2665       9.7187e+8 
           2675       9.8278e+8 
           2685      9.71763e+8 
           2695      9.52116e+8 
           2705      9.50444e+8 
           2715      9.29759e+8 
           2725      9.18026e+8 
           2735      9.31823e+8 
           2745      8.83399e+8 
           2755      8.78338e+8 
           2765      8.83231e+8 
           2775      8.94293e+8 
           2785      8.86862e+8 
           2795      8.43009e+8 
           2805      8.63966e+8 
           2815      8.70389e+8 
           2825      8.55883e+8 
           2835      8.25341e+8 
           2845      8.18246e+8 
           2855      8.20751e+8 
           2865      8.29259e+8 
           2875      8.14431e+8 
           2885      8.11601e+8 
           2895      8.06183e+8 
           2910      8.02965e+8 
           2930      7.82211e+8 
           2950      7.65277e+8 
           2970       7.5761e+8 
           2990      7.42326e+8 
           3010      7.35529e+8 
           3030      7.26097e+8 
           3050       7.1126e+8 
           3070      6.98466e+8 
           3090      6.87915e+8 
           3110      6.73993e+8 
           3130      6.64061e+8 
           3150       6.5277e+8 
           3170      6.41185e+8 
           3190      6.22915e+8 
           3210      6.18907e+8 
           3230      6.09605e+8 
           3250      5.99985e+8 
           3270      5.91189e+8 
           3290      5.81517e+8 
           3310      5.73204e+8 
           3330      5.63316e+8 
           3350      5.52984e+8 
           3370      5.44682e+8 
           3390       5.3611e+8 
           3410      5.28091e+8 
           3430      5.18684e+8 
           3450      5.09712e+8 
           3470      5.02101e+8 
           3490      4.94446e+8 
           3510      4.87634e+8 
           3530      4.80522e+8 
           3550       4.7306e+8 
           3570      4.66888e+8 
           3590      4.57491e+8 
           3610      4.51424e+8 
           3630      4.44291e+8 
           3640      4.42678e+8 
           3650      4.38219e+8 
           3670       4.3312e+8 
           3690      4.24869e+8 
           3710       4.1146e+8 
           3730      3.93466e+8 
           3750      4.19767e+8 
           3770      4.24841e+8 
           3790       4.6582e+8 
           3810       4.9982e+8 
           3830      4.23602e+8 
           3850      5.23545e+8 
           3870      5.47779e+8 
           3890      3.92461e+8 
           3910      5.43972e+8 
           3930      5.41718e+8 
           3950       5.2893e+8 
           3970      3.68294e+8 
           3990      5.03423e+8 
           4010      5.16407e+8 
           4030      4.83273e+8 
           4050      5.07772e+8 
           4070      4.91673e+8 
           4090      4.28322e+8 
           4110      3.59934e+8 
           4130      4.57767e+8 
           4150      4.61547e+8 
           4170      4.59427e+8 
           4190      4.55395e+8 
           4210      4.49378e+8 
           4230      4.41601e+8 
           4250      4.33951e+8 
           4270      4.21589e+8 
           4290      4.18834e+8 
           4310      4.06722e+8 
           4330      3.45024e+8 
           4350      3.08969e+8 
           4370      3.85135e+8 
           4390      3.74949e+8 
           4410      3.82132e+8 
           4430      3.75042e+8 
           4450      3.72287e+8 
           4470      3.48073e+8 
           4490      3.57144e+8 
           4510      3.56317e+8 
           4530      3.49855e+8 
           4550      3.44839e+8 
           4570      3.40546e+8 
           4590      3.35368e+8 
           4610      3.30319e+8 
           4630      3.24502e+8 
           4650      3.20113e+8 
           4670       3.1603e+8 
           4690      3.11919e+8 
           4710      3.01481e+8 
           4730      3.01109e+8 
           4750      2.96475e+8 
           4770      2.94706e+8 
           4790      2.89491e+8 
           4810      2.83425e+8 
           4830      2.76061e+8 
           4850      2.41421e+8 
           4870      2.10564e+8 
           4890      2.62774e+8 
           4910      2.63966e+8 
           4930      2.54745e+8 
           4950      2.58964e+8 
           4970      2.55984e+8 
           4990       2.5212e+8 
           5010      2.43462e+8 
           5030      2.44374e+8 
           5050      2.37715e+8 
           5070      2.38613e+8 
           5090      2.35244e+8 
           5110       2.3156e+8 
           5130      2.28455e+8 
           5150      2.24937e+8 
           5170      2.22805e+8 
           5190      2.19944e+8 
           5210      2.15192e+8 
           5230      2.14114e+8 
           5250      2.11529e+8 
           5270       2.0838e+8 
           5290      2.06403e+8 
           5310      2.03449e+8 
           5330      2.00744e+8 
           5350      1.97746e+8 
           5370      1.95962e+8 
           5390      1.93434e+8 
           5410      1.90745e+8 
           5430      1.87899e+8 
           5450      1.85812e+8 
           5470      1.83285e+8 
           5490      1.81489e+8 
           5510      1.79045e+8 
           5530      1.76952e+8 
           5550      1.74835e+8 
           5570      1.72598e+8 
           5590      1.70533e+8 
           5610      1.68302e+8 
           5630      1.66609e+8 
           5650      1.63343e+8 
           5670      1.61595e+8 
           5690      1.60158e+8 
           5710      1.58518e+8 
           5730      1.56645e+8 
           5750      1.54748e+8 
           5770      1.52942e+8 
           5790      1.51055e+8 
           5810      1.49214e+8 
           5830       1.4746e+8 
           5850      1.45727e+8 
           5870      1.39881e+8 
           5890      1.41604e+8 
           5910      1.40594e+8 
           5930      1.39047e+8 
           5950      1.36901e+8 
           5970      1.35752e+8 
           5990      1.33944e+8 
           6010      1.32731e+8 
           6030      1.31158e+8 
           6050      1.29675e+8 
           6070      1.28167e+8 
           6090      1.26636e+8 
           6110      1.25314e+8 
           6130      1.23886e+8 
           6150      1.22016e+8 
           6170      1.21028e+8 
           6190      1.19736e+8 
           6210       1.1838e+8 
           6230       1.1698e+8 
           6250      1.15403e+8 
           6270      1.14419e+8 
           6290      1.13121e+8 
           6310      1.11762e+8 
           6330      1.10662e+8 
           6350      1.08705e+8 
           6370      1.07763e+8 
           6390      1.06997e+8 
           6410      1.05753e+8 
           6430      1.04796e+8 
           6450       1.0354e+8 
           6470      1.02406e+8 
           6490      1.01168e+8 
           6510      9.97291e+7 
           6530      9.78645e+7 
           6550      9.06293e+7 
           6570      7.86792e+7 
           6590      9.32539e+7 
           6610      9.44149e+7 
           6630      9.38119e+7 
           6650      9.30525e+7 
           6670       9.1259e+7 
           6690      9.03691e+7 
           6710      9.01742e+7 
           6730      8.92564e+7 
           6750       8.8348e+7 
           6770      8.74486e+7 
           6790      8.63786e+7 
           6810      8.56039e+7 
           6830      8.46753e+7 
           6850      8.38684e+7 
           6870      8.30216e+7 
           6890      8.21753e+7 
           6910      8.13295e+7 
           6930      8.03979e+7 
           6950      7.97018e+7 
           6970      7.89116e+7 
           6990      7.80983e+7 
           7010       7.7293e+7 
           7030      7.65261e+7 
           7050      7.56468e+7 
           7070      7.40648e+7 
           7090      7.42913e+7 
           7110      7.34968e+7 
           7130      7.27864e+7 
           7150      7.20666e+7 
           7170      7.13742e+7 
           7190      7.06935e+7 
           7210      7.00047e+7 
           7230      6.88482e+7 
           7250      6.85972e+7 
           7270      6.79779e+7 
           7290      6.69646e+7 
           7310      6.66621e+7 
           7330      6.60219e+7 
           7350       6.5396e+7 
           7370      6.47648e+7 
           7390       6.4145e+7 
           7410      6.35337e+7 
           7430       6.2857e+7 
           7450      6.23035e+7 
           7470      6.16564e+7 
           7490      6.11039e+7 
           7510      6.05398e+7 
           7530      5.99901e+7 
           7550      5.94308e+7 
           7570      5.88811e+7 
           7590      5.83188e+7 
           7610      5.77954e+7 
           7630      5.72527e+7 
           7650      5.67181e+7 
           7670      5.61941e+7 
           7690       5.5671e+7 
           7710      5.51626e+7 
           7730      5.46468e+7 
           7750      5.41493e+7 
           7770      5.32157e+7 
           7790       5.3165e+7 
           7810      5.26782e+7 
           7830      5.22097e+7 
           7850      5.16078e+7 
           7870       5.1156e+7 
           7890      5.06089e+7 
           7910      5.03443e+7 
           7930      4.99116e+7 
           7950      4.93395e+7 
           7970       4.9005e+7 
           7990      4.83911e+7 
           8010      4.81504e+7 
           8030      4.77122e+7 
           8050      4.72835e+7 
           8070        4.688e+7 
           8090      4.64453e+7 
           8110      4.60303e+7 
           8130      4.56326e+7 
           8150      4.52268e+7 
           8170      4.48589e+7 
           8190      4.44261e+7 
           8210      4.39238e+7 
           8230       4.3522e+7 
           8250      4.33007e+7 
           8270      4.28629e+7 
           8290      4.25434e+7 
           8310      4.22091e+7 
           8330      4.18535e+7 
           8350      4.14193e+7 
           8370      4.11108e+7 
           8390      4.08251e+7 
           8410      4.04565e+7 
           8430      4.00723e+7 
           8450      3.94433e+7 
           8470       3.9303e+7 
           8490      3.89706e+7 
           8510      3.84454e+7 
           8530       3.8388e+7 
           8550      3.72882e+7 
           8570      3.80777e+7 
           8590      3.66017e+7 
