# Kurucz ODFNEW /NOVER (2003)
# teff = 23000 K (value for the effective temperature for the model. Temperatures are given in K)
# logg = 4 log(cm/s2) (value for Log(G) for the model.)
# meta = -1  (value for the Metallicity for the model.)
# lh = 1.25  (l/Hp where l is the  mixing length of the convective element and Hp is the pressure scale height)
# vtur = 2 km/s (Microturbulence velocity)
# alpha = 0  (Alpha)
#
# column 1: WAVELENGTH (ANGSTROM), Wavelength in Angstrom
# column 2: FLUX (ERG/CM2/S/A), Flux in erg/cm2/s/A
          147.2     2.58191e-16 
            151     1.33246e-15 
          155.2     7.49594e-15 
          158.8     3.08002e-14 
            162     1.03026e-13 
            166      4.3821e-13 
          170.3     1.93313e-12 
          173.4     5.39668e-12 
          176.8     1.59896e-11 
          180.2     4.55481e-11 
          181.7     7.14037e-11 
          186.1     2.56474e-10 
            191     9.95507e-10 
          193.9      2.15163e-9 
          198.4      6.80739e-9 
          201.8      1.57128e-8 
            205      3.36614e-8 
          210.5      1.18043e-7 
          216.2      4.04886e-7 
          219.8      8.52927e-7 
            223       1.6202e-6 
          226.8      3.38826e-6 
            230      5.45375e-5 
            234     0.000129622 
            240     0.000337153 
          246.5      0.00089969 
          252.4      0.00212179 
          256.8      0.00375306 
            260      0.00595522 
            264      0.00998201 
          268.5        0.017496 
          273.5       0.0318876 
          278.5       0.0570081 
            284        0.105551 
            290          0.2002 
            296        0.369166 
            301        0.602261 
            308         1.13364 
            318         2.85505 
            328         6.52441 
            338         14.3531 
            348         29.9037 
            357         56.4079 
            366         102.653 
            375         178.352 
            385         322.403 
            395         561.937 
            405         951.533 
            414         1498.07 
            422          2187.6 
            430         3151.98 
            441         5119.76 
            451         7775.89 
            460         11086.5 
            470         16235.7 
            480         23280.7 
            490           32936 
            500           45851 
            506          321779 
            512      1.09917e+6 
            520      1.35561e+6 
            530       1.8182e+6 
            540      2.01685e+6 
            550      2.82977e+6 
            560      3.33867e+6 
            570      4.11446e+6 
            580      4.16922e+6 
            590      5.47464e+6 
            600      6.60428e+6 
            610      7.85675e+6 
            620      8.96104e+6 
            630      1.03584e+7 
            640      1.12908e+7 
            650      1.22649e+7 
            658      1.46563e+7 
            665      1.60105e+7 
            675       1.7486e+7 
            685      1.93614e+7 
            695      2.26743e+7 
            705      2.47651e+7 
            716      2.79694e+7 
            726      3.04499e+7 
            735      3.31516e+7 
            745      3.70678e+7 
            755      4.06268e+7 
            765       4.4296e+7 
            775      4.84936e+7 
            785      5.28531e+7 
            795      5.66312e+7 
            805      6.09778e+7 
            815      6.50772e+7 
            825      7.07324e+7 
            835      7.34196e+7 
            845      7.96486e+7 
            855      8.46916e+7 
            865      9.09568e+7 
            875      9.77664e+7 
            885      1.04655e+8 
            895      1.10847e+8 
            905      1.14915e+8 
            915        1.763e+8 
            925       1.1435e+9 
            935      3.63459e+9 
            945      1.0484e+10 
            955     1.48994e+10 
            965     1.92223e+10 
            975      5.19069e+9 
            985     2.09064e+10 
            995      1.9817e+10 
           1005     2.12515e+10 
           1015     1.95469e+10 
           1025      6.49633e+9 
           1035     1.58267e+10 
           1045     2.24804e+10 
           1055     2.14061e+10 
           1065     1.88321e+10 
           1075     2.05942e+10 
           1085      1.8693e+10 
           1095     2.03351e+10 
           1105     1.89012e+10 
           1115     1.87888e+10 
           1125     1.70025e+10 
           1135       1.862e+10 
           1145     1.71738e+10 
           1155     1.77381e+10 
           1165     1.76881e+10 
           1175     1.38576e+10 
           1185      1.6926e+10 
           1195     1.54008e+10 
           1205     1.17415e+10 
           1215       4.8679e+9 
           1225      1.2877e+10 
           1235     1.51117e+10 
           1245     1.51363e+10 
           1255      1.4747e+10 
           1265     1.45145e+10 
           1275     1.47183e+10 
           1285     1.44025e+10 
           1295     1.22054e+10 
           1305     1.23903e+10 
           1315      1.3657e+10 
           1325     1.30193e+10 
           1335     1.24478e+10 
           1345      1.2596e+10 
           1355     1.25858e+10 
           1365     1.19637e+10 
           1375     1.17509e+10 
           1385     1.16613e+10 
           1395     1.04254e+10 
           1405     1.06716e+10 
           1415     1.08385e+10 
           1425     1.06209e+10 
           1435     1.06181e+10 
           1442     1.06852e+10 
           1447     1.04938e+10 
           1455      1.0299e+10 
           1465      9.90487e+9 
           1475      9.79388e+9 
           1485      9.57564e+9 
           1495      9.42218e+9 
           1505      8.94261e+9 
           1512      8.40337e+9 
           1517      8.55253e+9 
           1525      8.56218e+9 
           1535      7.88226e+9 
           1545      7.95984e+9 
           1555      7.59605e+9 
           1565      7.83199e+9 
           1575      7.96005e+9 
           1585      7.82858e+9 
           1595      7.79055e+9 
           1605      7.56596e+9 
           1615      7.42662e+9 
           1625      7.36703e+9 
           1635      7.45616e+9 
           1645      7.28977e+9 
           1655      7.18351e+9 
           1665      7.21014e+9 
           1672      6.99681e+9 
           1677      7.17845e+9 
           1685      7.04782e+9 
           1695      6.82277e+9 
           1705      6.60418e+9 
           1715      6.37522e+9 
           1725      6.28645e+9 
           1735       6.3232e+9 
           1745      6.18957e+9 
           1755      6.21024e+9 
           1765      5.94488e+9 
           1775      5.84963e+9 
           1785       5.8383e+9 
           1795      5.86452e+9 
           1805      5.82897e+9 
           1815      5.52098e+9 
           1825      5.56686e+9 
           1835      5.44056e+9 
           1845      5.08194e+9 
           1855      5.01569e+9 
           1865      5.06288e+9 
           1875      5.15154e+9 
           1885      4.75319e+9 
           1895      4.49596e+9 
           1905      4.72222e+9 
           1915      4.52705e+9 
           1925      4.38518e+9 
           1935       4.5069e+9 
           1945      4.55787e+9 
           1955      4.23714e+9 
           1967       4.4113e+9 
           1976      4.52993e+9 
           1984      4.27478e+9 
           1995       4.1669e+9 
           2005      4.21934e+9 
           2015      4.21227e+9 
           2025      4.25566e+9 
           2035      4.02445e+9 
           2045      4.00518e+9 
           2055      3.89538e+9 
           2065      3.91234e+9 
           2074      4.01158e+9 
           2078      3.80735e+9 
           2085      3.84657e+9 
           2095      3.70032e+9 
           2105      3.75775e+9 
           2115      3.72533e+9 
           2125      3.75476e+9 
           2135      3.67925e+9 
           2145      3.55316e+9 
           2155      3.59862e+9 
           2165      3.55999e+9 
           2175      3.50424e+9 
           2185      3.45401e+9 
           2195      3.43801e+9 
           2205      3.39016e+9 
           2215       3.3481e+9 
           2225      3.28223e+9 
           2235      3.24093e+9 
           2245      3.22752e+9 
           2255      3.16266e+9 
           2265      3.15139e+9 
           2275      3.10941e+9 
           2285      3.08622e+9 
           2295      2.98478e+9 
           2305       3.0012e+9 
           2315      2.94187e+9 
           2325      2.91034e+9 
           2335      2.84816e+9 
           2345      2.81878e+9 
           2355      2.81214e+9 
           2365      2.76713e+9 
           2375      2.73366e+9 
           2385      2.69442e+9 
           2395      2.66934e+9 
           2405      2.63312e+9 
           2415       2.5967e+9 
           2425      2.59006e+9 
           2435      2.54272e+9 
           2445      2.52127e+9 
           2455      2.50364e+9 
           2465      2.46576e+9 
           2475      2.43807e+9 
           2485      2.40842e+9 
           2495      2.32276e+9 
           2505      2.34976e+9 
           2513      2.28024e+9 
           2518      2.31463e+9 
           2525      2.29135e+9 
           2535      2.25918e+9 
           2545      2.21925e+9 
           2555       2.2187e+9 
           2565      2.18827e+9 
           2575      2.17579e+9 
           2585      2.15093e+9 
           2595      2.12616e+9 
           2605       2.1132e+9 
           2615       2.0915e+9 
           2625      2.07089e+9 
           2635      2.04419e+9 
           2645      2.03059e+9 
           2655      2.00774e+9 
           2665      1.97371e+9 
           2675      1.95672e+9 
           2685      1.94886e+9 
           2695      1.90511e+9 
           2705      1.90099e+9 
           2715      1.88073e+9 
           2725        1.846e+9 
           2735      1.84325e+9 
           2745      1.80205e+9 
           2755      1.79023e+9 
           2765      1.76597e+9 
           2775       1.7673e+9 
           2785       1.7455e+9 
           2795      1.69436e+9 
           2805      1.69825e+9 
           2815      1.69357e+9 
           2825      1.65875e+9 
           2835      1.62809e+9 
           2845      1.63812e+9 
           2855      1.62089e+9 
           2865      1.60689e+9 
           2875      1.58948e+9 
           2885      1.57359e+9 
           2895      1.55663e+9 
           2910      1.53186e+9 
           2930      1.49926e+9 
           2950       1.4593e+9 
           2970      1.44112e+9 
           2990      1.40977e+9 
           3010      1.38116e+9 
           3030      1.35757e+9 
           3050      1.33079e+9 
           3070      1.30484e+9 
           3090      1.27537e+9 
           3110        1.254e+9 
           3130      1.23072e+9 
           3150      1.20732e+9 
           3170      1.18306e+9 
           3190      1.15146e+9 
           3210      1.13913e+9 
           3230      1.11724e+9 
           3250       1.0965e+9 
           3270      1.07718e+9 
           3290      1.05559e+9 
           3310      1.03803e+9 
           3330       1.0189e+9 
           3350      9.98446e+8 
           3370      9.82086e+8 
           3390      9.64566e+8 
           3410      9.47258e+8 
           3430      9.25645e+8 
           3450      9.05796e+8 
           3470      8.92507e+8 
           3490      8.76708e+8 
           3510      8.64452e+8 
           3530      8.51329e+8 
           3550      8.36921e+8 
           3570      8.26713e+8 
           3590      8.07062e+8 
           3610      7.94531e+8 
           3630      7.80168e+8 
           3640      7.78816e+8 
           3650      7.64883e+8 
           3670      7.55506e+8 
           3690      7.38485e+8 
           3710      7.14396e+8 
           3730      6.89371e+8 
           3750       7.3409e+8 
           3770      7.38303e+8 
           3790      7.79235e+8 
           3810      8.13326e+8 
           3830      7.08828e+8 
           3850      8.36671e+8 
           3870      8.41277e+8 
           3890      6.71894e+8 
           3910      8.29154e+8 
           3930      8.12687e+8 
           3950      8.02257e+8 
           3970      6.24867e+8 
           3990      7.69877e+8 
           4010      7.65684e+8 
           4030      7.21337e+8 
           4050      7.47855e+8 
           4070      7.29402e+8 
           4090      6.73325e+8 
           4110      5.87794e+8 
           4130      6.85193e+8 
           4150      6.80486e+8 
           4170      6.74993e+8 
           4190      6.66247e+8 
           4210      6.56255e+8 
           4230       6.4501e+8 
           4250      6.33698e+8 
           4270      6.19222e+8 
           4290      6.12622e+8 
           4310       5.9904e+8 
           4330      5.42824e+8 
           4350      4.94462e+8 
           4370      5.69309e+8 
           4390       5.5002e+8 
           4410      5.56297e+8 
           4430      5.46083e+8 
           4450      5.40234e+8 
           4470      5.08618e+8 
           4490      5.22111e+8 
           4510      5.15991e+8 
           4530        5.077e+8 
           4550      4.99698e+8 
           4570      4.91888e+8 
           4590      4.84732e+8 
           4610      4.77132e+8 
           4630      4.69802e+8 
           4650       4.6124e+8 
           4670      4.55968e+8 
           4690      4.49775e+8 
           4710      4.36436e+8 
           4730      4.34959e+8 
           4750      4.28065e+8 
           4770      4.23986e+8 
           4790      4.17629e+8 
           4810      4.10613e+8 
           4830      4.02472e+8 
           4850      3.71548e+8 
           4870      3.31587e+8 
           4890      3.84274e+8 
           4910      3.81353e+8 
           4930      3.67694e+8 
           4950      3.71709e+8 
           4970      3.66741e+8 
           4990      3.61462e+8 
           5010      3.50867e+8 
           5030      3.51314e+8 
           5050      3.43544e+8 
           5070      3.41689e+8 
           5090      3.36944e+8 
           5110      3.32205e+8 
           5130      3.27272e+8 
           5150      3.22789e+8 
           5170      3.18817e+8 
           5190      3.14476e+8 
           5210      3.09874e+8 
           5230      3.06007e+8 
           5250      3.01903e+8 
           5270      2.97798e+8 
           5290      2.93868e+8 
           5310      2.89921e+8 
           5330      2.86039e+8 
           5350      2.82128e+8 
           5370      2.78606e+8 
           5390      2.74921e+8 
           5410      2.71322e+8 
           5430      2.67653e+8 
           5450      2.64208e+8 
           5470      2.60782e+8 
           5490      2.57448e+8 
           5510      2.54143e+8 
           5530      2.50854e+8 
           5550      2.47679e+8 
           5570      2.44483e+8 
           5590      2.41399e+8 
           5610      2.38292e+8 
           5630       2.3533e+8 
           5650      2.32109e+8 
           5670      2.29092e+8 
           5690      2.26135e+8 
           5710      2.23664e+8 
           5730        2.209e+8 
           5750      2.18079e+8 
           5770      2.15506e+8 
           5790       2.1284e+8 
           5810      2.10227e+8 
           5830      2.07612e+8 
           5850      2.05105e+8 
           5870      1.96494e+8 
           5890      1.99549e+8 
           5910      1.97683e+8 
           5930       1.9527e+8 
           5950      1.92863e+8 
           5970      1.90685e+8 
           5990      1.88333e+8 
           6010      1.86153e+8 
           6030      1.83926e+8 
           6050      1.81765e+8 
           6070      1.79628e+8 
           6090      1.77506e+8 
           6110      1.75427e+8 
           6130      1.73382e+8 
           6150       1.7125e+8 
           6170       1.6933e+8 
           6190      1.67402e+8 
           6210      1.65466e+8 
           6230      1.63561e+8 
           6250      1.61638e+8 
           6270      1.59813e+8 
           6290      1.57989e+8 
           6310      1.56175e+8 
           6330      1.54419e+8 
           6350      1.52514e+8 
           6370       1.5088e+8 
           6390      1.49235e+8 
           6410      1.47554e+8 
           6430      1.45918e+8 
           6450       1.4429e+8 
           6470      1.42607e+8 
           6490      1.41059e+8 
           6510      1.39438e+8 
           6530       1.3733e+8 
           6550      1.31242e+8 
           6570      1.16427e+8 
           6590      1.31701e+8 
           6610      1.31767e+8 
           6630      1.30596e+8 
           6650      1.29267e+8 
           6670      1.26587e+8 
           6690      1.25251e+8 
           6710      1.25133e+8 
           6730      1.23766e+8 
           6750      1.22463e+8 
           6770      1.21157e+8 
           6790      1.19717e+8 
           6810      1.18577e+8 
           6830      1.17326e+8 
           6850      1.16096e+8 
           6870       1.1487e+8 
           6890      1.13657e+8 
           6910      1.12463e+8 
           6930      1.11282e+8 
           6950      1.10135e+8 
           6970      1.08992e+8 
           6990      1.07845e+8 
           7010       1.0674e+8 
           7030      1.05638e+8 
           7050      1.04547e+8 
           7070        1.018e+8 
           7090      1.02419e+8 
           7110      1.01374e+8 
           7130      1.00339e+8 
           7150      9.93214e+7 
           7170      9.82991e+7 
           7190       9.7323e+7 
           7210      9.63418e+7 
           7230      9.48222e+7 
           7250      9.44072e+7 
           7270      9.34751e+7 
           7290      9.17791e+7 
           7310      9.16018e+7 
           7330        9.071e+7 
           7350      8.98125e+7 
           7370      8.89235e+7 
           7390      8.80496e+7 
           7410      8.71839e+7 
           7430      8.63262e+7 
           7450      8.54968e+7 
           7470       8.4648e+7 
           7490      8.38406e+7 
           7510      8.29939e+7 
           7530      8.22214e+7 
           7550      8.14295e+7 
           7570      8.06448e+7 
           7590      7.98672e+7 
           7610      7.91032e+7 
           7630       7.8346e+7 
           7650      7.76022e+7 
           7670      7.68586e+7 
           7690      7.61281e+7 
           7710      7.54104e+7 
           7730      7.46991e+7 
           7750      7.39879e+7 
           7770      7.32144e+7 
           7790      7.26093e+7 
           7810      7.18735e+7 
           7830       7.1261e+7 
           7850      7.06538e+7 
           7870      6.99971e+7 
           7890      6.92856e+7 
           7910       6.8725e+7 
           7930      6.80672e+7 
           7950       6.7302e+7 
           7970      6.66443e+7 
           7990      6.60397e+7 
           8010      6.54285e+7 
           8030      6.48342e+7 
           8050      6.42566e+7 
           8070      6.37418e+7 
           8090      6.30241e+7 
           8110      6.25476e+7 
           8130      6.20464e+7 
           8150      6.13963e+7 
           8170      6.09719e+7 
           8190      6.03263e+7 
           8210      5.96079e+7 
           8230      5.92518e+7 
           8250      5.87601e+7 
           8270      5.79144e+7 
           8290      5.76627e+7 
           8310      5.71782e+7 
           8330      5.66542e+7 
           8350       5.5859e+7 
           8370      5.55493e+7 
           8390       5.5151e+7 
           8410        5.466e+7 
           8430      5.41041e+7 
           8450      5.32521e+7 
           8470      5.30586e+7 
           8490      5.25999e+7 
           8510      5.19435e+7 
           8530      5.17815e+7 
           8550      5.04068e+7 
           8570      5.15763e+7 
           8590      4.92732e+7 
