# Kurucz ODFNEW /NOVER (2003)
# teff = 27000 K (value for the effective temperature for the model. Temperatures are given in K)
# logg = 4 log(cm/s2) (value for Log(G) for the model.)
# meta = -0.5  (value for the Metallicity for the model.)
# lh = 1.25  (l/Hp where l is the  mixing length of the convective element and Hp is the pressure scale height)
# vtur = 2 km/s (Microturbulence velocity)
# alpha = 0.4  (Alpha)
#
# column 1: WAVELENGTH (ANGSTROM), Wavelength in Angstrom
# column 2: FLUX (ERG/CM2/S/A), Flux in erg/cm2/s/A
          147.2     3.25233e-12 
            151     1.25467e-11 
          155.2     5.21605e-11 
          158.8     1.67678e-10 
            162     4.55724e-10 
            166      1.51452e-9 
          170.3      5.19563e-9 
          173.4      1.22196e-8 
          176.8      3.02027e-8 
          180.2      7.22899e-8 
          181.7      1.05182e-7 
          186.1      3.06022e-7 
            191      9.51102e-7 
          193.9      1.81234e-6 
          198.4      4.75188e-6 
          201.8      9.57013e-6 
            205      1.81108e-5 
          210.5      5.18398e-5 
          216.2     0.000145639 
          219.8     0.000271965 
            223     0.000465736 
          226.8     0.000867884 
            230        0.102037 
            234        0.228221 
            240        0.482521 
          246.5         1.05426 
          252.4         2.08992 
          256.8         3.16802 
            260         4.90718 
            264         7.17773 
          268.5          11.521 
          273.5         18.6712 
          278.5         29.3909 
            284         53.0091 
            290         87.5885 
            296         142.361 
            301         207.644 
            308          361.15 
            318         802.754 
            328          1511.2 
            338         2947.02 
            348         5324.74 
            357         18801.7 
            366         35576.1 
            375         51709.4 
            385         83354.5 
            395          144916 
            405          209191 
            414          301962 
            422          383575 
            430          511814 
            441          726026 
            451          979195 
            460      1.23626e+6 
            470      1.65005e+6 
            480      2.12826e+6 
            490      2.75902e+6 
            500       3.5283e+6 
            506      1.76994e+7 
            512      8.15516e+7 
            520      8.65837e+7 
            530      9.72469e+7 
            540      9.63399e+7 
            550      1.30591e+8 
            560      1.51088e+8 
            570      1.71563e+8 
            580      1.63055e+8 
            590      2.02899e+8 
            600       2.1349e+8 
            610      2.44069e+8 
            620      2.67268e+8 
            630       2.8351e+8 
            640       2.7713e+8 
            650      2.77309e+8 
            658      3.20629e+8 
            665      3.53937e+8 
            675      3.62677e+8 
            685      3.67099e+8 
            695      4.47591e+8 
            705      4.41305e+8 
            716       5.0085e+8 
            726      5.10541e+8 
            735      5.32285e+8 
            745      5.85846e+8 
            755      6.11471e+8 
            765      6.47468e+8 
            775      6.84056e+8 
            785      7.25245e+8 
            795      7.43713e+8 
            805      7.68312e+8 
            815      7.82867e+8 
            825       8.3845e+8 
            835      7.54675e+8 
            845      8.66342e+8 
            855      8.87268e+8 
            865      9.31521e+8 
            875      9.75105e+8 
            885      1.03068e+9 
            895      1.06798e+9 
            905      1.07109e+9 
            915       1.4284e+9 
            925      8.89489e+9 
            935     1.92289e+10 
            945     3.45763e+10 
            955     4.01321e+10 
            965     4.74742e+10 
            975       1.391e+10 
            985     4.23625e+10 
            995     3.90495e+10 
           1005     4.21143e+10 
           1015     4.23819e+10 
           1025     2.43298e+10 
           1035     3.67296e+10 
           1045     4.73971e+10 
           1055     4.44686e+10 
           1065     3.72503e+10 
           1075     4.09908e+10 
           1085     3.76817e+10 
           1095      4.1122e+10 
           1105     3.76259e+10 
           1115     3.66025e+10 
           1125     3.00044e+10 
           1135     3.70932e+10 
           1145     3.36895e+10 
           1155     3.42524e+10 
           1165     3.41943e+10 
           1175     2.35254e+10 
           1185     3.18774e+10 
           1195     2.98081e+10 
           1205     2.28771e+10 
           1215      1.6779e+10 
           1225     2.74672e+10 
           1235     2.99116e+10 
           1245     2.91244e+10 
           1255     2.87027e+10 
           1265      2.8771e+10 
           1275     2.91905e+10 
           1285     2.86216e+10 
           1295     2.24934e+10 
           1305     2.38201e+10 
           1315     2.74155e+10 
           1325      2.5954e+10 
           1335     2.52368e+10 
           1345     2.48609e+10 
           1355     2.49385e+10 
           1365     2.33451e+10 
           1375     2.27457e+10 
           1385     2.22456e+10 
           1395     1.60675e+10 
           1405     1.74656e+10 
           1415     2.04299e+10 
           1425     1.95078e+10 
           1435     2.00711e+10 
           1442     2.04166e+10 
           1447     2.00383e+10 
           1455     1.94021e+10 
           1465     1.84905e+10 
           1475     1.84969e+10 
           1485     1.81922e+10 
           1495      1.7744e+10 
           1505     1.65288e+10 
           1512     1.54349e+10 
           1517     1.57445e+10 
           1525     1.58033e+10 
           1535     1.38508e+10 
           1545      1.3525e+10 
           1555     1.29754e+10 
           1565     1.37894e+10 
           1575     1.43739e+10 
           1585     1.41769e+10 
           1595     1.41434e+10 
           1605      1.3734e+10 
           1615      1.3307e+10 
           1625     1.32767e+10 
           1635      1.3632e+10 
           1645     1.34019e+10 
           1655     1.33496e+10 
           1665     1.32338e+10 
           1672     1.27533e+10 
           1677     1.37118e+10 
           1685     1.32399e+10 
           1695     1.26907e+10 
           1705     1.23116e+10 
           1715     1.18049e+10 
           1725     1.15301e+10 
           1735     1.17528e+10 
           1745     1.15679e+10 
           1755     1.15114e+10 
           1765     1.12838e+10 
           1775     1.07739e+10 
           1785     1.08164e+10 
           1795     1.08967e+10 
           1805     1.08918e+10 
           1815     1.01414e+10 
           1825     1.02988e+10 
           1835     1.00476e+10 
           1845      9.22217e+9 
           1855      9.32051e+9 
           1865      9.42878e+9 
           1875      9.49479e+9 
           1885      8.66794e+9 
           1895      8.12014e+9 
           1905      8.61717e+9 
           1915      8.23802e+9 
           1925      7.84949e+9 
           1935      8.22527e+9 
           1945      8.37005e+9 
           1955      7.61576e+9 
           1967      8.05125e+9 
           1976      8.38804e+9 
           1984      7.81289e+9 
           1995      7.65636e+9 
           2005      7.77895e+9 
           2015      7.75964e+9 
           2025      7.85857e+9 
           2035      7.31248e+9 
           2045      7.32654e+9 
           2055      6.89653e+9 
           2065      6.88007e+9 
           2074      7.12352e+9 
           2078      6.70989e+9 
           2085      6.89656e+9 
           2095      6.67148e+9 
           2105      6.85855e+9 
           2115      6.83334e+9 
           2125      6.86862e+9 
           2135      6.73575e+9 
           2145      6.46446e+9 
           2155      6.60295e+9 
           2165      6.52401e+9 
           2175      6.42394e+9 
           2185      6.29883e+9 
           2195      6.29873e+9 
           2205      6.22964e+9 
           2215      6.13758e+9 
           2225      6.00674e+9 
           2235      5.89934e+9 
           2245      5.89765e+9 
           2255       5.7576e+9 
           2265      5.74476e+9 
           2275      5.66882e+9 
           2285      5.59824e+9 
           2295        5.241e+9 
           2305      5.42259e+9 
           2315      5.31933e+9 
           2325      5.25548e+9 
           2335      5.14098e+9 
           2345      5.14649e+9 
           2355      5.09133e+9 
           2365      5.03294e+9 
           2375      4.93474e+9 
           2385      4.87729e+9 
           2395      4.80972e+9 
           2405      4.75352e+9 
           2415      4.67399e+9 
           2425      4.64731e+9 
           2435      4.54333e+9 
           2445      4.51166e+9 
           2455       4.4756e+9 
           2465      4.42021e+9 
           2475      4.34907e+9 
           2485      4.27363e+9 
           2495      3.65441e+9 
           2505      4.12978e+9 
           2513      4.01035e+9 
           2518      4.07358e+9 
           2525      4.07561e+9 
           2535      4.03924e+9 
           2545      3.89826e+9 
           2555      3.90907e+9 
           2565      3.85706e+9 
           2575      3.84239e+9 
           2585       3.7962e+9 
           2595      3.75324e+9 
           2605      3.72437e+9 
           2615      3.67362e+9 
           2625        3.637e+9 
           2635      3.59132e+9 
           2645      3.54408e+9 
           2655      3.50257e+9 
           2665      3.42096e+9 
           2675      3.39769e+9 
           2685      3.38534e+9 
           2695      3.28967e+9 
           2705       3.2641e+9 
           2715      3.24082e+9 
           2725      3.19389e+9 
           2735      3.16826e+9 
           2745      3.12587e+9 
           2755       3.0987e+9 
           2765      3.04637e+9 
           2775       3.0472e+9 
           2785      3.00015e+9 
           2795      2.90055e+9 
           2805      2.91653e+9 
           2815      2.90925e+9 
           2825      2.85641e+9 
           2835      2.79242e+9 
           2845       2.8101e+9 
           2855      2.76434e+9 
           2865      2.74104e+9 
           2875      2.70983e+9 
           2885      2.68365e+9 
           2895      2.64789e+9 
           2910      2.59254e+9 
           2930      2.54647e+9 
           2950      2.47367e+9 
           2970      2.43649e+9 
           2990      2.37961e+9 
           3010        2.308e+9 
           3030      2.27571e+9 
           3050      2.23563e+9 
           3070      2.19517e+9 
           3090      2.11504e+9 
           3110      2.09949e+9 
           3130       2.0476e+9 
           3150      2.01067e+9 
           3170      1.96686e+9 
           3190      1.91754e+9 
           3210       1.8916e+9 
           3230      1.84669e+9 
           3250       1.8159e+9 
           3270      1.77723e+9 
           3290      1.74034e+9 
           3310      1.70888e+9 
           3330      1.67255e+9 
           3350      1.64029e+9 
           3370      1.60767e+9 
           3390       1.5807e+9 
           3410       1.5508e+9 
           3430      1.51606e+9 
           3450       1.4816e+9 
           3470      1.45524e+9 
           3490      1.42661e+9 
           3510      1.40477e+9 
           3530      1.38322e+9 
           3550      1.35667e+9 
           3570      1.33705e+9 
           3590      1.30109e+9 
           3610      1.28131e+9 
           3630      1.25642e+9 
           3640      1.25425e+9 
           3650      1.22694e+9 
           3670      1.21215e+9 
           3690      1.18679e+9 
           3710      1.14389e+9 
           3730      1.10155e+9 
           3750      1.14097e+9 
           3770      1.12975e+9 
           3790      1.17227e+9 
           3810      1.20827e+9 
           3830      1.07444e+9 
           3850      1.21878e+9 
           3870      1.20656e+9 
           3890      1.01862e+9 
           3910      1.19299e+9 
           3930      1.15961e+9 
           3950      1.14466e+9 
           3970      9.44782e+8 
           3990      1.10581e+9 
           4010      1.09619e+9 
           4030       1.0437e+9 
           4050       1.0647e+9 
           4070      1.02149e+9 
           4090       9.6051e+8 
           4110      8.65567e+8 
           4130      9.71017e+8 
           4150      9.64327e+8 
           4170       9.5811e+8 
           4190      9.42891e+8 
           4210      9.32445e+8 
           4230      9.14258e+8 
           4250      8.91386e+8 
           4270      8.68778e+8 
           4290      8.57012e+8 
           4310      8.35854e+8 
           4330      7.78981e+8 
           4350       7.1591e+8 
           4370       7.9706e+8 
           4390      7.81017e+8 
           4410      7.79005e+8 
           4430      7.71008e+8 
           4450      7.57644e+8 
           4470      7.23295e+8 
           4490      7.33516e+8 
           4510      7.26377e+8 
           4530      7.15112e+8 
           4550      7.02543e+8 
           4570      6.90725e+8 
           4590      6.79015e+8 
           4610      6.66984e+8 
           4630      6.57948e+8 
           4650      6.36515e+8 
           4670      6.36119e+8 
           4690      6.29215e+8 
           4710      6.07173e+8 
           4730      6.10637e+8 
           4750      5.99895e+8 
           4770      5.95769e+8 
           4790      5.86256e+8 
           4810      5.75236e+8 
           4830      5.63264e+8 
           4850      5.31866e+8 
           4870      4.81139e+8 
           4890      5.39695e+8 
           4910      5.33901e+8 
           4930      5.16341e+8 
           4950      5.17066e+8 
           4970      5.13157e+8 
           4990       5.0536e+8 
           5010      4.88996e+8 
           5030      4.90297e+8 
           5050      4.80143e+8 
           5070       4.7708e+8 
           5090      4.69587e+8 
           5110      4.62787e+8 
           5130      4.55507e+8 
           5150      4.49305e+8 
           5170      4.43398e+8 
           5190      4.37707e+8 
           5210      4.31022e+8 
           5230      4.25749e+8 
           5250        4.199e+8 
           5270      4.13762e+8 
           5290      4.08445e+8 
           5310      4.02702e+8 
           5330      3.97272e+8 
           5350      3.91622e+8 
           5370      3.86699e+8 
           5390      3.81098e+8 
           5410        3.762e+8 
           5430       3.7107e+8 
           5450      3.65942e+8 
           5470      3.61143e+8 
           5490      3.56517e+8 
           5510      3.51985e+8 
           5530      3.47128e+8 
           5550      3.42796e+8 
           5570      3.38214e+8 
           5590      3.33881e+8 
           5610      3.29434e+8 
           5630      3.25326e+8 
           5650      3.20525e+8 
           5670      3.15831e+8 
           5690      3.11136e+8 
           5710      3.08313e+8 
           5730       3.0465e+8 
           5750      2.99925e+8 
           5770      2.97182e+8 
           5790      2.93323e+8 
           5810      2.89644e+8 
           5830      2.85754e+8 
           5850      2.82361e+8 
           5870      2.71628e+8 
           5890      2.74282e+8 
           5910      2.71609e+8 
           5930      2.68141e+8 
           5950      2.64735e+8 
           5970       2.6215e+8 
           5990      2.58471e+8 
           6010      2.55658e+8 
           6030      2.52359e+8 
           6050      2.49417e+8 
           6070      2.46508e+8 
           6090       2.4352e+8 
           6110      2.40617e+8 
           6130      2.37776e+8 
           6150      2.34489e+8 
           6170      2.31883e+8 
           6190      2.29305e+8 
           6210      2.26658e+8 
           6230      2.24002e+8 
           6250      2.21211e+8 
           6270      2.18681e+8 
           6290      2.16188e+8 
           6310      2.13542e+8 
           6330      2.11179e+8 
           6350      2.08412e+8 
           6370      2.06251e+8 
           6390      2.03874e+8 
           6410      2.01522e+8 
           6430      1.99295e+8 
           6450      1.96992e+8 
           6470      1.94426e+8 
           6490        1.923e+8 
           6510      1.90249e+8 
           6530      1.87442e+8 
           6550      1.81065e+8 
           6570      1.62326e+8 
           6590      1.79976e+8 
           6610      1.79656e+8 
           6630      1.77836e+8 
           6650      1.75772e+8 
           6670      1.72467e+8 
           6690      1.70612e+8 
           6710      1.70174e+8 
           6730      1.68024e+8 
           6750      1.66509e+8 
           6770      1.64697e+8 
           6790      1.62437e+8 
           6810      1.61045e+8 
           6830      1.59207e+8 
           6850      1.57621e+8 
           6870      1.55914e+8 
           6890      1.54105e+8 
           6910      1.52323e+8 
           6930      1.50951e+8 
           6950      1.49366e+8 
           6970      1.47781e+8 
           6990      1.46196e+8 
           7010       1.4465e+8 
           7030      1.43104e+8 
           7050      1.41611e+8 
           7070      1.38053e+8 
           7090      1.38661e+8 
           7110      1.37018e+8 
           7130      1.35672e+8 
           7150      1.34362e+8 
           7170      1.32961e+8 
           7190       1.3161e+8 
           7210      1.30251e+8 
           7230      1.27859e+8 
           7250      1.27398e+8 
           7270      1.26278e+8 
           7290      1.24033e+8 
           7310      1.23694e+8 
           7330      1.22445e+8 
           7350      1.21215e+8 
           7370      1.19996e+8 
           7390      1.18788e+8 
           7410      1.17592e+8 
           7430      1.16394e+8 
           7450      1.15247e+8 
           7470      1.13739e+8 
           7490      1.12938e+8 
           7510       1.1181e+8 
           7530      1.10692e+8 
           7550       1.0965e+8 
           7570      1.08572e+8 
           7590      1.07497e+8 
           7610      1.06334e+8 
           7630      1.05402e+8 
           7650      1.04369e+8 
           7670      1.03364e+8 
           7690      1.02356e+8 
           7710      1.01363e+8 
           7730       1.0036e+8 
           7750      9.94221e+7 
           7770      9.82619e+7 
           7790      9.75221e+7 
           7810      9.65354e+7 
           7830       9.5668e+7 
           7850      9.48021e+7 
           7870      9.38221e+7 
           7890      9.28206e+7 
           7910      9.21471e+7 
           7930      9.12455e+7 
           7950       9.0334e+7 
           7970      8.94008e+7 
           7990      8.85348e+7 
           8010      8.77175e+7 
           8030      8.68954e+7 
           8050      8.61328e+7 
           8070      8.53767e+7 
           8090      8.44543e+7 
           8110      8.34483e+7 
           8130      8.30553e+7 
           8150      8.21945e+7 
           8170      8.15668e+7 
           8190      8.05455e+7 
           8210       7.9684e+7 
           8230      7.90692e+7 
           8250      7.85202e+7 
           8270       7.7199e+7 
           8290      7.70078e+7 
           8310      7.63648e+7 
           8330       7.5662e+7 
           8350      7.46354e+7 
           8370      7.41447e+7 
           8390       7.3615e+7 
           8410      7.29297e+7 
           8430      7.22342e+7 
           8450      7.10907e+7 
           8470      7.08551e+7 
           8490       7.0182e+7 
           8510      6.93843e+7 
           8530      6.90282e+7 
           8550      6.75255e+7 
           8570      6.85187e+7 
