# Kurucz ODFNEW /NOVER (2003)
# teff = 32000 K (value for the effective temperature for the model. Temperatures are given in K)
# logg = 5 log(cm/s2) (value for Log(G) for the model.)
# meta = -1  (value for the Metallicity for the model.)
# lh = 1.25  (l/Hp where l is the  mixing length of the convective element and Hp is the pressure scale height)
# vtur = 2 km/s (Microturbulence velocity)
# alpha = 0.4  (Alpha)
#
# column 1: WAVELENGTH (ANGSTROM), Wavelength in Angstrom
# column 2: FLUX (ERG/CM2/S/A), Flux in erg/cm2/s/A
          147.2      6.45129e-7 
            151      1.87861e-6 
          155.2      5.77191e-6 
          158.8      1.44334e-5 
            162      3.15492e-5 
            166      8.04358e-5 
          170.3     0.000209472 
          173.4     0.000405828 
          176.8     0.000815871 
          180.2      0.00159732 
          181.7      0.00213144 
          186.1      0.00483742 
            191       0.0115215 
          193.9       0.0188549 
          198.4       0.0393358 
          201.8       0.0670575 
            205        0.108971 
          210.5        0.242513 
          216.2        0.531528 
          219.8        0.854331 
            223         1.28536 
          226.8          2.0589 
            230         587.235 
            234          1672.5 
            240         2918.54 
          246.5          5201.1 
          252.4         8638.56 
          256.8         10894.1 
            260           16376 
            264         21238.1 
          268.5         30634.4 
          273.5         43634.8 
          278.5         59198.6 
            284         98003.1 
            290          140940 
            296          195980 
            301          247566 
            308          370935 
            318          726010 
            328      1.11344e+6 
            338      1.80497e+6 
            348      2.72919e+6 
            357      4.64287e+6 
            366      7.03956e+6 
            375       9.1208e+6 
            385      1.28849e+7 
            395      1.79666e+7 
            405      2.32388e+7 
            414      3.00028e+7 
            422      3.52414e+7 
            430      4.25384e+7 
            441      5.41633e+7 
            451      6.72831e+7 
            460      7.86734e+7 
            470      9.58349e+7 
            480      1.14113e+8 
            490      1.34472e+8 
            500       1.6118e+8 
            506      5.52523e+8 
            512      2.68509e+9 
            520      2.62889e+9 
            530      2.70953e+9 
            540      2.47406e+9 
            550      2.90312e+9 
            560      3.16015e+9 
            570      3.31067e+9 
            580      3.09133e+9 
            590      3.40885e+9 
            600      3.33406e+9 
            610      3.54061e+9 
            620      3.77905e+9 
            630      3.85016e+9 
            640       3.7741e+9 
            650      3.97978e+9 
            658      3.94346e+9 
            665      4.06831e+9 
            675      4.10609e+9 
            685      3.96789e+9 
            695      4.43527e+9 
            705       4.2538e+9 
            716      4.64519e+9 
            726      4.63754e+9 
            735      4.74572e+9 
            745      4.87724e+9 
            755      4.92463e+9 
            765       5.0286e+9 
            775      5.13977e+9 
            785      5.30609e+9 
            795      5.33158e+9 
            805      5.36604e+9 
            815      5.41354e+9 
            825      5.58155e+9 
            835      5.22885e+9 
            845      5.64441e+9 
            855      5.69455e+9 
            865      5.81842e+9 
            875      5.90416e+9 
            885      6.00814e+9 
            895      6.09239e+9 
            905      6.06152e+9 
            915      6.29739e+9 
            925     1.95699e+10 
            935     3.62933e+10 
            945     6.89948e+10 
            955     8.28452e+10 
            965      1.0685e+11 
            975     4.81025e+10 
            985     1.06267e+11 
            995     9.61092e+10 
           1005     1.00991e+11 
           1015     9.71786e+10 
           1025     4.92648e+10 
           1035     8.95239e+10 
           1045     1.02039e+11 
           1055     9.88512e+10 
           1065     8.80754e+10 
           1075     9.02912e+10 
           1085     8.18694e+10 
           1095     8.85846e+10 
           1105     8.42826e+10 
           1115      8.2214e+10 
           1125      7.2341e+10 
           1135      7.8997e+10 
           1145      7.3264e+10 
           1155      7.3057e+10 
           1165     7.18498e+10 
           1175     5.76299e+10 
           1185     6.66656e+10 
           1195     6.39189e+10 
           1205     5.76396e+10 
           1215     3.22723e+10 
           1225     5.67922e+10 
           1235     6.06235e+10 
           1245     5.88369e+10 
           1255     5.83814e+10 
           1265     5.76362e+10 
           1275     5.69071e+10 
           1285     5.58059e+10 
           1295      5.0942e+10 
           1305     5.13411e+10 
           1315     5.21993e+10 
           1325     5.01526e+10 
           1335     4.86177e+10 
           1345     4.78038e+10 
           1355     4.75502e+10 
           1365     4.53679e+10 
           1375     4.47442e+10 
           1385     4.37568e+10 
           1395     3.76124e+10 
           1405     3.80542e+10 
           1415     4.05889e+10 
           1425     3.86391e+10 
           1435     3.88653e+10 
           1442     3.88712e+10 
           1447     3.82989e+10 
           1455     3.73113e+10 
           1465     3.64543e+10 
           1475     3.56846e+10 
           1485     3.52022e+10 
           1495     3.42525e+10 
           1505     3.28791e+10 
           1512     3.25473e+10 
           1517     3.22905e+10 
           1525       3.164e+10 
           1535     2.93089e+10 
           1545     2.81084e+10 
           1555     2.74037e+10 
           1565     2.78222e+10 
           1575     2.79742e+10 
           1585     2.77018e+10 
           1595      2.7363e+10 
           1605     2.60769e+10 
           1615     2.52508e+10 
           1625      2.5165e+10 
           1635     2.49145e+10 
           1645     2.39693e+10 
           1655     2.45044e+10 
           1665     2.39867e+10 
           1672       2.332e+10 
           1677     2.41858e+10 
           1685     2.35958e+10 
           1695     2.30009e+10 
           1705     2.24001e+10 
           1715     2.17746e+10 
           1725     2.11861e+10 
           1735     2.13756e+10 
           1745     2.09779e+10 
           1755     2.05903e+10 
           1765     2.00964e+10 
           1775     1.97271e+10 
           1785     1.94937e+10 
           1795     1.92596e+10 
           1805      1.9056e+10 
           1815     1.85367e+10 
           1825      1.8264e+10 
           1835     1.80028e+10 
           1845     1.71464e+10 
           1855     1.68766e+10 
           1865     1.68001e+10 
           1875     1.66299e+10 
           1885     1.59079e+10 
           1895     1.54079e+10 
           1905     1.56338e+10 
           1915     1.51022e+10 
           1925     1.46163e+10 
           1935     1.47956e+10 
           1945     1.47823e+10 
           1955     1.40006e+10 
           1967     1.41506e+10 
           1976     1.42275e+10 
           1984      1.3735e+10 
           1995     1.33303e+10 
           2005     1.34094e+10 
           2015     1.33101e+10 
           2025      1.3178e+10 
           2035     1.27859e+10 
           2045       1.259e+10 
           2055      1.1317e+10 
           2065      1.1038e+10 
           2074     1.11439e+10 
           2078       1.093e+10 
           2085     1.10093e+10 
           2095     1.10503e+10 
           2105     1.14123e+10 
           2115     1.14133e+10 
           2125     1.12486e+10 
           2135     1.10897e+10 
           2145     1.08842e+10 
           2155     1.07786e+10 
           2165     1.05482e+10 
           2175     1.04714e+10 
           2185     1.02542e+10 
           2195     1.01915e+10 
           2205     1.00396e+10 
           2215      9.79866e+9 
           2225      9.73209e+9 
           2235      9.57883e+9 
           2245      9.45108e+9 
           2255      9.21408e+9 
           2265      9.17549e+9 
           2275      9.04405e+9 
           2285      8.88065e+9 
           2295      8.53306e+9 
           2305      8.55348e+9 
           2315      8.50505e+9 
           2325      8.39232e+9 
           2335      8.26186e+9 
           2345      8.16278e+9 
           2355      8.04469e+9 
           2365      7.93235e+9 
           2375      7.80959e+9 
           2385      7.61377e+9 
           2395      7.56871e+9 
           2405      7.48766e+9 
           2415      7.37475e+9 
           2425      7.28074e+9 
           2435      7.15816e+9 
           2445      7.07326e+9 
           2455      6.97575e+9 
           2465      6.88826e+9 
           2475      6.78905e+9 
           2485      6.69364e+9 
           2495      6.09361e+9 
           2505      6.48752e+9 
           2513      6.26732e+9 
           2518      6.32624e+9 
           2525       6.3438e+9 
           2535      6.26336e+9 
           2545      6.12932e+9 
           2555      6.07105e+9 
           2565       6.0049e+9 
           2575      5.93336e+9 
           2585      5.85879e+9 
           2595      5.78015e+9 
           2605      5.72975e+9 
           2615      5.65186e+9 
           2625      5.58099e+9 
           2635      5.50724e+9 
           2645      5.43337e+9 
           2655      5.35885e+9 
           2665      5.27267e+9 
           2675      5.19994e+9 
           2685      5.16264e+9 
           2695       5.0553e+9 
           2705      5.02145e+9 
           2715      4.96147e+9 
           2725      4.86567e+9 
           2735       4.8019e+9 
           2745      4.77887e+9 
           2755      4.72082e+9 
           2765      4.62617e+9 
           2775      4.61104e+9 
           2785      4.54913e+9 
           2795      4.43413e+9 
           2805      4.42134e+9 
           2815      4.38908e+9 
           2825      4.29608e+9 
           2835      4.23986e+9 
           2845      4.23235e+9 
           2855      4.17456e+9 
           2865       4.1245e+9 
           2875      4.07575e+9 
           2885      4.03021e+9 
           2895      3.98075e+9 
           2910       3.9045e+9 
           2930      3.81859e+9 
           2950      3.69955e+9 
           2970      3.64254e+9 
           2990      3.55626e+9 
           3010      3.46754e+9 
           3030      3.39142e+9 
           3050       3.3202e+9 
           3070      3.25082e+9 
           3090      3.15624e+9 
           3110      3.10499e+9 
           3130      3.03267e+9 
           3150      2.96676e+9 
           3170      2.90308e+9 
           3190      2.81933e+9 
           3210      2.77393e+9 
           3230      2.71802e+9 
           3250      2.66323e+9 
           3270      2.60606e+9 
           3290      2.54962e+9 
           3310      2.49964e+9 
           3330      2.44491e+9 
           3350      2.39187e+9 
           3370      2.34525e+9 
           3390      2.30042e+9 
           3410      2.25349e+9 
           3430      2.20116e+9 
           3450      2.14919e+9 
           3470      2.11047e+9 
           3490      2.06822e+9 
           3510      2.02974e+9 
           3530      1.99196e+9 
           3550      1.95307e+9 
           3570      1.92575e+9 
           3590      1.87229e+9 
           3610      1.84573e+9 
           3630      1.80187e+9 
           3640      1.79846e+9 
           3650       1.7587e+9 
           3670      1.73315e+9 
           3690      1.70188e+9 
           3710      1.64674e+9 
           3730      1.60324e+9 
           3750      1.57387e+9 
           3770      1.52161e+9 
           3790      1.55336e+9 
           3810      1.59652e+9 
           3830      1.41917e+9 
           3850      1.61849e+9 
           3870       1.6327e+9 
           3890      1.32738e+9 
           3910      1.60294e+9 
           3930      1.58849e+9 
           3950       1.5441e+9 
           3970      1.22853e+9 
           3990      1.48282e+9 
           4010       1.4828e+9 
           4030      1.39698e+9 
           4050      1.44789e+9 
           4070      1.39799e+9 
           4090      1.27769e+9 
           4110      1.13687e+9 
           4130      1.31806e+9 
           4150      1.31016e+9 
           4170      1.30256e+9 
           4190      1.27835e+9 
           4210      1.25963e+9 
           4230      1.23854e+9 
           4250      1.21165e+9 
           4270       1.1854e+9 
           4290      1.16584e+9 
           4310       1.1355e+9 
           4330      1.02484e+9 
           4350      9.41878e+8 
           4370      1.07758e+9 
           4390      1.04464e+9 
           4410      1.05309e+9 
           4430      1.03943e+9 
           4450      1.02313e+9 
           4470      9.60504e+8 
           4490      9.88499e+8 
           4510       9.7601e+8 
           4530      9.60618e+8 
           4550       9.4191e+8 
           4570      9.27785e+8 
           4590      9.11653e+8 
           4610      8.97307e+8 
           4630      8.83105e+8 
           4650      8.57614e+8 
           4670       8.5417e+8 
           4690      8.37498e+8 
           4710      8.15541e+8 
           4730      8.17786e+8 
           4750      8.04268e+8 
           4770      7.93399e+8 
           4790      7.80794e+8 
           4810      7.65863e+8 
           4830      7.47406e+8 
           4850      6.86481e+8 
           4870      6.19953e+8 
           4890      7.11564e+8 
           4910      7.07388e+8 
           4930      6.81293e+8 
           4950      6.88499e+8 
           4970      6.80529e+8 
           4990      6.70303e+8 
           5010      6.51169e+8 
           5030       6.5014e+8 
           5050      6.37452e+8 
           5070      6.31612e+8 
           5090      6.22122e+8 
           5110      6.13077e+8 
           5130      6.04041e+8 
           5150      5.95296e+8 
           5170      5.86597e+8 
           5190      5.78463e+8 
           5210      5.70144e+8 
           5230      5.62142e+8 
           5250      5.54122e+8 
           5270      5.46207e+8 
           5290      5.38571e+8 
           5310      5.30995e+8 
           5330      5.23569e+8 
           5350      5.16227e+8 
           5370      5.09097e+8 
           5390      5.01889e+8 
           5410      4.94118e+8 
           5430      4.88261e+8 
           5450      4.81488e+8 
           5470      4.74939e+8 
           5490      4.68498e+8 
           5510      4.62162e+8 
           5530      4.55893e+8 
           5550      4.49776e+8 
           5570       4.4371e+8 
           5590       4.3772e+8 
           5610      4.31923e+8 
           5630      4.26198e+8 
           5650      4.20459e+8 
           5670      4.14745e+8 
           5690      4.08634e+8 
           5710      4.03662e+8 
           5730      3.98635e+8 
           5750      3.92961e+8 
           5770      3.88442e+8 
           5790      3.83314e+8 
           5810      3.78369e+8 
           5830      3.73339e+8 
           5850      3.68523e+8 
           5870      3.52327e+8 
           5890      3.57801e+8 
           5910      3.54671e+8 
           5930      3.50194e+8 
           5950      3.45768e+8 
           5970      3.41627e+8 
           5990      3.37197e+8 
           6010       3.3309e+8 
           6030      3.28894e+8 
           6050       3.2485e+8 
           6070      3.20852e+8 
           6090      3.16889e+8 
           6110      3.12992e+8 
           6130      3.09148e+8 
           6150      3.05268e+8 
           6170       3.0157e+8 
           6190      2.97953e+8 
           6210      2.94357e+8 
           6230      2.90801e+8 
           6250      2.87274e+8 
           6270      2.83834e+8 
           6290      2.80442e+8 
           6310      2.77068e+8 
           6330      2.73787e+8 
           6350      2.70487e+8 
           6370      2.67333e+8 
           6390      2.64168e+8 
           6410      2.61055e+8 
           6430      2.58012e+8 
           6450      2.54992e+8 
           6470      2.51907e+8 
           6490      2.48988e+8 
           6510      2.45745e+8 
           6530      2.41644e+8 
           6550        2.298e+8 
           6570      2.05676e+8 
           6590      2.31599e+8 
           6610      2.31545e+8 
           6630       2.2967e+8 
           6650      2.27098e+8 
           6670      2.22097e+8 
           6690      2.19643e+8 
           6710      2.19541e+8 
           6730      2.16965e+8 
           6750      2.14681e+8 
           6770      2.12288e+8 
           6790      2.09781e+8 
           6810      2.07576e+8 
           6830      2.05232e+8 
           6850      2.03007e+8 
           6870      2.00765e+8 
           6890      1.98482e+8 
           6910      1.96262e+8 
           6930      1.94245e+8 
           6950      1.92138e+8 
           6970      1.90044e+8 
           6990      1.87987e+8 
           7010      1.85949e+8 
           7030      1.83932e+8 
           7050      1.81958e+8 
           7070      1.77342e+8 
           7090       1.7809e+8 
           7110      1.76172e+8 
           7130      1.74311e+8 
           7150      1.72468e+8 
           7170      1.70627e+8 
           7190      1.68841e+8 
           7210      1.67065e+8 
           7230      1.64888e+8 
           7250        1.635e+8 
           7270      1.61874e+8 
           7290       1.5896e+8 
           7310      1.58507e+8 
           7330      1.56879e+8 
           7350      1.55259e+8 
           7370      1.53662e+8 
           7390      1.52079e+8 
           7410      1.50525e+8 
           7430      1.48979e+8 
           7450      1.47474e+8 
           7470      1.45842e+8 
           7490       1.4448e+8 
           7510      1.42997e+8 
           7530       1.4158e+8 
           7550      1.40164e+8 
           7570      1.38753e+8 
           7590      1.37363e+8 
           7610      1.35939e+8 
           7630      1.34632e+8 
           7650      1.33292e+8 
           7670      1.31976e+8 
           7690      1.30666e+8 
           7710      1.29375e+8 
           7730      1.28088e+8 
           7750      1.26845e+8 
           7770      1.25581e+8 
           7790      1.24372e+8 
           7810      1.23112e+8 
           7830      1.21962e+8 
           7850       1.2087e+8 
           7870      1.19642e+8 
           7890      1.18449e+8 
           7910        1.174e+8 
           7930      1.16263e+8 
           7950      1.15148e+8 
           7970      1.13978e+8 
           7990      1.12942e+8 
           8010      1.11874e+8 
           8030      1.10785e+8 
           8050      1.09712e+8 
           8070      1.08672e+8 
           8090      1.07485e+8 
           8110      1.06394e+8 
           8130      1.05626e+8 
           8150      1.04547e+8 
           8170      1.03663e+8 
           8190      1.02495e+8 
           8210       1.0137e+8 
           8230      1.00555e+8 
           8250      9.97029e+7 
           8270      9.83784e+7 
           8290      9.78495e+7 
           8310      9.70081e+7 
           8330      9.60651e+7 
           8350      9.48652e+7 
           8370      9.42242e+7 
           8390      9.34865e+7 
           8410      9.26322e+7 
           8430      9.17691e+7 
           8450      9.04541e+7 
           8470      9.01325e+7 
           8490      8.91647e+7 
           8510      8.84756e+7 
           8530       8.7502e+7 
           8550      8.67118e+7 
           8570      8.62357e+7 
           8590      8.42519e+7 
