# Kurucz ODFNEW /NOVER (2003)
# teff = 22000 K (value for the effective temperature for the model. Temperatures are given in K)
# logg = 3.5 log(cm/s2) (value for Log(G) for the model.)
# meta = -0.5  (value for the Metallicity for the model.)
# lh = 1.25  (l/Hp where l is the  mixing length of the convective element and Hp is the pressure scale height)
# vtur = 2 km/s (Microturbulence velocity)
# alpha = 0.4  (Alpha)
#
# column 1: WAVELENGTH (ANGSTROM), Wavelength in Angstrom
# column 2: FLUX (ERG/CM2/S/A), Flux in erg/cm2/s/A
          147.2     1.02372e-17 
            151     5.40253e-17 
          155.2     3.11915e-16 
          158.8     1.31035e-15 
            162      4.4704e-15 
            166      1.9505e-14 
          170.3      8.8438e-14 
          173.4      2.5228e-13 
          176.8      7.6518e-13 
          180.2     2.23193e-12 
          181.7     3.53624e-12 
          186.1     1.31174e-11 
            191     5.28109e-11 
          193.9     1.16655e-10 
          198.4     3.81931e-10 
          201.8     9.04671e-10 
            205      1.98607e-9 
          210.5      7.26775e-9 
          216.2      2.60449e-8 
          219.8      5.63877e-8 
            223      1.09748e-7 
          226.8      2.36204e-7 
            230      8.79296e-6 
            234      2.15101e-5 
            240      5.73956e-5 
          246.5     0.000157388 
          252.4     0.000380734 
          256.8     0.000683007 
            260      0.00111497 
            264      0.00189289 
          268.5      0.00338403 
          273.5      0.00627125 
          278.5       0.0114735 
            284       0.0222326 
            290       0.0430327 
            296       0.0811669 
            301         0.13474 
            308         0.26532 
            318        0.697436 
            328         1.62571 
            338         3.75793 
            348         8.08433 
            357         18.8727 
            366         35.8517 
            375          62.511 
            385         115.097 
            395         205.707 
            405         352.326 
            414         565.723 
            422         826.785 
            430         1213.87 
            441         1999.28 
            451         3085.13 
            460         4427.99 
            470         6580.91 
            480         9534.49 
            490         13713.4 
            500         19403.1 
            506          164605 
            512          818146 
            520          998152 
            530      1.34611e+6 
            540      1.48521e+6 
            550      2.18603e+6 
            560        2.615e+6 
            570      3.28853e+6 
            580      3.26458e+6 
            590      4.43244e+6 
            600      5.34872e+6 
            610      6.52012e+6 
            620      7.40836e+6 
            630      8.52487e+6 
            640      9.05153e+6 
            650      8.83651e+6 
            658      1.19345e+7 
            665      1.32086e+7 
            675      1.42068e+7 
            685      1.55918e+7 
            695      1.89969e+7 
            705      2.04129e+7 
            716      2.34464e+7 
            726      2.52229e+7 
            735      2.73573e+7 
            745      3.12325e+7 
            755       3.4343e+7 
            765      3.76565e+7 
            775       4.1505e+7 
            785      4.53255e+7 
            795      4.82832e+7 
            805      5.19308e+7 
            815      5.51461e+7 
            825      6.05313e+7 
            835      5.92739e+7 
            845      6.71019e+7 
            855      7.13391e+7 
            865      7.69143e+7 
            875      8.29604e+7 
            885      9.01149e+7 
            895      9.58208e+7 
            905      9.79237e+7 
            915      1.65257e+8 
            925      1.54056e+9 
            935       4.4459e+9 
            945      9.56183e+9 
            955     1.21756e+10 
            965     1.43462e+10 
            975      2.91429e+9 
            985     1.33665e+10 
            995     1.27731e+10 
           1005     1.45955e+10 
           1015     1.43594e+10 
           1025      6.69821e+9 
           1035     1.09707e+10 
           1045     1.69231e+10 
           1055     1.56987e+10 
           1065     1.29395e+10 
           1075     1.50255e+10 
           1085     1.35305e+10 
           1095     1.52737e+10 
           1105     1.32584e+10 
           1115     1.25495e+10 
           1125     1.10448e+10 
           1135     1.42226e+10 
           1145     1.27209e+10 
           1155     1.33844e+10 
           1165     1.35356e+10 
           1175      9.40497e+9 
           1185     1.31598e+10 
           1195     1.11292e+10 
           1205      5.99436e+9 
           1215      4.96385e+9 
           1225     1.04632e+10 
           1235     1.22618e+10 
           1245     1.22977e+10 
           1255     1.19872e+10 
           1265     1.17794e+10 
           1275     1.22053e+10 
           1285     1.19268e+10 
           1295      7.73733e+9 
           1305      8.21382e+9 
           1315     1.14688e+10 
           1325     1.08249e+10 
           1335      1.0244e+10 
           1345     1.05537e+10 
           1355     1.05208e+10 
           1365      9.69875e+9 
           1375      9.52452e+9 
           1385      9.42833e+9 
           1395      7.09582e+9 
           1405      7.75625e+9 
           1415      8.59456e+9 
           1425      8.56137e+9 
           1435      8.74396e+9 
           1442       8.9631e+9 
           1447       8.7692e+9 
           1455      8.55292e+9 
           1465      8.05899e+9 
           1475      8.05762e+9 
           1485      7.88813e+9 
           1495      7.76239e+9 
           1505      7.17125e+9 
           1512      6.52825e+9 
           1517      6.75065e+9 
           1525      6.91927e+9 
           1535       6.1088e+9 
           1545      6.16728e+9 
           1555      5.87788e+9 
           1565      6.19493e+9 
           1575       6.4889e+9 
           1585      6.39393e+9 
           1595      6.41811e+9 
           1605      6.35344e+9 
           1615      6.24886e+9 
           1625      6.13339e+9 
           1635      6.37835e+9 
           1645      6.30981e+9 
           1655      6.16584e+9 
           1665      6.27736e+9 
           1672      6.06765e+9 
           1677      6.35864e+9 
           1685      6.23923e+9 
           1695      5.94396e+9 
           1705      5.72074e+9 
           1715      5.43994e+9 
           1725      5.39047e+9 
           1735      5.53526e+9 
           1745      5.41311e+9 
           1755      5.45238e+9 
           1765      5.27637e+9 
           1775      5.07503e+9 
           1785      5.08679e+9 
           1795      5.23804e+9 
           1805      5.24006e+9 
           1815      4.75911e+9 
           1825      4.93762e+9 
           1835      4.77051e+9 
           1845      4.38957e+9 
           1855       4.3542e+9 
           1865      4.41919e+9 
           1875      4.60375e+9 
           1885      4.15468e+9 
           1895      3.86882e+9 
           1905      4.17088e+9 
           1915      3.95321e+9 
           1925      3.79014e+9 
           1935      3.97122e+9 
           1945      4.01603e+9 
           1955      3.68487e+9 
           1967      3.95951e+9 
           1976      4.11862e+9 
           1984      3.82706e+9 
           1995      3.74635e+9 
           2005      3.84946e+9 
           2015      3.80225e+9 
           2025      3.91417e+9 
           2035      3.59998e+9 
           2045      3.64539e+9 
           2055      3.53355e+9 
           2065      3.56248e+9 
           2074      3.70286e+9 
           2078       3.4083e+9 
           2085      3.54265e+9 
           2095      3.35613e+9 
           2105      3.44045e+9 
           2115      3.43806e+9 
           2125       3.4812e+9 
           2135      3.41288e+9 
           2145      3.24128e+9 
           2155       3.3637e+9 
           2165      3.34065e+9 
           2175      3.29017e+9 
           2185      3.20631e+9 
           2195       3.2283e+9 
           2205      3.19629e+9 
           2215      3.14769e+9 
           2225      3.06832e+9 
           2235      3.04002e+9 
           2245      3.05374e+9 
           2255      2.96292e+9 
           2265      2.98947e+9 
           2275      2.94854e+9 
           2285      2.94263e+9 
           2295      2.78894e+9 
           2305      2.85109e+9 
           2315      2.77709e+9 
           2325      2.74573e+9 
           2335      2.65317e+9 
           2345      2.65374e+9 
           2355      2.66155e+9 
           2365      2.61875e+9 
           2375      2.58225e+9 
           2385      2.55514e+9 
           2395      2.54147e+9 
           2405      2.49387e+9 
           2415      2.46169e+9 
           2425      2.46969e+9 
           2435      2.40452e+9 
           2445      2.40184e+9 
           2455      2.39701e+9 
           2465       2.3536e+9 
           2475      2.32472e+9 
           2485      2.29678e+9 
           2495      2.12009e+9 
           2505      2.23984e+9 
           2513      2.15479e+9 
           2518       2.2094e+9 
           2525      2.17938e+9 
           2535      2.14973e+9 
           2545      2.07884e+9 
           2555      2.11557e+9 
           2565      2.07775e+9 
           2575       2.0888e+9 
           2585      2.06456e+9 
           2595      2.04599e+9 
           2605      2.03398e+9 
           2615      2.00936e+9 
           2625      1.99058e+9 
           2635      1.96818e+9 
           2645      1.96242e+9 
           2655       1.9458e+9 
           2665       1.8969e+9 
           2675      1.89522e+9 
           2685      1.88662e+9 
           2695      1.83618e+9 
           2705      1.82737e+9 
           2715      1.81306e+9 
           2725      1.78507e+9 
           2735      1.78231e+9 
           2745      1.73115e+9 
           2755      1.72605e+9 
           2765      1.70965e+9 
           2775      1.71608e+9 
           2785      1.69047e+9 
           2795      1.62935e+9 
           2805      1.64754e+9 
           2815      1.64532e+9 
           2825      1.61816e+9 
           2835      1.57334e+9 
           2845      1.58823e+9 
           2855      1.56949e+9 
           2865      1.56282e+9 
           2875      1.54518e+9 
           2885      1.53173e+9 
           2895      1.51267e+9 
           2910      1.48612e+9 
           2930      1.45577e+9 
           2950      1.41973e+9 
           2970      1.40226e+9 
           2990      1.37045e+9 
           3010      1.33816e+9 
           3030      1.32314e+9 
           3050      1.29852e+9 
           3070      1.27502e+9 
           3090      1.23659e+9 
           3110      1.22366e+9 
           3130      1.19996e+9 
           3150      1.17808e+9 
           3170      1.15363e+9 
           3190       1.1247e+9 
           3210      1.11274e+9 
           3230      1.09033e+9 
           3250      1.07207e+9 
           3270      1.05241e+9 
           3290      1.03182e+9 
           3310      1.01519e+9 
           3330      9.96071e+8 
           3350      9.76928e+8 
           3370      9.60292e+8 
           3390      9.44208e+8 
           3410      9.27722e+8 
           3430       9.0656e+8 
           3450      8.87375e+8 
           3470      8.73891e+8 
           3490      8.58522e+8 
           3510      8.47971e+8 
           3530      8.35154e+8 
           3550      8.20838e+8 
           3570      8.10189e+8 
           3590      7.90079e+8 
           3610      7.77042e+8 
           3630      7.64986e+8 
           3640      7.63746e+8 
           3650      7.48199e+8 
           3670      7.39535e+8 
           3690      7.18951e+8 
           3710      7.01669e+8 
           3730      6.87909e+8 
           3750      7.50914e+8 
           3770       7.5365e+8 
           3790      7.82776e+8 
           3810      8.11509e+8 
           3830       7.1756e+8 
           3850       8.2193e+8 
           3870      8.14211e+8 
           3890      6.84591e+8 
           3910      8.05498e+8 
           3930      7.78758e+8 
           3950      7.76832e+8 
           3970      6.35886e+8 
           3990      7.48272e+8 
           4010       7.4099e+8 
           4030      7.05076e+8 
           4050      7.21166e+8 
           4070      6.97198e+8 
           4090      6.60083e+8 
           4110      5.88218e+8 
           4130      6.59198e+8 
           4150      6.54718e+8 
           4170       6.4997e+8 
           4190      6.42342e+8 
           4210      6.34957e+8 
           4230      6.23008e+8 
           4250      6.09963e+8 
           4270      5.93848e+8 
           4290      5.88836e+8 
           4310      5.76103e+8 
           4330      5.36775e+8 
           4350      4.91117e+8 
           4370      5.48832e+8 
           4390      5.35926e+8 
           4410      5.36112e+8 
           4430       5.2823e+8 
           4450      5.21914e+8 
           4470      4.97871e+8 
           4490      5.04023e+8 
           4510      5.00322e+8 
           4530      4.91654e+8 
           4550      4.84066e+8 
           4570      4.76393e+8 
           4590      4.69336e+8 
           4610      4.61373e+8 
           4630        4.549e+8 
           4650      4.43869e+8 
           4670      4.41146e+8 
           4690      4.36792e+8 
           4710       4.2156e+8 
           4730      4.21421e+8 
           4750      4.14841e+8 
           4770      4.12826e+8 
           4790      4.06283e+8 
           4810      3.98596e+8 
           4830      3.91636e+8 
           4850      3.70667e+8 
           4870       3.3343e+8 
           4890      3.75846e+8 
           4910      3.71915e+8 
           4930      3.59402e+8 
           4950      3.61131e+8 
           4970      3.57544e+8 
           4990      3.52157e+8 
           5010      3.40301e+8 
           5030      3.42008e+8 
           5050      3.33513e+8 
           5070        3.331e+8 
           5090      3.28263e+8 
           5110      3.23505e+8 
           5130      3.18168e+8 
           5150      3.14068e+8 
           5170      3.10797e+8 
           5190      3.06658e+8 
           5210      3.01019e+8 
           5230      2.98569e+8 
           5250      2.94631e+8 
           5270       2.9046e+8 
           5290      2.86935e+8 
           5310         2.83e+8 
           5330      2.79077e+8 
           5350      2.74967e+8 
           5370      2.72139e+8 
           5390      2.68451e+8 
           5410      2.65015e+8 
           5430      2.60984e+8 
           5450      2.57778e+8 
           5470      2.54436e+8 
           5490      2.51548e+8 
           5510      2.48373e+8 
           5530      2.45052e+8 
           5550      2.42139e+8 
           5570      2.38934e+8 
           5590      2.36094e+8 
           5610       2.3281e+8 
           5630      2.30232e+8 
           5650      2.26162e+8 
           5670      2.23198e+8 
           5690      2.20538e+8 
           5710      2.18614e+8 
           5730       2.1607e+8 
           5750      2.13019e+8 
           5770      2.10934e+8 
           5790      2.08333e+8 
           5810      2.05741e+8 
           5830       2.0309e+8 
           5850      2.00746e+8 
           5870      1.93127e+8 
           5890      1.94945e+8 
           5910       1.9338e+8 
           5930      1.91006e+8 
           5950      1.88426e+8 
           5970      1.86774e+8 
           5990      1.84206e+8 
           6010      1.82346e+8 
           6030      1.80092e+8 
           6050      1.78039e+8 
           6070      1.75998e+8 
           6090      1.73889e+8 
           6110      1.71915e+8 
           6130      1.69943e+8 
           6150      1.67505e+8 
           6170      1.65877e+8 
           6190      1.64089e+8 
           6210      1.62213e+8 
           6230      1.60367e+8 
           6250      1.58359e+8 
           6270      1.56651e+8 
           6290      1.54894e+8 
           6310      1.53015e+8 
           6330      1.51439e+8 
           6350      1.49178e+8 
           6370      1.47751e+8 
           6390      1.46311e+8 
           6410      1.44666e+8 
           6430      1.43175e+8 
           6450      1.41537e+8 
           6470      1.39781e+8 
           6490      1.38313e+8 
           6510      1.36851e+8 
           6530      1.34989e+8 
           6550      1.30425e+8 
           6570      1.16436e+8 
           6590      1.29515e+8 
           6610      1.29456e+8 
           6630      1.28171e+8 
           6650      1.26805e+8 
           6670      1.24419e+8 
           6690       1.2313e+8 
           6710      1.22823e+8 
           6730      1.21412e+8 
           6750      1.20247e+8 
           6770      1.18971e+8 
           6790      1.17282e+8 
           6810        1.164e+8 
           6830      1.15137e+8 
           6850      1.14008e+8 
           6870      1.12811e+8 
           6890      1.11593e+8 
           6910      1.10404e+8 
           6930      1.09265e+8 
           6950      1.08185e+8 
           6970      1.07069e+8 
           6990      1.05933e+8 
           7010      1.04846e+8 
           7030       1.0377e+8 
           7050      1.02705e+8 
           7070      1.00074e+8 
           7090      1.00635e+8 
           7110      9.94435e+7 
           7130      9.84788e+7 
           7150      9.75749e+7 
           7170      9.65917e+7 
           7190      9.56469e+7 
           7210      9.46895e+7 
           7230      9.27898e+7 
           7250      9.27158e+7 
           7270      9.18713e+7 
           7290      9.02337e+7 
           7310      9.00367e+7 
           7330      8.91604e+7 
           7350      8.82923e+7 
           7370      8.74254e+7 
           7390      8.65665e+7 
           7410      8.57156e+7 
           7430      8.48385e+7 
           7450       8.4051e+7 
           7470      8.31019e+7 
           7490      8.24103e+7 
           7510      8.15978e+7 
           7530      8.08261e+7 
           7550      8.00746e+7 
           7570      7.93102e+7 
           7590      7.85331e+7 
           7610      7.77696e+7 
           7630      7.70518e+7 
           7650      7.63211e+7 
           7670       7.5597e+7 
           7690      7.48794e+7 
           7710      7.41682e+7 
           7730      7.34634e+7 
           7750      7.27774e+7 
           7770      7.17418e+7 
           7790      7.14297e+7 
           7810      7.07061e+7 
           7830      7.01057e+7 
           7850      6.94311e+7 
           7870      6.87928e+7 
           7890      6.80208e+7 
           7910      6.75749e+7 
           7930      6.68451e+7 
           7950      6.61217e+7 
           7970      6.55412e+7 
           7990      6.48653e+7 
           8010      6.43657e+7 
           8030      6.37884e+7 
           8050      6.32509e+7 
           8070      6.27353e+7 
           8090      6.20341e+7 
           8110      6.14707e+7 
           8130      6.10775e+7 
           8150      6.04208e+7 
           8170      6.00181e+7 
           8190       5.9349e+7 
           8210      5.86075e+7 
           8230      5.82006e+7 
           8250      5.78081e+7 
           8270      5.69064e+7 
           8290      5.67089e+7 
           8310      5.62235e+7 
           8330      5.57366e+7 
           8350      5.49675e+7 
           8370      5.45975e+7 
           8390      5.42198e+7 
           8410      5.37172e+7 
           8430      5.31658e+7 
           8450      5.22807e+7 
           8470      5.20152e+7 
           8490      5.18457e+7 
           8510      5.08542e+7 
           8530      5.11799e+7 
           8550      4.91984e+7 
           8570      5.11049e+7 
