# Kurucz ODFNEW /NOVER (2003)
# teff = 27000 K (value for the effective temperature for the model. Temperatures are given in K)
# logg = 5 log(cm/s2) (value for Log(G) for the model.)
# meta = -0.5  (value for the Metallicity for the model.)
# lh = 1.25  (l/Hp where l is the  mixing length of the convective element and Hp is the pressure scale height)
# vtur = 2 km/s (Microturbulence velocity)
# alpha = 0.4  (Alpha)
#
# column 1: WAVELENGTH (ANGSTROM), Wavelength in Angstrom
# column 2: FLUX (ERG/CM2/S/A), Flux in erg/cm2/s/A
          147.2      8.5987e-12 
            151     3.15993e-11 
          155.2     1.24275e-10 
          158.8      3.8116e-10 
            162     9.94219e-10 
            166      3.14511e-9 
          170.3      1.02493e-8 
          173.4      2.32672e-8 
          176.8      5.54086e-8 
          180.2      1.28059e-7 
          181.7      1.83601e-7 
          186.1      5.13079e-7 
            191      1.53145e-6 
          193.9      2.85514e-6 
          198.4      7.25923e-6 
          201.8      1.43186e-5 
            205      2.66189e-5 
          210.5      7.41671e-5 
          216.2     0.000203555 
          219.8     0.000375302 
            223     0.000636264 
          226.8      0.00116963 
            230       0.0772687 
            234        0.173235 
            240        0.373054 
          246.5        0.821322 
          252.4         1.64469 
          256.8         2.55299 
            260         3.82776 
            264         5.67667 
          268.5         9.02001 
          273.5         14.6094 
          278.5         23.3496 
            284         39.9313 
            290         66.4361 
            296         108.716 
            301         160.433 
            308         270.709 
            318         585.487 
            328         1114.53 
            338         2154.05 
            348            3886 
            357         8669.43 
            366         14725.7 
            375           22091 
            385         35417.3 
            395         56186.5 
            405         83566.1 
            414          120205 
            422          157284 
            430          210777 
            441          304609 
            451          421827 
            460          546097 
            470          734170 
            480          963211 
            490      1.26266e+6 
            500      1.63425e+6 
            506      8.00835e+6 
            512      3.65313e+7 
            520      4.12522e+7 
            530       5.0092e+7 
            540      5.13597e+7 
            550      6.81849e+7 
            560      7.63213e+7 
            570      8.86166e+7 
            580      8.64137e+7 
            590      1.07105e+8 
            600       1.1688e+8 
            610       1.3268e+8 
            620        1.429e+8 
            630      1.54707e+8 
            640        1.553e+8 
            650      1.67874e+8 
            658      1.86475e+8 
            665      2.00971e+8 
            675      2.08926e+8 
            685      2.17579e+8 
            695      2.58261e+8 
            705      2.65471e+8 
            716      2.94509e+8 
            726      3.06493e+8 
            735      3.22318e+8 
            745      3.52827e+8 
            755      3.73435e+8 
            765      3.95594e+8 
            775      4.21109e+8 
            785      4.47129e+8 
            795      4.61869e+8 
            805      4.83021e+8 
            815      4.99769e+8 
            825      5.32588e+8 
            835      5.12208e+8 
            845       5.6328e+8 
            855       5.8306e+8 
            865      6.13612e+8 
            875      6.43706e+8 
            885      6.79361e+8 
            895      7.05887e+8 
            905      7.12406e+8 
            915      8.29707e+8 
            925      3.26406e+9 
            935      7.98556e+9 
            945     2.18092e+10 
            955     3.25722e+10 
            965     4.45736e+10 
            975     1.11815e+10 
            985     4.94721e+10 
            995     4.53053e+10 
           1005     4.93429e+10 
           1015     4.47844e+10 
           1025     1.35718e+10 
           1035     3.65854e+10 
           1045     5.38207e+10 
           1055      5.1211e+10 
           1065     4.20664e+10 
           1075     4.69076e+10 
           1085     4.25364e+10 
           1095     4.68561e+10 
           1105     4.23033e+10 
           1115      4.0963e+10 
           1125     3.44247e+10 
           1135     4.14535e+10 
           1145     3.63331e+10 
           1155     3.80535e+10 
           1165     3.78915e+10 
           1175     2.72042e+10 
           1185     3.55877e+10 
           1195     3.19212e+10 
           1205     2.24417e+10 
           1215      1.0239e+10 
           1225     2.52705e+10 
           1235     3.14899e+10 
           1245     3.13944e+10 
           1255        3.07e+10 
           1265     3.05791e+10 
           1275     3.09448e+10 
           1285     3.02369e+10 
           1295     2.32414e+10 
           1305     2.39396e+10 
           1315     2.85484e+10 
           1325     2.68509e+10 
           1335     2.60359e+10 
           1345     2.55065e+10 
           1355     2.57387e+10 
           1365     2.37616e+10 
           1375     2.32499e+10 
           1385     2.30234e+10 
           1395     1.78305e+10 
           1405     1.89605e+10 
           1415     2.10019e+10 
           1425     2.02982e+10 
           1435     2.05102e+10 
           1442     2.09547e+10 
           1447     2.05313e+10 
           1455     1.99876e+10 
           1465     1.90206e+10 
           1475      1.8838e+10 
           1485     1.83443e+10 
           1495      1.8012e+10 
           1505     1.65451e+10 
           1512     1.55796e+10 
           1517      1.5883e+10 
           1525      1.5993e+10 
           1535     1.42522e+10 
           1545     1.41405e+10 
           1555     1.35095e+10 
           1565      1.4108e+10 
           1575     1.45294e+10 
           1585     1.42525e+10 
           1595     1.42455e+10 
           1605     1.39054e+10 
           1615     1.35111e+10 
           1625     1.34312e+10 
           1635      1.3684e+10 
           1645     1.33841e+10 
           1655     1.32578e+10 
           1665     1.32339e+10 
           1672     1.28119e+10 
           1677      1.3397e+10 
           1685     1.30514e+10 
           1695     1.25571e+10 
           1705     1.21018e+10 
           1715     1.16404e+10 
           1725     1.13602e+10 
           1735     1.15163e+10 
           1745     1.13147e+10 
           1755      1.1279e+10 
           1765     1.09017e+10 
           1775     1.05277e+10 
           1785     1.04932e+10 
           1795     1.06206e+10 
           1805     1.05598e+10 
           1815       9.8939e+9 
           1825     1.00204e+10 
           1835      9.72584e+9 
           1845       8.9601e+9 
           1855      8.96141e+9 
           1865      9.04157e+9 
           1875      9.15842e+9 
           1885        8.384e+9 
           1895      7.86678e+9 
           1905      8.30605e+9 
           1915      7.93518e+9 
           1925      7.60865e+9 
           1935       7.8882e+9 
           1945      8.00079e+9 
           1955      7.35909e+9 
           1967      7.71114e+9 
           1976       7.9967e+9 
           1984      7.45035e+9 
           1995      7.29487e+9 
           2005      7.38601e+9 
           2015      7.34442e+9 
           2025      7.44515e+9 
           2035      6.97207e+9 
           2045      6.95855e+9 
           2055      6.68635e+9 
           2065      6.71999e+9 
           2074      6.84703e+9 
           2078      6.50173e+9 
           2085      6.58839e+9 
           2095      6.31698e+9 
           2105      6.48165e+9 
           2115      6.44181e+9 
           2125      6.48252e+9 
           2135      6.33565e+9 
           2145      6.10829e+9 
           2155      6.20099e+9 
           2165      6.13187e+9 
           2175      6.02305e+9 
           2185      5.92228e+9 
           2195       5.8969e+9 
           2205      5.81967e+9 
           2215      5.74137e+9 
           2225      5.61324e+9 
           2235        5.523e+9 
           2245      5.50897e+9 
           2255      5.38287e+9 
           2265       5.3657e+9 
           2275      5.28879e+9 
           2285      5.23228e+9 
           2295      4.98057e+9 
           2305      5.07047e+9 
           2315      4.96835e+9 
           2325      4.90904e+9 
           2335      4.79156e+9 
           2345       4.7714e+9 
           2355      4.73518e+9 
           2365      4.67091e+9 
           2375      4.58838e+9 
           2385        4.537e+9 
           2395      4.47785e+9 
           2405      4.41372e+9 
           2415      4.34637e+9 
           2425      4.32661e+9 
           2435      4.22964e+9 
           2445      4.19606e+9 
           2455      4.16026e+9 
           2465      4.10648e+9 
           2475      4.04821e+9 
           2485      3.99148e+9 
           2495      3.68794e+9 
           2505      3.87324e+9 
           2513      3.73969e+9 
           2518      3.80418e+9 
           2525      3.78347e+9 
           2535      3.74055e+9 
           2545       3.6246e+9 
           2555      3.63409e+9 
           2565      3.58227e+9 
           2575      3.56927e+9 
           2585      3.52953e+9 
           2595      3.48773e+9 
           2605      3.45839e+9 
           2615      3.41794e+9 
           2625      3.38331e+9 
           2635      3.34265e+9 
           2645      3.30402e+9 
           2655      3.26491e+9 
           2665      3.19202e+9 
           2675       3.1673e+9 
           2685      3.15368e+9 
           2695       3.0659e+9 
           2705      3.05234e+9 
           2715      3.02473e+9 
           2725       2.9698e+9 
           2735       2.9596e+9 
           2745      2.90058e+9 
           2755      2.88046e+9 
           2765      2.83054e+9 
           2775      2.83772e+9 
           2785      2.79629e+9 
           2795      2.69482e+9 
           2805      2.71313e+9 
           2815      2.70929e+9 
           2825      2.64771e+9 
           2835      2.58524e+9 
           2845      2.61485e+9 
           2855       2.5784e+9 
           2865      2.55557e+9 
           2875      2.52643e+9 
           2885       2.4998e+9 
           2895      2.46916e+9 
           2910      2.42028e+9 
           2930      2.36989e+9 
           2950      2.29877e+9 
           2970      2.27189e+9 
           2990      2.21657e+9 
           3010      2.16039e+9 
           3030      2.12634e+9 
           3050      2.08454e+9 
           3070      2.04387e+9 
           3090      1.97741e+9 
           3110      1.95533e+9 
           3130      1.91147e+9 
           3150      1.87493e+9 
           3170      1.83425e+9 
           3190      1.78041e+9 
           3210      1.76334e+9 
           3230      1.72384e+9 
           3250      1.69206e+9 
           3270      1.65867e+9 
           3290      1.62333e+9 
           3310      1.59455e+9 
           3330      1.56214e+9 
           3350      1.52991e+9 
           3370      1.50136e+9 
           3390      1.47432e+9 
           3410      1.44616e+9 
           3430      1.41234e+9 
           3450      1.37996e+9 
           3470      1.35669e+9 
           3490      1.33054e+9 
           3510      1.30815e+9 
           3530      1.28602e+9 
           3550      1.26275e+9 
           3570      1.24799e+9 
           3590      1.21127e+9 
           3610      1.19548e+9 
           3630      1.16997e+9 
           3640        1.171e+9 
           3650      1.14751e+9 
           3670      1.13355e+9 
           3690      1.11441e+9 
           3710      1.07599e+9 
           3730      1.03987e+9 
           3750      1.02848e+9 
           3770      9.98805e+8 
           3790      1.03768e+9 
           3810      1.07877e+9 
           3830      9.41175e+8 
           3850      1.11058e+9 
           3870      1.13238e+9 
           3890      8.81195e+8 
           3910      1.12156e+9 
           3930      1.10941e+9 
           3950       1.0837e+9 
           3970      8.19077e+8 
           3990      1.03593e+9 
           4010      1.04926e+9 
           4030       9.7413e+8 
           4050      1.02659e+9 
           4070      9.83914e+8 
           4090      8.82881e+8 
           4110      7.72166e+8 
           4130      9.26225e+8 
           4150       9.2784e+8 
           4170      9.25353e+8 
           4190      9.12763e+8 
           4210      9.02581e+8 
           4230      8.85076e+8 
           4250      8.63375e+8 
           4270      8.39438e+8 
           4290      8.29807e+8 
           4310        8.045e+8 
           4330      7.09519e+8 
           4350      6.45492e+8 
           4370      7.62695e+8 
           4390      7.40416e+8 
           4410      7.52661e+8 
           4430      7.44152e+8 
           4450      7.32513e+8 
           4470      6.79402e+8 
           4490      7.06439e+8 
           4510      7.02299e+8 
           4530      6.90677e+8 
           4550      6.78777e+8 
           4570      6.67347e+8 
           4590      6.56609e+8 
           4610      6.45092e+8 
           4630      6.35735e+8 
           4650      6.18535e+8 
           4670      6.15477e+8 
           4690       6.0868e+8 
           4710      5.84553e+8 
           4730      5.88359e+8 
           4750      5.78456e+8 
           4770      5.74278e+8 
           4790      5.64221e+8 
           4810      5.51886e+8 
           4830      5.36925e+8 
           4850      4.83818e+8 
           4870      4.30802e+8 
           4890      5.11762e+8 
           4910      5.11274e+8 
           4930      4.89634e+8 
           4950      4.98754e+8 
           4970      4.94245e+8 
           4990       4.8669e+8 
           5010      4.69019e+8 
           5030      4.72205e+8 
           5050      4.60495e+8 
           5070      4.59405e+8 
           5090      4.52327e+8 
           5110      4.45648e+8 
           5130      4.38515e+8 
           5150      4.32403e+8 
           5170      4.27147e+8 
           5190      4.21385e+8 
           5210      4.14368e+8 
           5230      4.09841e+8 
           5250      4.04209e+8 
           5270       3.9838e+8 
           5290      3.93112e+8 
           5310      3.87644e+8 
           5330      3.82154e+8 
           5350      3.76539e+8 
           5370      3.72093e+8 
           5390       3.6686e+8 
           5410      3.61951e+8 
           5430      3.56735e+8 
           5450       3.5194e+8 
           5470       3.4723e+8 
           5490      3.42893e+8 
           5510      3.38447e+8 
           5530      3.33811e+8 
           5550      3.29575e+8 
           5570      3.25148e+8 
           5590      3.21029e+8 
           5610      3.16637e+8 
           5630      3.12728e+8 
           5650      3.07815e+8 
           5670      3.03445e+8 
           5690      2.99384e+8 
           5710      2.96446e+8 
           5730      2.92889e+8 
           5750      2.88531e+8 
           5770      2.85606e+8 
           5790      2.81962e+8 
           5810      2.78361e+8 
           5830      2.74703e+8 
           5850      2.71342e+8 
           5870      2.57776e+8 
           5890      2.62793e+8 
           5910      2.61061e+8 
           5930      2.57803e+8 
           5950      2.54391e+8 
           5970      2.51834e+8 
           5990      2.48391e+8 
           6010      2.45645e+8 
           6030      2.42527e+8 
           6050       2.3966e+8 
           6070      2.36815e+8 
           6090      2.33911e+8 
           6110      2.31131e+8 
           6130      2.28382e+8 
           6150      2.25156e+8 
           6170      2.22759e+8 
           6190       2.2026e+8 
           6210      2.17671e+8 
           6230      2.15101e+8 
           6250      2.12386e+8 
           6270      2.09989e+8 
           6290       2.0757e+8 
           6310      2.05026e+8 
           6330      2.02746e+8 
           6350      1.99873e+8 
           6370      1.97858e+8 
           6390      1.95708e+8 
           6410      1.93425e+8 
           6430      1.91313e+8 
           6450      1.89078e+8 
           6470      1.86606e+8 
           6490      1.84518e+8 
           6510      1.82026e+8 
           6530      1.78686e+8 
           6550      1.67911e+8 
           6570      1.47777e+8 
           6590      1.70381e+8 
           6610      1.71646e+8 
           6630      1.70372e+8 
           6650      1.68743e+8 
           6670      1.64668e+8 
           6690      1.62944e+8 
           6710      1.63329e+8 
           6730      1.61379e+8 
           6750      1.59804e+8 
           6770      1.58047e+8 
           6790      1.55851e+8 
           6810      1.54547e+8 
           6830      1.52819e+8 
           6850      1.51262e+8 
           6870      1.49624e+8 
           6890      1.47947e+8 
           6910      1.46303e+8 
           6930      1.44832e+8 
           6950      1.43321e+8 
           6970      1.41794e+8 
           6990      1.40275e+8 
           7010      1.38778e+8 
           7030      1.37311e+8 
           7050      1.35866e+8 
           7070      1.32001e+8 
           7090      1.33041e+8 
           7110      1.31623e+8 
           7130      1.30255e+8 
           7150      1.28886e+8 
           7170       1.2756e+8 
           7190      1.26261e+8 
           7210       1.2496e+8 
           7230      1.22576e+8 
           7250      1.22302e+8 
           7270      1.21138e+8 
           7290      1.18802e+8 
           7310       1.1866e+8 
           7330      1.17467e+8 
           7350      1.16284e+8 
           7370      1.15106e+8 
           7390      1.13946e+8 
           7410      1.12796e+8 
           7430      1.11623e+8 
           7450       1.1055e+8 
           7470       1.0923e+8 
           7490      1.08331e+8 
           7510      1.07247e+8 
           7530      1.06193e+8 
           7550      1.05169e+8 
           7570      1.04134e+8 
           7590      1.03102e+8 
           7610       1.0204e+8 
           7630      1.01092e+8 
           7650      1.00107e+8 
           7670      9.91375e+7 
           7690      9.81702e+7 
           7710      9.72179e+7 
           7730      9.62615e+7 
           7750      9.53514e+7 
           7770      9.40998e+7 
           7790      9.35241e+7 
           7810      9.25825e+7 
           7830      9.17476e+7 
           7850      9.08772e+7 
           7870      8.99719e+7 
           7890      8.89899e+7 
           7910      8.83839e+7 
           7930      8.75312e+7 
           7950      8.66205e+7 
           7970      8.57593e+7 
           7990       8.4882e+7 
           8010      8.41298e+7 
           8030      8.33315e+7 
           8050      8.25459e+7 
           8070      8.17902e+7 
           8090      8.09603e+7 
           8110      8.00804e+7 
           8130      7.95843e+7 
           8150      7.88085e+7 
           8170      7.81578e+7 
           8190      7.72711e+7 
           8210      7.64368e+7 
           8230      7.58266e+7 
           8250      7.52767e+7 
           8270      7.41364e+7 
           8290      7.38887e+7 
           8310      7.32662e+7 
           8330      7.25782e+7 
           8350      7.15933e+7 
           8370      7.11602e+7 
           8390      7.06607e+7 
           8410      7.00215e+7 
           8430      6.93662e+7 
           8450      6.81783e+7 
           8470       6.8156e+7 
           8490      6.73753e+7 
           8510      6.69081e+7 
           8530      6.61702e+7 
           8550      6.55002e+7 
           8570      6.53128e+7 
