# Kurucz ODFNEW /NOVER (2003)
# teff = 26000 K (value for the effective temperature for the model. Temperatures are given in K)
# logg = 4.5 log(cm/s2) (value for Log(G) for the model.)
# meta = -2  (value for the Metallicity for the model.)
# lh = 1.25  (l/Hp where l is the  mixing length of the convective element and Hp is the pressure scale height)
# vtur = 2 km/s (Microturbulence velocity)
# alpha = 0  (Alpha)
#
# column 1: WAVELENGTH (ANGSTROM), Wavelength in Angstrom
# column 2: FLUX (ERG/CM2/S/A), Flux in erg/cm2/s/A
          147.2      7.0087e-13 
            151     3.19314e-12 
          155.2     1.56419e-11 
          158.8     5.70978e-11 
            162     1.71943e-10 
            166     6.41968e-10 
          170.3      2.46766e-9 
          173.4      6.24454e-9 
          176.8      1.66079e-8 
          180.2      4.25351e-8 
          181.7      6.36876e-8 
          186.1      2.00117e-7 
            191      6.71382e-7 
          193.9      1.33398e-6 
          198.4       3.7125e-6 
          201.8      7.79117e-6 
            205      1.52915e-5 
          210.5      4.63959e-5 
          216.2     0.000137611 
          219.8     0.000265009 
            223     0.000465774 
          226.8     0.000890588 
            230      0.00782444 
            234       0.0175299 
            240       0.0408895 
          246.5       0.0975951 
          252.4        0.208649 
          256.8        0.341052 
            260        0.517914 
            264        0.816961 
          268.5         1.34054 
          273.5         2.27698 
          278.5          3.7973 
            284         6.51859 
            290         11.4546 
            296         19.6233 
            301         30.1172 
            308         52.0195 
            318         118.018 
            328         244.585 
            338         485.273 
            348         921.883 
            357         1588.99 
            366         2666.21 
            375         4332.96 
            385         7247.39 
            395         11755.2 
            405         18582.3 
            414           27508 
            422           38294 
            430         52536.3 
            441         79876.4 
            451          114481 
            460          155675 
            470          216010 
            480          294778 
            490          396829 
            500          526818 
            506      2.97707e+6 
            512      9.72132e+6 
            520      1.13929e+7 
            530      1.45569e+7 
            540      1.53198e+7 
            550      1.99349e+7 
            560      2.25545e+7 
            570      2.61554e+7 
            580      2.61684e+7 
            590      3.24089e+7 
            600       3.7313e+7 
            610      4.21864e+7 
            620      4.67031e+7 
            630      5.22191e+7 
            640      5.66455e+7 
            650      6.32995e+7 
            658      6.88271e+7 
            665      7.33576e+7 
            675      7.87434e+7 
            685      8.51289e+7 
            695      9.55892e+7 
            705      1.02561e+8 
            716      1.12264e+8 
            726       1.2075e+8 
            735      1.29918e+8 
            745      1.40259e+8 
            755      1.50533e+8 
            765      1.60689e+8 
            775      1.72218e+8 
            785      1.83796e+8 
            795      1.94676e+8 
            805      2.06769e+8 
            815      2.18446e+8 
            825      2.31836e+8 
            835      2.40354e+8 
            845      2.56647e+8 
            855      2.69061e+8 
            865      2.84028e+8 
            875       2.9912e+8 
            885      3.13788e+8 
            895       3.2813e+8 
            905      3.39451e+8 
            915      4.65498e+8 
            925       2.6815e+9 
            935      7.42621e+9 
            945     2.16949e+10 
            955     3.05283e+10 
            965       4.088e+10 
            975     1.61491e+10 
            985     4.59387e+10 
            995     4.37832e+10 
           1005     4.57659e+10 
           1015     4.07071e+10 
           1025     1.32175e+10 
           1035     3.63075e+10 
           1045     4.38059e+10 
           1055     4.27424e+10 
           1065     3.94092e+10 
           1075     4.01986e+10 
           1085     3.68177e+10 
           1095     3.88881e+10 
           1105     3.72556e+10 
           1115     3.65146e+10 
           1125     3.42431e+10 
           1135     3.49525e+10 
           1145     3.31981e+10 
           1155     3.33685e+10 
           1165     3.26732e+10 
           1175      2.8332e+10 
           1185     3.07452e+10 
           1195     2.89401e+10 
           1205     2.49978e+10 
           1215      9.00619e+9 
           1225     2.40688e+10 
           1235     2.71279e+10 
           1245      2.6655e+10 
           1255     2.63635e+10 
           1265     2.56705e+10 
           1275     2.54316e+10 
           1285     2.48525e+10 
           1295     2.31156e+10 
           1305      2.3079e+10 
           1315     2.32087e+10 
           1325     2.23768e+10 
           1335     2.15482e+10 
           1345     2.15789e+10 
           1355     2.12903e+10 
           1365     2.06802e+10 
           1375     2.02868e+10 
           1385     1.98752e+10 
           1395     1.88109e+10 
           1405     1.86221e+10 
           1415     1.85416e+10 
           1425     1.81658e+10 
           1435     1.78734e+10 
           1442     1.76918e+10 
           1447     1.74878e+10 
           1455     1.71934e+10 
           1465     1.68064e+10 
           1475     1.64757e+10 
           1485     1.61432e+10 
           1495     1.58147e+10 
           1505     1.53464e+10 
           1512     1.51111e+10 
           1517     1.50111e+10 
           1525      1.4757e+10 
           1535     1.41645e+10 
           1545     1.39475e+10 
           1555     1.35766e+10 
           1565     1.35879e+10 
           1575     1.34214e+10 
           1585     1.31905e+10 
           1595     1.29651e+10 
           1605     1.25482e+10 
           1615     1.23036e+10 
           1625     1.21949e+10 
           1635     1.20073e+10 
           1645     1.15812e+10 
           1655      1.1607e+10 
           1665     1.14321e+10 
           1672     1.12296e+10 
           1677     1.12431e+10 
           1685     1.10596e+10 
           1695     1.08265e+10 
           1705     1.06004e+10 
           1715     1.03541e+10 
           1725     1.01974e+10 
           1735     1.00717e+10 
           1745      9.88136e+9 
           1755      9.74914e+9 
           1765      9.44839e+9 
           1775      9.34809e+9 
           1785      9.24057e+9 
           1795      9.11112e+9 
           1805      8.98397e+9 
           1815      8.78506e+9 
           1825      8.65863e+9 
           1835      8.51439e+9 
           1845      8.23055e+9 
           1855      8.01757e+9 
           1865      7.96745e+9 
           1875      7.94077e+9 
           1885      7.64194e+9 
           1895      7.42071e+9 
           1905      7.48429e+9 
           1915      7.24792e+9 
           1925      7.11344e+9 
           1935      7.09927e+9 
           1945      7.06311e+9 
           1955      6.78158e+9 
           1967      6.81203e+9 
           1976        6.792e+9 
           1984       6.6133e+9 
           1995      6.41818e+9 
           2005      6.44859e+9 
           2015      6.39569e+9 
           2025        6.328e+9 
           2035      6.18008e+9 
           2045        6.087e+9 
           2055      5.89578e+9 
           2065      5.80631e+9 
           2074      5.83485e+9 
           2078      5.70763e+9 
           2085      5.70117e+9 
           2095      5.58825e+9 
           2105      5.58774e+9 
           2115      5.53292e+9 
           2125      5.47363e+9 
           2135      5.38817e+9 
           2145      5.29564e+9 
           2155      5.23606e+9 
           2165      5.16578e+9 
           2175      5.08924e+9 
           2185       5.0213e+9 
           2195      4.95673e+9 
           2205      4.88653e+9 
           2215      4.81832e+9 
           2225         4.75e+9 
           2235      4.68225e+9 
           2245      4.62396e+9 
           2255      4.55563e+9 
           2265      4.49941e+9 
           2275      4.43854e+9 
           2285      4.38008e+9 
           2295       4.2769e+9 
           2305       4.2605e+9 
           2315      4.20248e+9 
           2325      4.14745e+9 
           2335      4.08892e+9 
           2345      4.03782e+9 
           2355      3.98716e+9 
           2365      3.93432e+9 
           2375      3.88215e+9 
           2385      3.82967e+9 
           2395      3.78166e+9 
           2405      3.73334e+9 
           2415      3.68414e+9 
           2425      3.64031e+9 
           2435      3.59172e+9 
           2445       3.5469e+9 
           2455      3.50356e+9 
           2465      3.45864e+9 
           2475      3.41513e+9 
           2485       3.3722e+9 
           2495      3.28228e+9 
           2505      3.28723e+9 
           2513       3.2377e+9 
           2518       3.2346e+9 
           2525      3.20694e+9 
           2535      3.16727e+9 
           2545      3.12154e+9 
           2555      3.08954e+9 
           2565      3.05267e+9 
           2575      3.01679e+9 
           2585      2.98047e+9 
           2595      2.94457e+9 
           2605       2.9295e+9 
           2615      2.89479e+9 
           2625       2.8601e+9 
           2635      2.82248e+9 
           2645      2.78836e+9 
           2655      2.75147e+9 
           2665      2.71234e+9 
           2675      2.67694e+9 
           2685      2.66409e+9 
           2695      2.61018e+9 
           2705      2.60157e+9 
           2715      2.57135e+9 
           2725      2.51918e+9 
           2735      2.51157e+9 
           2745      2.48126e+9 
           2755      2.45385e+9 
           2765       2.4039e+9 
           2775      2.39952e+9 
           2785      2.37188e+9 
           2795      2.33082e+9 
           2805      2.31447e+9 
           2815      2.29278e+9 
           2825      2.23995e+9 
           2835      2.22178e+9 
           2845      2.21662e+9 
           2855      2.19187e+9 
           2865       2.1677e+9 
           2875      2.14375e+9 
           2885      2.12027e+9 
           2895      2.09689e+9 
           2910      2.06242e+9 
           2930      2.01764e+9 
           2950      1.95791e+9 
           2970      1.93214e+9 
           2990      1.89075e+9 
           3010      1.85061e+9 
           3030      1.81231e+9 
           3050       1.7744e+9 
           3070      1.73757e+9 
           3090      1.70059e+9 
           3110      1.66664e+9 
           3130      1.63422e+9 
           3150      1.60115e+9 
           3170      1.56823e+9 
           3190      1.52223e+9 
           3210      1.50537e+9 
           3230      1.47519e+9 
           3250      1.44578e+9 
           3270      1.41917e+9 
           3290      1.38923e+9 
           3310      1.36448e+9 
           3330      1.33808e+9 
           3350      1.30967e+9 
           3370      1.28723e+9 
           3390      1.26271e+9 
           3410      1.23884e+9 
           3430      1.20935e+9 
           3450      1.18202e+9 
           3470      1.16371e+9 
           3490      1.14206e+9 
           3510      1.12357e+9 
           3530       1.1055e+9 
           3550      1.08563e+9 
           3570      1.07282e+9 
           3590      1.04544e+9 
           3610      1.03016e+9 
           3630      1.00843e+9 
           3640      1.00748e+9 
           3650      9.88757e+8 
           3670      9.75717e+8 
           3690        9.572e+8 
           3710      9.24135e+8 
           3730       8.8536e+8 
           3750      9.02918e+8 
           3770      8.94397e+8 
           3790      9.42971e+8 
           3810      9.85599e+8 
           3830      8.54703e+8 
           3850      1.01669e+9 
           3870      1.03277e+9 
           3890      8.05337e+8 
           3910      1.01572e+9 
           3930      1.00753e+9 
           3950      9.83517e+8 
           3970       7.4842e+8 
           3990      9.40989e+8 
           4010      9.41068e+8 
           4030      8.79907e+8 
           4050      9.20871e+8 
           4070      8.99699e+8 
           4090      8.14936e+8 
           4110      7.06375e+8 
           4130      8.41523e+8 
           4150      8.35881e+8 
           4170       8.3046e+8 
           4190      8.18753e+8 
           4210       8.0519e+8 
           4230      7.91593e+8 
           4250      7.78133e+8 
           4270      7.63608e+8 
           4290      7.50548e+8 
           4310      7.32809e+8 
           4330      6.52594e+8 
           4350      5.93191e+8 
           4370      6.94893e+8 
           4390      6.68246e+8 
           4410       6.8062e+8 
           4430       6.6729e+8 
           4450      6.59612e+8 
           4470       6.1492e+8 
           4490      6.38026e+8 
           4510      6.29009e+8 
           4530      6.19043e+8 
           4550      6.09209e+8 
           4570      5.99613e+8 
           4590      5.90322e+8 
           4610       5.8117e+8 
           4630      5.72153e+8 
           4650      5.62712e+8 
           4670      5.54655e+8 
           4690      5.45909e+8 
           4710      5.30313e+8 
           4730      5.29609e+8 
           4750      5.21419e+8 
           4770      5.13976e+8 
           4790      5.06212e+8 
           4810      4.97126e+8 
           4830      4.86251e+8 
           4850      4.42098e+8 
           4870      3.93219e+8 
           4890      4.62591e+8 
           4910      4.60362e+8 
           4930      4.42343e+8 
           4950      4.49385e+8 
           4970      4.42999e+8 
           4990      4.36581e+8 
           5010      4.24277e+8 
           5030      4.24096e+8 
           5050      4.15233e+8 
           5070      4.12125e+8 
           5090      4.06275e+8 
           5110      4.00533e+8 
           5130      3.94854e+8 
           5150      3.89307e+8 
           5170      3.83891e+8 
           5190      3.78546e+8 
           5210      3.73272e+8 
           5230      3.68136e+8 
           5250      3.63054e+8 
           5270      3.58066e+8 
           5290      3.53169e+8 
           5310      3.48349e+8 
           5330      3.43618e+8 
           5350      3.38948e+8 
           5370       3.3439e+8 
           5390       3.2989e+8 
           5410       3.2546e+8 
           5430      3.21112e+8 
           5450      3.16832e+8 
           5470      3.12631e+8 
           5490      3.08495e+8 
           5510      3.04435e+8 
           5530      3.00426e+8 
           5550      2.96491e+8 
           5570      2.92617e+8 
           5590      2.88815e+8 
           5610      2.85072e+8 
           5630      2.81386e+8 
           5650      2.77745e+8 
           5670      2.74161e+8 
           5690      2.70631e+8 
           5710      2.67236e+8 
           5730      2.63836e+8 
           5750      2.60477e+8 
           5770      2.57204e+8 
           5790      2.53969e+8 
           5810      2.50784e+8 
           5830      2.47636e+8 
           5850      2.44559e+8 
           5870      2.33197e+8 
           5890      2.38002e+8 
           5910      2.35574e+8 
           5930       2.3267e+8 
           5950       2.2981e+8 
           5970      2.27004e+8 
           5990      2.24231e+8 
           6010       2.2151e+8 
           6030      2.18821e+8 
           6050      2.16183e+8 
           6070      2.13585e+8 
           6090      2.11016e+8 
           6110      2.08496e+8 
           6130      2.06005e+8 
           6150      2.03542e+8 
           6170      2.01136e+8 
           6190      1.98767e+8 
           6210      1.96424e+8 
           6230      1.94106e+8 
           6250      1.91834e+8 
           6270      1.89597e+8 
           6290      1.87383e+8 
           6310      1.85204e+8 
           6330      1.83058e+8 
           6350      1.80935e+8 
           6370      1.78863e+8 
           6390      1.76813e+8 
           6410      1.74785e+8 
           6430      1.72788e+8 
           6450      1.70822e+8 
           6470      1.68868e+8 
           6490      1.66961e+8 
           6510      1.64799e+8 
           6530       1.6213e+8 
           6550       1.5366e+8 
           6570      1.35846e+8 
           6590      1.55513e+8 
           6610      1.55522e+8 
           6630      1.54311e+8 
           6650      1.52719e+8 
           6670      1.49222e+8 
           6690      1.47616e+8 
           6710      1.47741e+8 
           6730      1.46116e+8 
           6750      1.44532e+8 
           6770      1.42956e+8 
           6790      1.41388e+8 
           6810      1.39876e+8 
           6830      1.38364e+8 
           6850      1.36874e+8 
           6870      1.35408e+8 
           6890      1.33956e+8 
           6910      1.32527e+8 
           6930      1.31112e+8 
           6950      1.29727e+8 
           6970      1.28355e+8 
           6990      1.26997e+8 
           7010      1.25661e+8 
           7030      1.24337e+8 
           7050      1.23041e+8 
           7070      1.19618e+8 
           7090      1.20488e+8 
           7110      1.19229e+8 
           7130      1.17998e+8 
           7150      1.16779e+8 
           7170      1.15549e+8 
           7190      1.14383e+8 
           7210      1.13213e+8 
           7230      1.11939e+8 
           7250      1.10913e+8 
           7270      1.09784e+8 
           7290      1.07693e+8 
           7310      1.07549e+8 
           7330      1.06479e+8 
           7350      1.05412e+8 
           7370      1.04349e+8 
           7390      1.03302e+8 
           7410      1.02271e+8 
           7430      1.01251e+8 
           7450       1.0026e+8 
           7470      9.92646e+7 
           7490      9.82852e+7 
           7510      9.72748e+7 
           7530      9.63535e+7 
           7550      9.54075e+7 
           7570      9.44701e+7 
           7590      9.35479e+7 
           7610       9.2634e+7 
           7630      9.17348e+7 
           7650      9.08438e+7 
           7670      8.99672e+7 
           7690      8.90985e+7 
           7710      8.82376e+7 
           7730      8.73907e+7 
           7750      8.65513e+7 
           7770      8.57195e+7 
           7790      8.49074e+7 
           7810      8.40469e+7 
           7830      8.33047e+7 
           7850      8.25996e+7 
           7870      8.18214e+7 
           7890      8.09956e+7 
           7910      8.02915e+7 
           7930      7.95395e+7 
           7950      7.87464e+7 
           7970      7.78476e+7 
           7990      7.71456e+7 
           8010      7.64027e+7 
           8030      7.56895e+7 
           8050      7.49884e+7 
           8070      7.43163e+7 
           8090      7.35406e+7 
           8110      7.29607e+7 
           8130      7.23514e+7 
           8150      7.16111e+7 
           8170      7.10577e+7 
           8190      7.03179e+7 
           8210      6.94951e+7 
           8230      6.90632e+7 
           8250       6.8463e+7 
           8270      6.74989e+7 
           8290      6.71845e+7 
           8310       6.6616e+7 
           8330      6.59816e+7 
           8350        6.505e+7 
           8370      6.47072e+7 
           8390      6.42385e+7 
           8410       6.3667e+7 
           8430      6.30472e+7 
           8450      6.20316e+7 
           8470      6.19122e+7 
           8490      6.12132e+7 
           8510      6.07073e+7 
           8530      6.01382e+7 
           8550      5.91924e+7 
           8570      5.96243e+7 
           8590      5.74477e+7 
