# Kurucz ODFNEW /NOVER (2003)
# teff = 3500 K (value for the effective temperature for the model. Temperatures are given in K)
# logg = 3 log(cm/s2) (value for Log(G) for the model.)
# meta = -2.5  (value for the Metallicity for the model.)
# lh = 1.25  (l/Hp where l is the  mixing length of the convective element and Hp is the pressure scale height)
# vtur = 2 km/s (Microturbulence velocity)
# alpha = 0.4  (Alpha)
#
# column 1: WAVELENGTH (ANGSTROM), Wavelength in Angstrom
# column 2: FLUX (ERG/CM2/S/A), Flux in erg/cm2/s/A
          147.2     1.73866e-35 
            151     1.65225e-35 
          155.2     1.56403e-35 
          158.8     1.49392e-35 
            162     1.43549e-35 
            166     1.36714e-35 
          170.3     1.29897e-35 
          173.4     1.25294e-35 
          176.8     1.20522e-35 
          180.2     1.16017e-35 
          181.7     1.14109e-35 
          186.1     1.08777e-35 
            191     1.03267e-35 
          193.9     1.00201e-35 
          198.4     9.57076e-36 
          201.8     9.25097e-36 
            205     8.96441e-36 
          210.5     8.50208e-36 
          216.2     8.05969e-36 
          219.8     7.79784e-36 
            223     7.57565e-36 
          226.8     7.32392e-36 
            230     7.12154e-36 
            234     6.88015e-36 
            240     6.54044e-36 
          246.5     6.20006e-36 
          252.4     5.91358e-36 
          256.8     5.71267e-36 
            260     5.57292e-36 
            264     5.40532e-36 
          268.5     5.22566e-36 
          273.5     5.03634e-36 
          278.5     4.85712e-36 
            284     4.67082e-36 
            290     4.47954e-36 
            296     4.29978e-36 
            301     4.15812e-36 
            308     3.97126e-36 
            318     3.72542e-36 
            328     3.50172e-36 
            338     3.29759e-36 
            348     3.11079e-36 
            357     2.95592e-36 
            366     2.81234e-36 
            375     2.67896e-36 
            385     2.54161e-36 
            395     2.41455e-36 
            405     2.29678e-36 
            414     2.19801e-36 
            422     2.11546e-36 
            430     2.03748e-36 
            441      1.9371e-36 
            451     1.85215e-36 
            460     1.78038e-36 
            470     1.70543e-36 
            480     1.63511e-36 
            490     1.56905e-36 
            500     1.50692e-36 
            506     1.47139e-36 
            512     1.43711e-36 
            520     1.39323e-36 
            530     1.34115e-36 
            540     1.29194e-36 
            550     1.24539e-36 
            560     1.20131e-36 
            570     1.15952e-36 
            580     1.11989e-36 
            590     1.08224e-36 
            600     1.04647e-36 
            610     1.01244e-36 
            620     9.80045e-37 
            630      9.4918e-37 
            640      9.1975e-37 
            650     8.91667e-37 
            658     8.70117e-37 
            665     8.51895e-37 
            675     8.26841e-37 
            685     8.02876e-37 
            695     7.79938e-37 
            705     7.57969e-37 
            716     7.34858e-37 
            726     7.14754e-37 
            735     6.97357e-37 
            745     6.78761e-37 
            755       6.609e-37 
            765     6.43734e-37 
            775     6.27229e-37 
            785      6.1135e-37 
            795     5.96067e-37 
            805      5.8135e-37 
            815     5.67171e-37 
            825     5.53505e-37 
            835     5.40327e-37 
            845     5.27614e-37 
            855     5.15344e-37 
            865     5.03498e-37 
            875     4.92055e-37 
            885     4.80998e-37 
            895     4.70309e-37 
            905     4.59973e-37 
            915     1.40014e-20 
            925     1.12716e-19 
            935     1.72053e-19 
            945     5.35675e-19 
            955     1.02619e-18 
            965     1.88655e-18 
            975     3.74984e-18 
            985     6.41379e-18 
            995     1.06361e-17 
           1005     2.22798e-17 
           1015     4.04183e-17 
           1025     7.09623e-17 
           1035     1.41172e-16 
           1045     3.18274e-16 
           1055     5.06729e-16 
           1065     6.60607e-16 
           1075     1.20361e-15 
           1085      2.2667e-15 
           1095     3.00733e-15 
           1105      4.3053e-15 
           1115     1.06517e-14 
           1125     1.37642e-14 
           1135     2.57667e-14 
           1145     3.85027e-14 
           1155     6.25065e-14 
           1165     1.04309e-13 
           1175     1.53393e-13 
           1185     2.24427e-13 
           1195     3.81234e-13 
           1205     7.73917e-13 
           1215     1.54298e-12 
           1225     1.91846e-12 
           1235     1.69854e-12 
           1245     2.67571e-12 
           1255     8.02768e-12 
           1265     2.04177e-11 
           1275     3.34106e-11 
           1285     1.01466e-10 
           1295     1.42459e-10 
           1305     4.77729e-10 
           1315     7.10638e-10 
           1325       1.3798e-9 
           1335      1.76495e-9 
           1345      3.14936e-9 
           1355      4.63293e-9 
           1365      6.56376e-9 
           1375      7.60622e-9 
           1385      9.78046e-9 
           1395      1.49029e-8 
           1405      2.11359e-8 
           1415      3.42744e-8 
           1425      3.06597e-8 
           1435      5.96609e-8 
           1442      1.04873e-7 
           1447      6.70654e-8 
           1455      9.34356e-8 
           1465      1.22849e-7 
           1475      1.37109e-7 
           1485      1.61285e-7 
           1495      3.05729e-7 
           1505      5.06425e-7 
           1512      2.43227e-7 
           1517      3.02803e-7 
           1525      5.48646e-7 
           1535      9.66612e-7 
           1545      5.12801e-7 
           1555      8.14992e-7 
           1565      6.75697e-7 
           1575      1.10471e-6 
           1585      1.03279e-6 
           1595       8.9693e-7 
           1605      9.51452e-7 
           1615      1.00886e-6 
           1625      1.05318e-6 
           1635      1.59332e-6 
           1645      2.86262e-6 
           1655      2.05143e-6 
           1665      5.16249e-6 
           1672      3.98199e-6 
           1677      8.42345e-6 
           1685      1.24676e-5 
           1695      2.29458e-5 
           1705      2.53794e-5 
           1715       3.2498e-5 
           1725      4.88936e-5 
           1735      6.14599e-5 
           1745      8.77556e-5 
           1755      8.27722e-5 
           1765     0.000133509 
           1775     0.000107323 
           1785     0.000305441 
           1795     0.000190503 
           1805     0.000539859 
           1815     0.000273173 
           1825     0.000572352 
           1835     0.000410783 
           1845     0.000984536 
           1855     0.000465615 
           1865      0.00142364 
           1875       0.0011002 
           1885      0.00165345 
           1895      0.00199987 
           1905      0.00226898 
           1915      0.00376213 
           1925      0.00251812 
           1935      0.00113324 
           1945      0.00434336 
           1955      0.00796597 
           1967      0.00769722 
           1976      0.00997742 
           1984       0.0151926 
           1995       0.0112583 
           2005       0.0145687 
           2015       0.0161085 
           2025       0.0144578 
           2035       0.0181295 
           2045       0.0173833 
           2055       0.0232138 
           2065       0.0192746 
           2074       0.0122299 
           2078       0.0269699 
           2085       0.0466905 
           2095       0.0999542 
           2105        0.110893 
           2115       0.0904088 
           2125        0.129322 
           2135        0.202571 
           2145       0.0985747 
           2155         0.18301 
           2165        0.160442 
           2175        0.181451 
           2185        0.145855 
           2195        0.421914 
           2205        0.253745 
           2215        0.434878 
           2225        0.255611 
           2235        0.779972 
           2245        0.816393 
           2255         1.49698 
           2265          0.2865 
           2275         1.39224 
           2285        0.917503 
           2295         2.72042 
           2305        0.283549 
           2315         4.62341 
           2325         2.11042 
           2335         5.31863 
           2345         2.65717 
           2355         1.23099 
           2365         2.75433 
           2375         1.89553 
           2385         7.15215 
           2395          5.4506 
           2405         17.4028 
           2415         5.94192 
           2425          9.3583 
           2435         18.4698 
           2445         30.9808 
           2455         39.0729 
           2465         17.2349 
           2475         46.4624 
           2485         7.03345 
           2495         9.55346 
           2505          27.696 
           2513         13.6168 
           2518         14.2823 
           2525         25.0437 
           2535         93.0828 
           2545         142.484 
           2555         161.414 
           2565         57.5009 
           2575         135.928 
           2585         69.5082 
           2595         102.143 
           2605         159.213 
           2615         112.398 
           2625         229.981 
           2635         468.962 
           2645         365.151 
           2655         541.283 
           2665         463.625 
           2675         319.158 
           2685          488.17 
           2695         270.204 
           2705         624.843 
           2715         549.259 
           2725         429.293 
           2735         457.753 
           2745         721.008 
           2755         647.337 
           2765         957.983 
           2775         1199.66 
           2785         631.912 
           2795          689.27 
           2805         737.225 
           2815         710.412 
           2825         693.402 
           2835         462.258 
           2845         211.399 
           2855         62.1271 
           2865         454.179 
           2875         678.973 
           2885          1195.2 
           2895         1616.46 
           2910         2236.19 
           2930         2909.43 
           2950          2935.7 
           2970         2861.48 
           2990         3688.58 
           3010         3984.72 
           3030         4563.81 
           3050          5590.7 
           3070         4139.87 
           3090         3457.37 
           3110         5322.92 
           3130         5273.19 
           3150          6731.2 
           3170         10142.4 
           3190         9902.38 
           3210         11679.8 
           3230         12813.5 
           3250         18397.9 
           3270         22499.3 
           3290         24968.5 
           3310         22698.1 
           3330         22076.4 
           3350         20066.9 
           3370         13524.5 
           3390         19616.2 
           3410         24040.8 
           3430           29901 
           3450           27937 
           3470         30501.2 
           3490         36642.7 
           3510         45118.5 
           3530         44980.5 
           3550         58776.1 
           3570         42695.4 
           3590         41250.5 
           3610         51412.5 
           3630         59175.9 
           3640         64694.2 
           3650         64142.3 
           3670         77536.5 
           3690         71031.9 
           3710         64479.3 
           3730         37380.8 
           3750         48057.9 
           3770         80385.2 
           3790         86229.6 
           3810         87566.4 
           3830         51996.2 
           3850         76853.1 
           3870         74473.5 
           3890         77446.6 
           3910           86661 
           3930         37490.2 
           3950         75140.6 
           3970         51871.4 
           3990          115765 
           4010          138157 
           4030          123971 
           4050          137129 
           4070          134461 
           4090          138014 
           4110         86164.2 
           4130          108682 
           4150         95664.9 
           4170         95886.8 
           4190          111209 
           4210          109656 
           4230         95466.2 
           4250          131950 
           4270          131303 
           4290          134346 
           4310          147541 
           4330          183013 
           4350          190651 
           4370          194941 
           4390          189914 
           4410          198243 
           4430          208973 
           4450          215907 
           4470          232589 
           4490          241734 
           4510          255041 
           4530          235629 
           4550          254489 
           4570          263396 
           4590          269170 
           4610          276909 
           4630          285488 
           4650          279483 
           4670          295681 
           4690          294209 
           4710          291478 
           4730          292504 
           4750          290647 
           4770          267419 
           4790          273400 
           4810          310585 
           4830          310473 
           4850          328498 
           4870          332112 
           4890          337987 
           4910          341724 
           4930          332943 
           4950          327921 
           4970          323167 
           4990          305013 
           5010          280565 
           5030          287421 
           5050          272888 
           5070          263514 
           5090          256852 
           5110          250056 
           5130          241568 
           5150          226144 
           5170          231403 
           5190          269427 
           5210          286404 
           5230          404731 
           5250          413504 
           5270          393429 
           5290          424560 
           5310          442945 
           5330          422733 
           5350          439874 
           5370          442731 
           5390          440657 
           5410          444832 
           5430          442865 
           5450          444186 
           5470          456670 
           5490          460623 
           5510          453203 
           5530          477353 
           5550          482603 
           5570          481960 
           5590          472441 
           5610          484485 
           5630          501503 
           5650          513891 
           5670          513096 
           5690          520585 
           5710          516216 
           5730          528109 
           5750          534081 
           5770          536767 
           5790          539055 
           5810          541890 
           5830          548498 
           5850          546009 
           5870          546197 
           5890          472887 
           5910          547080 
           5930          552363 
           5950          555179 
           5970          563864 
           5990          567675 
           6010          571935 
           6030          577244 
           6050          580854 
           6070          581552 
           6090          582615 
           6110          584428 
           6130          572479 
           6150          590675 
           6170          563270 
           6190          588405 
           6210          588147 
           6230          585959 
           6250          581771 
           6270          592594 
           6290          601781 
           6310          607197 
           6330          612054 
           6350          619136 
           6370          619358 
           6390          622407 
           6410          621389 
           6430          621384 
           6450          617555 
           6470          621527 
           6490          621548 
           6510          633292 
           6530          641195 
           6550          636627 
           6570          637644 
           6590          644424 
           6610          646178 
           6630          649904 
           6650          648821 
           6670          646214 
           6690          646960 
           6710          646507 
           6730          646646 
           6750          645258 
           6770          654685 
           6790          653686 
           6810          658122 
           6830          662672 
           6850          665359 
           6870          665785 
           6890          670203 
           6910          673130 
           6930          674153 
           6950          675418 
           6970          679690 
           6990          679754 
           7010          682466 
           7030          684085 
           7050          682369 
           7070          673208 
           7090          668666 
           7110          670647 
           7130          662370 
           7150          659826 
           7170          672771 
           7190          678609 
           7210          673139 
           7230          687286 
           7250          683542 
           7270          693493 
           7290          696839 
           7310          697670 
           7330          695951 
           7350          695041 
           7370          701067 
           7390          702590 
           7410          702919 
           7430          703985 
           7450          704893 
           7470          705985 
           7490          707122 
           7510          708504 
           7530          709928 
           7550          710071 
           7570          711386 
           7590          710257 
           7610          710432 
           7630          710531 
           7650          710361 
           7670          699617 
           7690          708150 
           7710          702833 
           7730          710676 
           7750          709145 
           7770          711552 
           7790          712435 
           7810          714288 
           7830          713777 
           7850          713507 
           7870          715603 
           7890          716397 
           7910          715790 
           7930          716796 
           7950          715460 
           7970          718634 
           7990          718051 
           8010          718580 
           8030          718569 
           8050          717619 
           8070          717479 
           8090          718829 
           8110          718782 
           8130          719125 
           8150          719457 
           8170          719212 
           8190          710424 
           8210          715910 
           8230          717441 
           8250          717509 
           8270          718064 
           8290          717179 
           8310          715477 
           8330          708842 
           8350          715069 
           8370          711978 
           8390          688625 
           8410          710122 
           8430          691595 
           8450          712964 
           8470          708866 
           8490          709659 
           8510          692022 
           8530          709491 
           8550          660517 
           8570          712681 
