# Kurucz ODFNEW /NOVER (2003)
# teff = 23000 K (value for the effective temperature for the model. Temperatures are given in K)
# logg = 3.5 log(cm/s2) (value for Log(G) for the model.)
# meta = -2.5  (value for the Metallicity for the model.)
# lh = 1.25  (l/Hp where l is the  mixing length of the convective element and Hp is the pressure scale height)
# vtur = 2 km/s (Microturbulence velocity)
# alpha = 0.4  (Alpha)
#
# column 1: WAVELENGTH (ANGSTROM), Wavelength in Angstrom
# column 2: FLUX (ERG/CM2/S/A), Flux in erg/cm2/s/A
          147.2     3.20539e-16 
            151     1.81136e-15 
          155.2     1.11067e-14 
          158.8     4.86153e-14 
            162      1.7068e-13 
            166     7.64751e-13 
          170.3     3.53633e-12 
          173.4     1.01584e-11 
          176.8     3.09259e-11 
          180.2     9.01367e-11 
          181.7     1.42602e-10 
          186.1     5.23881e-10 
            191       2.0733e-9 
          193.9      4.52269e-9 
          198.4      1.44729e-8 
          201.8       3.3618e-8 
            205      7.23527e-8 
          210.5      2.55148e-7 
          216.2      8.77377e-7 
          219.8      1.84863e-6 
            223       3.5101e-6 
          226.8      7.33197e-6 
            230      3.46506e-5 
            234       7.9452e-5 
            240     0.000212237 
          246.5     0.000582979 
          252.4      0.00140371 
          256.8      0.00253483 
            260      0.00404471 
            264      0.00688206 
          268.5       0.0122589 
          273.5       0.0227416 
          278.5       0.0412894 
            284       0.0775496 
            290          0.1498 
            296        0.281059 
            301        0.464919 
            308        0.896829 
            318         2.29147 
            328         5.38565 
            338         12.0115 
            348         25.4957 
            357         48.2909 
            366         88.5549 
            375         157.028 
            385         287.252 
            395         507.803 
            405         871.054 
            414          1382.3 
            422         2044.49 
            430          2973.7 
            441         4871.81 
            451         7450.83 
            460         10726.5 
            470         15795.9 
            480         22837.6 
            490         32479.4 
            500         45453.2 
            506          321558 
            512          924133 
            520      1.13304e+6 
            530      1.56486e+6 
            540      1.69192e+6 
            550      2.36287e+6 
            560       2.8125e+6 
            570      3.38616e+6 
            580      3.41285e+6 
            590      4.45517e+6 
            600      5.47953e+6 
            610      6.41908e+6 
            620      7.36671e+6 
            630      8.51585e+6 
            640      9.58655e+6 
            650      1.10281e+7 
            658      1.22634e+7 
            665      1.33262e+7 
            675      1.47566e+7 
            685      1.64429e+7 
            695      1.88215e+7 
            705      2.07555e+7 
            716      2.32972e+7 
            726      2.56632e+7 
            735      2.82241e+7 
            745      3.11198e+7 
            755      3.41038e+7 
            765      3.71692e+7 
            775      4.06325e+7 
            785      4.41701e+7 
            795      4.77349e+7 
            805      5.16669e+7 
            815      5.56032e+7 
            825      5.99612e+7 
            835      6.34128e+7 
            845      6.87692e+7 
            855      7.32974e+7 
            865      7.85204e+7 
            875      8.37871e+7 
            885      8.92106e+7 
            895      9.46591e+7 
            905      9.93358e+7 
            915      1.87567e+8 
            925      2.20941e+9 
            935      6.21142e+9 
            945     1.42255e+10 
            955     1.70457e+10 
            965     2.08705e+10 
            975     1.00735e+10 
            985     2.13579e+10 
            995     2.04068e+10 
           1005     2.09818e+10 
           1015     1.97776e+10 
           1025      9.28319e+9 
           1035     1.83658e+10 
           1045      2.0611e+10 
           1055      2.0084e+10 
           1065      1.8767e+10 
           1075     1.91885e+10 
           1085       1.806e+10 
           1095     1.88376e+10 
           1105     1.80441e+10 
           1115     1.78319e+10 
           1125     1.69147e+10 
           1135     1.73423e+10 
           1145      1.6608e+10 
           1155     1.67881e+10 
           1165     1.65706e+10 
           1175     1.48132e+10 
           1185     1.59175e+10 
           1195     1.49755e+10 
           1205     1.33882e+10 
           1215       6.2771e+9 
           1225      1.3651e+10 
           1235     1.44556e+10 
           1245     1.41986e+10 
           1255     1.40057e+10 
           1265     1.36828e+10 
           1275     1.36585e+10 
           1285     1.33987e+10 
           1295     1.24153e+10 
           1305      1.2489e+10 
           1315     1.26921e+10 
           1325     1.23227e+10 
           1335     1.19249e+10 
           1345     1.19642e+10 
           1355     1.18594e+10 
           1365     1.15615e+10 
           1375     1.13864e+10 
           1385     1.12314e+10 
           1395      1.0672e+10 
           1405     1.06025e+10 
           1415     1.06078e+10 
           1425     1.04589e+10 
           1435     1.03113e+10 
           1442     1.02201e+10 
           1447     1.01266e+10 
           1455      9.98188e+9 
           1465      9.80552e+9 
           1475      9.64427e+9 
           1485      9.47997e+9 
           1495      9.31632e+9 
           1505      9.08282e+9 
           1512      9.00814e+9 
           1517      8.95377e+9 
           1525      8.82314e+9 
           1535      8.55363e+9 
           1545       8.4551e+9 
           1555      8.27363e+9 
           1565      8.25468e+9 
           1575      8.15399e+9 
           1585      8.02368e+9 
           1595      7.90724e+9 
           1605      7.69948e+9 
           1615      7.57409e+9 
           1625      7.51055e+9 
           1635      7.41262e+9 
           1645      7.19817e+9 
           1655      7.18915e+9 
           1665      7.08471e+9 
           1672      6.98347e+9 
           1677      6.97926e+9 
           1685      6.88634e+9 
           1695      6.76245e+9 
           1705        6.645e+9 
           1715      6.51496e+9 
           1725      6.42888e+9 
           1735      6.35036e+9 
           1745      6.24896e+9 
           1755       6.1755e+9 
           1765      6.01284e+9 
           1775      5.95473e+9 
           1785      5.88702e+9 
           1795      5.81845e+9 
           1805      5.74352e+9 
           1815      5.63912e+9 
           1825      5.56493e+9 
           1835      5.48397e+9 
           1845      5.33781e+9 
           1855      5.20421e+9 
           1865       5.1674e+9 
           1875      5.15733e+9 
           1885      5.00129e+9 
           1895      4.87007e+9 
           1905      4.90648e+9 
           1915      4.76857e+9 
           1925      4.69678e+9 
           1935      4.67956e+9 
           1945      4.65078e+9 
           1955      4.49983e+9 
           1967      4.50887e+9 
           1976      4.48477e+9 
           1984      4.38924e+9 
           1995      4.27367e+9 
           2005      4.28972e+9 
           2015      4.25393e+9 
           2025      4.20926e+9 
           2035      4.12888e+9 
           2045      4.07283e+9 
           2055      3.96514e+9 
           2065       3.9179e+9 
           2074      3.93197e+9 
           2078      3.85673e+9 
           2085      3.85818e+9 
           2095      3.78169e+9 
           2105      3.76685e+9 
           2115      3.72971e+9 
           2125      3.69127e+9 
           2135      3.64041e+9 
           2145      3.58517e+9 
           2155      3.54703e+9 
           2165      3.50333e+9 
           2175      3.45614e+9 
           2185      3.41416e+9 
           2195      3.37288e+9 
           2205      3.32995e+9 
           2215       3.2879e+9 
           2225      3.24502e+9 
           2235      3.20353e+9 
           2245      3.16638e+9 
           2255       3.1248e+9 
           2265      3.08824e+9 
           2275      3.05001e+9 
           2285      3.01313e+9 
           2295      2.95302e+9 
           2305      2.93894e+9 
           2315      2.90208e+9 
           2325      2.86706e+9 
           2335      2.82978e+9 
           2345      2.79679e+9 
           2355      2.76527e+9 
           2365      2.73157e+9 
           2375      2.69833e+9 
           2385      2.66535e+9 
           2395      2.63414e+9 
           2405      2.60349e+9 
           2415      2.57112e+9 
           2425      2.54323e+9 
           2435      2.51222e+9 
           2445      2.48339e+9 
           2455      2.45514e+9 
           2465      2.42621e+9 
           2475      2.39803e+9 
           2485      2.37017e+9 
           2495      2.31126e+9 
           2505      2.31548e+9 
           2513      2.28841e+9 
           2518      2.27975e+9 
           2525       2.2627e+9 
           2535      2.23697e+9 
           2545      2.20459e+9 
           2555      2.18604e+9 
           2565      2.16107e+9 
           2575      2.13841e+9 
           2585      2.11439e+9 
           2595       2.0908e+9 
           2605      2.08338e+9 
           2615      2.06037e+9 
           2625      2.03585e+9 
           2635      2.00822e+9 
           2645      1.98741e+9 
           2655      1.96322e+9 
           2665       1.9395e+9 
           2675      1.91734e+9 
           2685      1.90742e+9 
           2695      1.87363e+9 
           2705      1.86603e+9 
           2715      1.84582e+9 
           2725      1.81251e+9 
           2735      1.80598e+9 
           2745      1.78575e+9 
           2755      1.76695e+9 
           2765      1.73488e+9 
           2775      1.73037e+9 
           2785      1.71189e+9 
           2795      1.68086e+9 
           2805      1.67153e+9 
           2815      1.65844e+9 
           2825       1.6259e+9 
           2835      1.61628e+9 
           2845      1.60694e+9 
           2855       1.5902e+9 
           2865      1.57379e+9 
           2875      1.55753e+9 
           2885      1.54155e+9 
           2895      1.52566e+9 
           2910      1.50218e+9 
           2930      1.47152e+9 
           2950      1.43294e+9 
           2970      1.41315e+9 
           2990      1.38478e+9 
           3010      1.35733e+9 
           3030      1.33073e+9 
           3050      1.30459e+9 
           3070      1.27913e+9 
           3090      1.25356e+9 
           3110      1.23001e+9 
           3130      1.20765e+9 
           3150       1.1845e+9 
           3170      1.16147e+9 
           3190      1.13073e+9 
           3210      1.11789e+9 
           3230      1.09676e+9 
           3250      1.07614e+9 
           3270      1.05741e+9 
           3290      1.03641e+9 
           3310      1.01891e+9 
           3330      1.00028e+9 
           3350      9.80285e+8 
           3370      9.64372e+8 
           3390      9.47028e+8 
           3410      9.30055e+8 
           3430       9.0909e+8 
           3450      8.89749e+8 
           3470      8.76769e+8 
           3490      8.61645e+8 
           3510      8.50937e+8 
           3530      8.36878e+8 
           3550      8.22721e+8 
           3570      8.12051e+8 
           3590      7.94055e+8 
           3610      7.81494e+8 
           3630      7.67073e+8 
           3640      7.65082e+8 
           3650       7.5705e+8 
           3670      7.47227e+8 
           3690      7.25813e+8 
           3710      7.09387e+8 
           3730      6.95843e+8 
           3750      7.59245e+8 
           3770      7.63828e+8 
           3790       7.9303e+8 
           3810      8.23681e+8 
           3830       7.2678e+8 
           3850      8.37128e+8 
           3870      8.31467e+8 
           3890      6.93479e+8 
           3910      8.15749e+8 
           3930      7.99759e+8 
           3950      7.89025e+8 
           3970       6.4375e+8 
           3990      7.59914e+8 
           4010      7.49143e+8 
           4030      7.13891e+8 
           4050      7.30744e+8 
           4070      7.16484e+8 
           4090      6.76433e+8 
           4110      5.96894e+8 
           4130      6.74459e+8 
           4150       6.6629e+8 
           4170      6.59329e+8 
           4190      6.50324e+8 
           4210      6.39888e+8 
           4230      6.29535e+8 
           4250      6.19286e+8 
           4270      6.08828e+8 
           4290      5.99542e+8 
           4310      5.88413e+8 
           4330      5.47264e+8 
           4350      5.00853e+8 
           4370      5.60234e+8 
           4390      5.42064e+8 
           4410      5.44907e+8 
           4430      5.34411e+8 
           4450      5.28382e+8 
           4470      5.02868e+8 
           4490      5.12039e+8 
           4510      5.04452e+8 
           4530       4.9674e+8 
           4550      4.89107e+8 
           4570      4.81642e+8 
           4590      4.74468e+8 
           4610        4.674e+8 
           4630      4.60418e+8 
           4650      4.53121e+8 
           4670      4.46743e+8 
           4690      4.40064e+8 
           4710      4.28676e+8 
           4730      4.27314e+8 
           4750      4.20969e+8 
           4770      4.15012e+8 
           4790      4.08976e+8 
           4810      4.03009e+8 
           4830       3.9598e+8 
           4850       3.7347e+8 
           4870      3.35606e+8 
           4890      3.78492e+8 
           4910      3.74759e+8 
           4930       3.6261e+8 
           4950      3.64452e+8 
           4970      3.59375e+8 
           4990      3.54336e+8 
           5010      3.45584e+8 
           5030      3.44524e+8 
           5050      3.37782e+8 
           5070      3.35049e+8 
           5090      3.30444e+8 
           5110        3.259e+8 
           5130      3.21446e+8 
           5150      3.17051e+8 
           5170      3.12756e+8 
           5190      3.08532e+8 
           5210      3.04336e+8 
           5230      3.00277e+8 
           5250      2.96244e+8 
           5270      2.92291e+8 
           5290      2.88402e+8 
           5310      2.84577e+8 
           5330      2.80814e+8 
           5350      2.77113e+8 
           5370      2.73485e+8 
           5390      2.69903e+8 
           5410      2.66379e+8 
           5430      2.62913e+8 
           5450      2.59503e+8 
           5470      2.56161e+8 
           5490       2.5286e+8 
           5510      2.49613e+8 
           5530      2.46431e+8 
           5550      2.43289e+8 
           5570      2.40197e+8 
           5590      2.37155e+8 
           5610      2.34162e+8 
           5630      2.31218e+8 
           5650      2.28298e+8 
           5670      2.25448e+8 
           5690      2.22621e+8 
           5710      2.19874e+8 
           5730       2.1716e+8 
           5750      2.14455e+8 
           5770       2.1184e+8 
           5790      2.09232e+8 
           5810      2.06678e+8 
           5830      2.04154e+8 
           5850      2.01671e+8 
           5870      1.93969e+8 
           5890      1.96704e+8 
           5910      1.94447e+8 
           5930       1.9211e+8 
           5950      1.89799e+8 
           5970      1.87535e+8 
           5990      1.85309e+8 
           6010      1.83108e+8 
           6030      1.80942e+8 
           6050      1.78811e+8 
           6070      1.76704e+8 
           6090      1.74631e+8 
           6110      1.72592e+8 
           6130      1.70575e+8 
           6150      1.68591e+8 
           6170      1.66639e+8 
           6190      1.64718e+8 
           6210      1.62819e+8 
           6230       1.6095e+8 
           6250      1.59102e+8 
           6270      1.57293e+8 
           6290      1.55494e+8 
           6310      1.53734e+8 
           6330      1.51993e+8 
           6350      1.50262e+8 
           6370      1.48577e+8 
           6390       1.4692e+8 
           6410      1.45271e+8 
           6430      1.43649e+8 
           6450      1.42053e+8 
           6470      1.40474e+8 
           6490      1.38921e+8 
           6510      1.37384e+8 
           6530      1.35599e+8 
           6550      1.31066e+8 
           6570      1.17457e+8 
           6590      1.30694e+8 
           6610      1.30008e+8 
           6630      1.28625e+8 
           6650      1.27324e+8 
           6670      1.24868e+8 
           6690       1.2355e+8 
           6710      1.23258e+8 
           6730      1.21936e+8 
           6750      1.20636e+8 
           6770      1.19349e+8 
           6790      1.18075e+8 
           6810       1.1683e+8 
           6830      1.15598e+8 
           6850      1.14378e+8 
           6870      1.13178e+8 
           6890       1.1199e+8 
           6910      1.10814e+8 
           6930      1.09658e+8 
           6950      1.08521e+8 
           6970      1.07395e+8 
           6990      1.06272e+8 
           7010      1.05191e+8 
           7030      1.04106e+8 
           7050      1.03038e+8 
           7070      1.00383e+8 
           7090      1.00942e+8 
           7110       9.9913e+7 
           7130      9.89012e+7 
           7150      9.78992e+7 
           7170      9.68848e+7 
           7190      9.59311e+7 
           7210      9.49649e+7 
           7230      9.39717e+7 
           7250      9.30741e+7 
           7270      9.21422e+7 
           7290       9.0496e+7 
           7310      9.03046e+7 
           7330      8.94269e+7 
           7350      8.85434e+7 
           7370      8.76681e+7 
           7390      8.68079e+7 
           7410      8.59557e+7 
           7430      8.51183e+7 
           7450      8.43021e+7 
           7470        8.348e+7 
           7490      8.26654e+7 
           7510      8.18316e+7 
           7530      8.10786e+7 
           7550      8.02927e+7 
           7570      7.95206e+7 
           7590       7.8762e+7 
           7610      7.80038e+7 
           7630      7.72589e+7 
           7650      7.65271e+7 
           7670       7.5802e+7 
           7690      7.50833e+7 
           7710      7.43647e+7 
           7730      7.36715e+7 
           7750      7.29718e+7 
           7770      7.22846e+7 
           7790       7.1616e+7 
           7810      7.08914e+7 
           7830      7.02839e+7 
           7850      6.97062e+7 
           7870      6.90604e+7 
           7890      6.83839e+7 
           7910      6.77917e+7 
           7930      6.70428e+7 
           7950        6.639e+7 
           7970       6.5731e+7 
           7990      6.51604e+7 
           8010       6.4536e+7 
           8030      6.39695e+7 
           8050      6.34311e+7 
           8070      6.28973e+7 
           8090      6.21953e+7 
           8110       6.1717e+7 
           8130      6.12485e+7 
           8150      6.05739e+7 
           8170      6.01648e+7 
           8190      5.95456e+7 
           8210      5.89037e+7 
           8230      5.85788e+7 
           8250      5.80682e+7 
           8270      5.72369e+7 
           8290      5.69665e+7 
           8310      5.64853e+7 
           8330      5.59701e+7 
           8350      5.51944e+7 
           8370      5.48503e+7 
           8390      5.44446e+7 
           8410      5.39409e+7 
           8430      5.33831e+7 
           8450      5.26237e+7 
           8470      5.22184e+7 
           8490      5.20725e+7 
           8510      5.10582e+7 
           8530       5.1388e+7 
           8550      4.93952e+7 
           8570      5.13249e+7 
