# Kurucz ODFNEW /NOVER (2003)
# teff = 7250 K (value for the effective temperature for the model. Temperatures are given in K)
# logg = 2 log(cm/s2) (value for Log(G) for the model.)
# meta = -1.5  (value for the Metallicity for the model.)
# lh = 1.25  (l/Hp where l is the  mixing length of the convective element and Hp is the pressure scale height)
# vtur = 2 km/s (Microturbulence velocity)
# alpha = 0.4  (Alpha)
#
# column 1: WAVELENGTH (ANGSTROM), Wavelength in Angstrom
# column 2: FLUX (ERG/CM2/S/A), Flux in erg/cm2/s/A
            375     3.50596e-24 
            385     2.55609e-23 
            395     1.67478e-22 
            405     9.95057e-22 
            414     4.57845e-21 
            422      1.6772e-20 
            430     5.83757e-20 
            441     2.99902e-19 
            451     1.23272e-18 
            460      4.1604e-18 
            470     1.51688e-17 
            480     5.21862e-17 
            490     1.70195e-16 
            500     5.27165e-16 
            506     1.34809e-15 
            512     2.87565e-15 
            520     6.55668e-15 
            530     1.78159e-14 
            540     4.57682e-14 
            550     1.14699e-13 
            560     2.75784e-13 
            570     6.41194e-13 
            580     1.42797e-12 
            590     3.15615e-12 
            600      6.7038e-12 
            610     1.38593e-11 
            620     2.79215e-11 
            630     5.48958e-11 
            640     1.05495e-10 
            650     1.98307e-10 
            658      3.2357e-10 
            665     4.91288e-10 
            675     8.77526e-10 
            685      1.53807e-9 
            695      2.64797e-9 
            705      4.47944e-9 
            716      7.84167e-9 
            726      1.28298e-8 
            735      1.97317e-8 
            745      3.14036e-8 
            755      4.92959e-8 
            765      7.63598e-8 
            775      1.16777e-7 
            785      1.76436e-7 
            795      2.63068e-7 
            805      3.88731e-7 
            815      5.67852e-7 
            825      8.20682e-7 
            835       1.1744e-6 
            845      1.66436e-6 
            855      2.33672e-6 
            865      3.25123e-6 
            875      4.48321e-6 
            885      6.13464e-6 
            895      8.32447e-6 
            905       1.1204e-5 
            915       0.0407186 
            925        0.178334 
            935         0.23858 
            945        0.337651 
            955         0.48168 
            965        0.607678 
            975        0.618421 
            985         1.02179 
            995          1.2428 
           1005         1.61807 
           1015         1.78085 
           1025         1.89275 
           1035         2.96745 
           1045         3.97213 
           1055         4.96134 
           1065         5.97632 
           1075         7.42522 
           1085         9.09066 
           1095         10.7509 
           1105         31.0603 
           1115         83.4079 
           1125         106.617 
           1135         133.552 
           1145         147.295 
           1155          138.17 
           1165         147.613 
           1175         132.491 
           1185         245.259 
           1195         46.6287 
           1205         29.5411 
           1215         8.81453 
           1225         34.9484 
           1235         89.5026 
           1245         169.265 
           1255         306.593 
           1265         448.386 
           1275         663.229 
           1285         1010.32 
           1295         1389.74 
           1305         1554.99 
           1315         2216.07 
           1325         2826.72 
           1335         3460.32 
           1345         4340.14 
           1355         4988.93 
           1365         6000.66 
           1375         7049.29 
           1385         8211.27 
           1395          9705.4 
           1405         11639.9 
           1415         14372.2 
           1425         17097.3 
           1435         18693.5 
           1442         24132.6 
           1447         24829.7 
           1455         31844.6 
           1465         33170.1 
           1475         38744.4 
           1485         46441.5 
           1495         56274.5 
           1505         67805.6 
           1512         70212.9 
           1517           46410 
           1525         50578.3 
           1535          126111 
           1545          222516 
           1555          210549 
           1565          164152 
           1575          199981 
           1585          200120 
           1595          203601 
           1605          209539 
           1615          326793 
           1625          526640 
           1635          868815 
           1645      1.48769e+6 
           1655      1.09176e+6 
           1665      2.11316e+6 
           1672      1.34604e+6 
           1677      2.84229e+6 
           1685      3.21143e+6 
           1695      3.33664e+6 
           1705      3.52985e+6 
           1715       4.1829e+6 
           1725      4.25469e+6 
           1735      4.85694e+6 
           1745      4.69825e+6 
           1755      5.38755e+6 
           1765      4.46431e+6 
           1775      5.22247e+6 
           1785       5.3261e+6 
           1795      6.13379e+6 
           1805       5.3772e+6 
           1815      5.81409e+6 
           1825       5.1264e+6 
           1835      5.49807e+6 
           1845      4.98609e+6 
           1855      5.40238e+6 
           1865      5.66736e+6 
           1875      5.77274e+6 
           1885      5.94141e+6 
           1895      6.15016e+6 
           1905      5.71661e+6 
           1915      6.33723e+6 
           1925      6.56354e+6 
           1935      5.88272e+6 
           1945       6.8744e+6 
           1955      6.88783e+6 
           1967      7.24192e+6 
           1976      6.99114e+6 
           1984      6.97182e+6 
           1995      6.86571e+6 
           2005      6.65832e+6 
           2015      6.67201e+6 
           2025      6.22134e+6 
           2035      6.94396e+6 
           2045      7.37969e+6 
           2055      7.04006e+6 
           2065      6.96824e+6 
           2074      7.75341e+6 
           2078      7.94065e+6 
           2085      7.76575e+6 
           2095      7.53472e+6 
           2105      7.28339e+6 
           2115      7.41302e+6 
           2125      7.55557e+6 
           2135      6.30309e+6 
           2145      7.33353e+6 
           2155      7.34635e+6 
           2165      6.96816e+6 
           2175       6.9927e+6 
           2185      7.30429e+6 
           2195      7.89814e+6 
           2205      7.62319e+6 
           2215      6.95205e+6 
           2225      7.07759e+6 
           2235       8.0931e+6 
           2245      7.28975e+6 
           2255      7.01906e+6 
           2265      6.92821e+6 
           2275      7.60283e+6 
           2285      7.84813e+6 
           2295       7.2885e+6 
           2305      7.59482e+6 
           2315      7.60035e+6 
           2325      7.51211e+6 
           2335      6.96216e+6 
           2345      6.05553e+6 
           2355      7.57803e+6 
           2365      6.38899e+6 
           2375      7.27729e+6 
           2385      5.70708e+6 
           2395      6.56909e+6 
           2405      6.37109e+6 
           2415      6.65194e+6 
           2425      7.68049e+6 
           2435      7.48665e+6 
           2445      7.88935e+6 
           2455      7.74333e+6 
           2465      7.77673e+6 
           2475      7.33763e+6 
           2485      7.65938e+6 
           2495      7.48917e+6 
           2505      8.49754e+6 
           2513      7.50754e+6 
           2518      7.61858e+6 
           2525      7.01209e+6 
           2535       6.7599e+6 
           2545      6.91977e+6 
           2555      7.60439e+6 
           2565      7.57155e+6 
           2575      8.21738e+6 
           2585      8.24131e+6 
           2595      8.05876e+6 
           2605      7.68223e+6 
           2615      7.47705e+6 
           2625      8.35509e+6 
           2635      8.55983e+6 
           2645      9.86192e+6 
           2655      9.89519e+6 
           2665       9.0896e+6 
           2675      9.47085e+6 
           2685      9.63298e+6 
           2695      9.04396e+6 
           2705      9.26606e+6 
           2715      8.72569e+6 
           2725      8.84897e+6 
           2735      9.51868e+6 
           2745      7.81105e+6 
           2755       8.3049e+6 
           2765      8.72341e+6 
           2775      9.44634e+6 
           2785      8.87591e+6 
           2795      4.61159e+6 
           2805       5.6356e+6 
           2815      9.72889e+6 
           2825       1.0026e+7 
           2835      9.84147e+6 
           2845      9.57599e+6 
           2855      8.99831e+6 
           2865      9.80351e+6 
           2875      9.64838e+6 
           2885      9.92243e+6 
           2895       9.6778e+6 
           2910      1.06358e+7 
           2930      1.03691e+7 
           2950      1.03476e+7 
           2970      1.06067e+7 
           2990      1.07236e+7 
           3010      1.08789e+7 
           3030       1.0927e+7 
           3050      1.09291e+7 
           3070      1.08815e+7 
           3090      1.11333e+7 
           3110      1.09586e+7 
           3130      1.10071e+7 
           3150      1.12569e+7 
           3170      1.13181e+7 
           3190      1.08609e+7 
           3210      1.11639e+7 
           3230       1.0903e+7 
           3250      1.12286e+7 
           3270      1.13626e+7 
           3290       1.1591e+7 
           3310      1.17137e+7 
           3330      1.14997e+7 
           3350      1.13665e+7 
           3370       1.1438e+7 
           3390      1.14913e+7 
           3410      1.17482e+7 
           3430      1.18838e+7 
           3450      1.18047e+7 
           3470      1.17181e+7 
           3490      1.17441e+7 
           3510      1.19537e+7 
           3530      1.20418e+7 
           3550       1.2183e+7 
           3570      1.19144e+7 
           3590      1.19212e+7 
           3610      1.20109e+7 
           3630      1.21016e+7 
           3640          1.2e+7 
           3650      1.22705e+7 
           3670      1.21218e+7 
           3690      1.26144e+7 
           3710      1.58779e+7 
           3730      1.96581e+7 
           3750      2.70308e+7 
           3770      2.86664e+7 
           3790      3.44966e+7 
           3810       3.9479e+7 
           3830      3.14787e+7 
           3850      4.24829e+7 
           3870      4.61099e+7 
           3890      2.88943e+7 
           3910      4.53314e+7 
           3930      4.00075e+7 
           3950      4.52051e+7 
           3970      2.65488e+7 
           3990      4.42252e+7 
           4010      4.68238e+7 
           4030       4.6402e+7 
           4050      4.59471e+7 
           4070      4.45437e+7 
           4090      3.81006e+7 
           4110      2.98893e+7 
           4130       4.2996e+7 
           4150      4.38163e+7 
           4170      4.30894e+7 
           4190      4.27498e+7 
           4210      4.24466e+7 
           4230      4.16567e+7 
           4250      4.14282e+7 
           4270      4.08737e+7 
           4290      4.01455e+7 
           4310      3.80601e+7 
           4330      3.22037e+7 
           4350      2.78468e+7 
           4370      3.82709e+7 
           4390      3.81439e+7 
           4410      3.76185e+7 
           4430      3.79035e+7 
           4450      3.74171e+7 
           4470      3.71395e+7 
           4490      3.68132e+7 
           4510      3.66541e+7 
           4530      3.59401e+7 
           4550      3.52463e+7 
           4570      3.55807e+7 
           4590      3.50245e+7 
           4610      3.52903e+7 
           4630      3.45713e+7 
           4650      3.45551e+7 
           4670      3.42477e+7 
           4690      3.37918e+7 
           4710      3.29399e+7 
           4730      3.32664e+7 
           4750       3.3027e+7 
           4770      3.26165e+7 
           4790      3.22199e+7 
           4810      3.18043e+7 
           4830      3.10247e+7 
           4850      2.64547e+7 
           4870      2.17505e+7 
           4890       2.9734e+7 
           4910      3.02829e+7 
           4930        2.983e+7 
           4950      2.98985e+7 
           4970      2.98109e+7 
           4990      2.93681e+7 
           5010      2.87379e+7 
           5030       2.8885e+7 
           5050      2.85769e+7 
           5070      2.84369e+7 
           5090      2.81761e+7 
           5110       2.7943e+7 
           5130      2.75867e+7 
           5150      2.72904e+7 
           5170      2.65878e+7 
           5190      2.63931e+7 
           5210      2.64837e+7 
           5230      2.60914e+7 
           5250      2.62388e+7 
           5270      2.54988e+7 
           5290       2.5752e+7 
           5310      2.54007e+7 
           5330      2.50155e+7 
           5350      2.51249e+7 
           5370      2.48101e+7 
           5390      2.45978e+7 
           5410      2.43287e+7 
           5430      2.41486e+7 
           5450      2.40123e+7 
           5470      2.38521e+7 
           5490      2.36586e+7 
           5510      2.34711e+7 
           5530      2.31956e+7 
           5550      2.31181e+7 
           5570      2.28819e+7 
           5590      2.26305e+7 
           5610      2.24897e+7 
           5630      2.23564e+7 
           5650      2.21465e+7 
           5670       2.1946e+7 
           5690      2.17989e+7 
           5710      2.16118e+7 
           5730      2.14681e+7 
           5750      2.12735e+7 
           5770      2.11115e+7 
           5790      2.09345e+7 
           5810      2.07694e+7 
           5830       2.0605e+7 
           5850      2.04236e+7 
           5870      2.02672e+7 
           5890      1.99289e+7 
           5910      1.99452e+7 
           5930      1.97873e+7 
           5950      1.96258e+7 
           5970      1.94744e+7 
           5990        1.931e+7 
           6010      1.91545e+7 
           6030      1.90049e+7 
           6050      1.88599e+7 
           6070      1.87225e+7 
           6090      1.85693e+7 
           6110      1.84146e+7 
           6130      1.82325e+7 
           6150      1.80454e+7 
           6170      1.79177e+7 
           6190      1.78591e+7 
           6210      1.77218e+7 
           6230      1.75665e+7 
           6250      1.73616e+7 
           6270      1.73181e+7 
           6290      1.71872e+7 
           6310      1.70359e+7 
           6330      1.69152e+7 
           6350      1.67434e+7 
           6370       1.6631e+7 
           6390      1.65363e+7 
           6410      1.63847e+7 
           6430      1.62784e+7 
           6450      1.60743e+7 
           6470      1.60129e+7 
           6490       1.5816e+7 
           6510      1.57029e+7 
           6530      1.54426e+7 
           6550      1.41401e+7 
           6570      1.14498e+7 
           6590      1.48721e+7 
           6610      1.51004e+7 
           6630       1.5066e+7 
           6650      1.49917e+7 
           6670        1.489e+7 
           6690      1.47868e+7 
           6710      1.46762e+7 
           6730      1.45692e+7 
           6750       1.4449e+7 
           6770      1.43622e+7 
           6790      1.42548e+7 
           6810      1.41525e+7 
           6830      1.40455e+7 
           6850       1.3946e+7 
           6870      1.38489e+7 
           6890      1.37496e+7 
           6910      1.36512e+7 
           6930      1.35513e+7 
           6950      1.34555e+7 
           6970      1.33582e+7 
           6990      1.32649e+7 
           7010      1.31533e+7 
           7030      1.30717e+7 
           7050      1.29832e+7 
           7070      1.28918e+7 
           7090      1.28012e+7 
           7110      1.26779e+7 
           7130      1.26142e+7 
           7150      1.25217e+7 
           7170      1.24365e+7 
           7190       1.2347e+7 
           7210       1.2259e+7 
           7230      1.21762e+7 
           7250      1.20919e+7 
           7270      1.20141e+7 
           7290      1.19206e+7 
           7310      1.18413e+7 
           7330      1.17572e+7 
           7350      1.16835e+7 
           7370      1.16063e+7 
           7390      1.15222e+7 
           7410      1.14299e+7 
           7430      1.13555e+7 
           7450       1.1281e+7 
           7470      1.11971e+7 
           7490      1.11246e+7 
           7510       1.1054e+7 
           7530      1.09834e+7 
           7550      1.09121e+7 
           7570      1.08342e+7 
           7590      1.07647e+7 
           7610      1.06906e+7 
           7630      1.06198e+7 
           7650      1.05437e+7 
           7670      1.04683e+7 
           7690      1.04006e+7 
           7710      1.03283e+7 
           7730      1.02661e+7 
           7750      1.01956e+7 
           7770      1.00065e+7 
           7790      1.00651e+7 
           7810      9.99632e+6 
           7830       9.9275e+6 
           7850      9.85803e+6 
           7870      9.78852e+6 
           7890      9.71778e+6 
           7910      9.66629e+6 
           7930      9.59303e+6 
           7950      9.53171e+6 
           7970      9.48215e+6 
           7990      9.40406e+6 
           8010      9.35716e+6 
           8030      9.29424e+6 
           8050      9.23475e+6 
           8070      9.17515e+6 
           8090      9.11487e+6 
           8110      9.05794e+6 
           8130      8.99975e+6 
           8150      8.94146e+6 
           8170      8.88362e+6 
           8190      8.79817e+6 
           8210      8.76988e+6 
           8230      8.71229e+6 
           8250      8.64575e+6 
           8270      8.62822e+6 
           8290      8.57129e+6 
           8310       8.5028e+6 
           8330      8.40176e+6 
           8350      8.38371e+6 
           8370       8.2555e+6 
           8390      8.20763e+6 
           8410      8.13082e+6 
           8430      8.19725e+6 
           8450      8.10151e+6 
           8470      7.82069e+6 
           8490      8.32326e+6 
           8510      7.58556e+6 
           8530      8.37845e+6 
           8550      7.22667e+6 
           8570      8.46918e+6 
           8590      7.96008e+6 
           8610      7.70716e+6 
           8630      8.56073e+6 
           8650      8.35302e+6 
           8670      6.95183e+6 
           8690      8.42147e+6 
           8710      8.58793e+6 
           8730        8.386e+6 
           8750      6.93748e+6 
           8770      8.10934e+6 
           8790      8.42842e+6 
           8810      8.38049e+6 
           8830      8.29184e+6 
           8850      7.79553e+6 
           8870      6.74721e+6 
           8890      8.03252e+6 
           8910      8.11656e+6 
           8930      8.08874e+6 
           8950      8.08791e+6 
           8970      8.01021e+6 
           8990      7.82871e+6 
           9010      6.61851e+6 
           9030       7.2037e+6 
           9050      7.74641e+6 
           9070      7.70495e+6 
           9090      7.61637e+6 
           9110      7.67557e+6 
           9130      7.67226e+6 
           9150      7.61401e+6 
           9170       7.5535e+6 
           9190      7.46312e+6 
           9210      7.16737e+6 
           9230      5.94415e+6 
           9250      6.98003e+6 
           9270      7.20071e+6 
           9290      7.27843e+6 
           9310      7.25285e+6 
           9330      7.21616e+6 
           9350      7.17498e+6 
           9370      7.13237e+6 
           9390      7.08535e+6 
           9410      6.95614e+6 
           9430      6.98385e+6 
           9450      6.95221e+6 
