# Kurucz ODFNEW /NOVER (2003)
# teff = 7500 K (value for the effective temperature for the model. Temperatures are given in K)
# logg = 0.5 log(cm/s2) (value for Log(G) for the model.)
# meta = -0.5  (value for the Metallicity for the model.)
# lh = 1.25  (l/Hp where l is the  mixing length of the convective element and Hp is the pressure scale height)
# vtur = 2 km/s (Microturbulence velocity)
# alpha = 0.4  (Alpha)
#
# column 1: WAVELENGTH (ANGSTROM), Wavelength in Angstrom
# column 2: FLUX (ERG/CM2/S/A), Flux in erg/cm2/s/A
            395     3.00007e-23 
            405     2.39692e-22 
            414     1.32017e-21 
            422     5.62226e-21 
            430     2.26323e-20 
            441     1.41011e-19 
            451     6.86667e-19 
            460     2.68553e-18 
            470       1.147e-17 
            480      4.6012e-17 
            490     1.74024e-16 
            500     6.22854e-16 
            506     1.24187e-15 
            512     2.64399e-15 
            520       6.741e-15 
            530     2.11553e-14 
            540     6.25802e-14 
            550     1.77654e-13 
            560     4.85111e-13 
            570     1.27675e-12 
            580     3.19346e-12 
            590     7.97982e-12 
            600     1.90154e-11 
            610     4.39815e-11 
            620     9.88768e-11 
            630     2.16384e-10 
            640     4.61494e-10 
            650     9.60415e-10 
            658      1.69734e-9 
            665      2.76082e-9 
            675       5.4302e-9 
            685      1.04607e-8 
            695      1.97527e-8 
            705      3.60126e-8 
            716      3.39629e-9 
            726      5.74569e-9 
            735      9.09841e-9 
            745      1.49409e-8 
            755       2.4187e-8 
            765      3.86105e-8 
            775      6.08061e-8 
            785       9.4582e-8 
            795      1.44058e-7 
            805      2.19582e-7 
            815      3.30122e-7 
            825       4.8973e-7 
            835      7.18581e-7 
            845      1.04394e-6 
            855      1.50135e-6 
            865      2.13876e-6 
            875      3.01113e-6 
            885      4.22263e-6 
            895      5.85723e-6 
            905      8.03435e-6 
            915        0.016487 
            925       0.0545528 
            935       0.0691168 
            945       0.0955044 
            955        0.139568 
            965        0.182449 
            975        0.217012 
            985        0.299306 
            995        0.364296 
           1005         0.50197 
           1015        0.628416 
           1025        0.770581 
           1035         1.00124 
           1045         1.28126 
           1055         1.60304 
           1065          1.9238 
           1075         2.42548 
           1085         2.98273 
           1095         3.51869 
           1105         12.2199 
           1115         40.3509 
           1125         57.4311 
           1135         74.3384 
           1145         86.5427 
           1155         86.8156 
           1165          102.25 
           1175         99.3597 
           1185         133.283 
           1195         26.3453 
           1205         20.0353 
           1215         4.69385 
           1225         23.5672 
           1235         69.7896 
           1245         178.735 
           1255         359.263 
           1265         397.488 
           1275         798.846 
           1285         1292.77 
           1295         1734.37 
           1305         1242.28 
           1315         2665.08 
           1325         3590.21 
           1335         4034.64 
           1345         5608.17 
           1355         6168.76 
           1365         6820.75 
           1375          7883.2 
           1385         9468.59 
           1395         11348.6 
           1405         13175.4 
           1415         13724.6 
           1425         16464.3 
           1435         16778.3 
           1442         19744.5 
           1447           22138 
           1455         25872.5 
           1465         26721.1 
           1475         29329.7 
           1485         33777.5 
           1495         39550.2 
           1505         44109.3 
           1512         44247.3 
           1517           49779 
           1525         52872.1 
           1535          334100 
           1545      1.19747e+6 
           1555      1.05195e+6 
           1565          900053 
           1575      1.44505e+6 
           1585      1.72017e+6 
           1595      2.38667e+6 
           1605      1.98615e+6 
           1615      1.78729e+6 
           1625      1.54251e+6 
           1635      1.74665e+6 
           1645      2.21581e+6 
           1655      1.37449e+6 
           1665      2.02197e+6 
           1672          545854 
           1677       2.4735e+6 
           1685      3.57049e+6 
           1695       3.7944e+6 
           1705      3.32004e+6 
           1715      4.10746e+6 
           1725      4.33357e+6 
           1735      5.20323e+6 
           1745      4.70419e+6 
           1755      5.96316e+6 
           1765      4.84029e+6 
           1775      5.96394e+6 
           1785      5.25457e+6 
           1795      7.24585e+6 
           1805      6.02462e+6 
           1815      6.77312e+6 
           1825      5.78799e+6 
           1835      5.45298e+6 
           1845      5.23787e+6 
           1855      5.90183e+6 
           1865      6.25885e+6 
           1875      6.27949e+6 
           1885      6.54745e+6 
           1895      6.98366e+6 
           1905      6.19809e+6 
           1915      6.86177e+6 
           1925      7.23991e+6 
           1935      6.12149e+6 
           1945      7.66201e+6 
           1955      7.78687e+6 
           1967      8.29263e+6 
           1976       8.0928e+6 
           1984       7.8729e+6 
           1995      7.70501e+6 
           2005      7.45629e+6 
           2015      6.86575e+6 
           2025      6.64027e+6 
           2035      7.58112e+6 
           2045      8.27584e+6 
           2055      7.14319e+6 
           2065      7.06304e+6 
           2074      8.72793e+6 
           2078      9.11706e+6 
           2085       8.7119e+6 
           2095      8.30285e+6 
           2105      7.76164e+6 
           2115      7.82274e+6 
           2125      8.05322e+6 
           2135      6.05605e+6 
           2145      7.51031e+6 
           2155      7.82934e+6 
           2165      7.10559e+6 
           2175      7.17945e+6 
           2185      7.40032e+6 
           2195      8.19996e+6 
           2205      7.80497e+6 
           2215      6.64099e+6 
           2225      6.42908e+6 
           2235      8.02371e+6 
           2245      7.10498e+6 
           2255      6.36355e+6 
           2265       6.4108e+6 
           2275      7.37427e+6 
           2285      7.70022e+6 
           2295      7.02665e+6 
           2305      7.33956e+6 
           2315      6.94203e+6 
           2325      6.60939e+6 
           2335      4.91525e+6 
           2345      3.96479e+6 
           2355      6.20079e+6 
           2365      3.99958e+6 
           2375      5.36473e+6 
           2385      3.20082e+6 
           2395      4.27063e+6 
           2405      4.01218e+6 
           2415      4.92533e+6 
           2425      7.04627e+6 
           2435      6.80298e+6 
           2445      7.30769e+6 
           2455      7.12889e+6 
           2465       6.9546e+6 
           2475      6.57749e+6 
           2485      7.00234e+6 
           2495      6.76476e+6 
           2505        8.258e+6 
           2513      6.58468e+6 
           2518      7.10699e+6 
           2525      6.01231e+6 
           2535      5.82802e+6 
           2545      6.01066e+6 
           2555      6.85936e+6 
           2565      6.26658e+6 
           2575      7.12537e+6 
           2585       6.6244e+6 
           2595      6.06938e+6 
           2605      5.39949e+6 
           2615      5.11455e+6 
           2625       6.4317e+6 
           2635      7.29669e+6 
           2645      9.90554e+6 
           2655      9.83908e+6 
           2665      8.33531e+6 
           2675      8.99281e+6 
           2685      8.80471e+6 
           2695      8.44643e+6 
           2705      8.78054e+6 
           2715       7.8129e+6 
           2725      7.96215e+6 
           2735      8.67811e+6 
           2745      5.62317e+6 
           2755      6.40041e+6 
           2765      6.98691e+6 
           2775      8.02613e+6 
           2785        6.102e+6 
           2795      2.11001e+6 
           2805      2.76834e+6 
           2815      7.34896e+6 
           2825      9.15551e+6 
           2835      9.04275e+6 
           2845      8.82105e+6 
           2855      8.11692e+6 
           2865      9.43955e+6 
           2875      9.07045e+6 
           2885      9.39014e+6 
           2895      8.88397e+6 
           2910      1.05121e+7 
           2930      1.00211e+7 
           2950      1.00523e+7 
           2970      1.06601e+7 
           2990      1.08614e+7 
           3010      1.12643e+7 
           3030      1.11629e+7 
           3050      1.10409e+7 
           3070      1.09255e+7 
           3090      1.14876e+7 
           3110       1.1054e+7 
           3130      1.10551e+7 
           3150        1.155e+7 
           3170      1.15322e+7 
           3190      1.08164e+7 
           3210      1.14253e+7 
           3230      1.09665e+7 
           3250      1.14786e+7 
           3270      1.16254e+7 
           3290      1.19063e+7 
           3310      1.21662e+7 
           3330      1.18187e+7 
           3350      1.16085e+7 
           3370      1.16281e+7 
           3390      1.18227e+7 
           3410      1.23048e+7 
           3430      1.25284e+7 
           3450      1.24279e+7 
           3470       1.2225e+7 
           3490      1.21106e+7 
           3510      1.25528e+7 
           3530      1.27728e+7 
           3550      1.29964e+7 
           3570       1.2537e+7 
           3590      1.25836e+7 
           3610      1.27108e+7 
           3630      1.28395e+7 
           3640      1.26158e+7 
           3650      1.30787e+7 
           3670       1.3162e+7 
           3690      1.49952e+7 
           3710      2.15709e+7 
           3730      3.69611e+7 
           3750      4.63916e+7 
           3770      4.64096e+7 
           3790      5.11141e+7 
           3810      5.49467e+7 
           3830      4.65567e+7 
           3850      5.49648e+7 
           3870      5.55753e+7 
           3890      4.70212e+7 
           3910      5.32735e+7 
           3930      3.81415e+7 
           3950      5.23836e+7 
           3970      3.80485e+7 
           3990      5.38658e+7 
           4010      5.37234e+7 
           4030      5.28946e+7 
           4050      5.27708e+7 
           4070      5.20374e+7 
           4090      5.24193e+7 
           4110      4.41515e+7 
           4130      5.09958e+7 
           4150      5.15117e+7 
           4170      4.95607e+7 
           4190      4.97604e+7 
           4210      4.94821e+7 
           4230      4.88469e+7 
           4250       4.8505e+7 
           4270      4.78203e+7 
           4290      4.73959e+7 
           4310      4.52535e+7 
           4330      4.45571e+7 
           4350      3.97465e+7 
           4370      4.63531e+7 
           4390      4.48527e+7 
           4410      4.38947e+7 
           4430        4.482e+7 
           4450      4.44504e+7 
           4470      4.41874e+7 
           4490      4.36638e+7 
           4510      4.38126e+7 
           4530      4.26758e+7 
           4550      4.16299e+7 
           4570      4.27166e+7 
           4590      4.14672e+7 
           4610      4.26894e+7 
           4630      4.13021e+7 
           4650      4.17351e+7 
           4670      4.12869e+7 
           4690      4.08944e+7 
           4710      3.95866e+7 
           4730      4.02966e+7 
           4750      4.03069e+7 
           4770      3.95507e+7 
           4790      3.91834e+7 
           4810      3.88061e+7 
           4830      3.84305e+7 
           4850      3.61891e+7 
           4870      3.02376e+7 
           4890      3.73104e+7 
           4910      3.71243e+7 
           4930      3.63804e+7 
           4950      3.65513e+7 
           4970      3.65048e+7 
           4990      3.56318e+7 
           5010      3.45239e+7 
           5030      3.49155e+7 
           5050      3.45907e+7 
           5070      3.45616e+7 
           5090      3.43153e+7 
           5110      3.39808e+7 
           5130      3.32812e+7 
           5150      3.29238e+7 
           5170      3.21072e+7 
           5190      3.17385e+7 
           5210       3.1963e+7 
           5230      3.13417e+7 
           5250      3.16282e+7 
           5270      3.04214e+7 
           5290      3.10857e+7 
           5310      3.03763e+7 
           5330       2.9926e+7 
           5350      3.04661e+7 
           5370      2.99979e+7 
           5390      2.96045e+7 
           5410      2.92856e+7 
           5430      2.89297e+7 
           5450      2.90488e+7 
           5470      2.87827e+7 
           5490      2.85221e+7 
           5510       2.8241e+7 
           5530      2.78671e+7 
           5550      2.79246e+7 
           5570      2.76042e+7 
           5590      2.73347e+7 
           5610      2.71557e+7 
           5630      2.69513e+7 
           5650      2.65366e+7 
           5670      2.63169e+7 
           5690      2.62253e+7 
           5710      2.60003e+7 
           5730      2.58157e+7 
           5750      2.55475e+7 
           5770      2.53515e+7 
           5790      2.50957e+7 
           5810      2.48853e+7 
           5830      2.46528e+7 
           5850      2.44559e+7 
           5870      2.42305e+7 
           5890      2.37611e+7 
           5910      2.38033e+7 
           5930      2.35959e+7 
           5950      2.33279e+7 
           5970       2.3192e+7 
           5990      2.28809e+7 
           6010      2.27497e+7 
           6030      2.25773e+7 
           6050      2.23521e+7 
           6070       2.2202e+7 
           6090      2.19823e+7 
           6110      2.17679e+7 
           6130      2.15459e+7 
           6150      2.10375e+7 
           6170      2.11517e+7 
           6190      2.10673e+7 
           6210      2.08898e+7 
           6230      2.06472e+7 
           6250      2.01729e+7 
           6270      2.03741e+7 
           6290      2.01952e+7 
           6310      1.99217e+7 
           6330       1.9827e+7 
           6350      1.94856e+7 
           6370      1.93485e+7 
           6390      1.93236e+7 
           6410       1.9084e+7 
           6430      1.89828e+7 
           6450      1.86126e+7 
           6470      1.86984e+7 
           6490      1.83633e+7 
           6510       1.8256e+7 
           6530      1.81107e+7 
           6550      1.69211e+7 
           6570      1.34267e+7 
           6590      1.75187e+7 
           6610      1.75267e+7 
           6630      1.74914e+7 
           6650      1.73693e+7 
           6670      1.72145e+7 
           6690      1.70772e+7 
           6710      1.69421e+7 
           6730      1.67725e+7 
           6750      1.66435e+7 
           6770      1.65486e+7 
           6790      1.63924e+7 
           6810        1.628e+7 
           6830      1.61105e+7 
           6850      1.60045e+7 
           6870      1.58883e+7 
           6890      1.57621e+7 
           6910      1.56339e+7 
           6930      1.55022e+7 
           6950      1.53866e+7 
           6970      1.52573e+7 
           6990      1.51432e+7 
           7010      1.49289e+7 
           7030      1.48974e+7 
           7050      1.47827e+7 
           7070      1.46698e+7 
           7090      1.45616e+7 
           7110      1.43382e+7 
           7130      1.43083e+7 
           7150      1.41871e+7 
           7170      1.40934e+7 
           7190      1.39699e+7 
           7210      1.38534e+7 
           7230      1.37293e+7 
           7250      1.36429e+7 
           7270      1.35587e+7 
           7290      1.34255e+7 
           7310      1.32958e+7 
           7330      1.32205e+7 
           7350      1.31256e+7 
           7370      1.30594e+7 
           7390      1.29453e+7 
           7410      1.28179e+7 
           7430      1.27005e+7 
           7450      1.26216e+7 
           7470      1.24886e+7 
           7490      1.24294e+7 
           7510      1.23385e+7 
           7530      1.22724e+7 
           7550      1.21989e+7 
           7570      1.20786e+7 
           7590      1.20144e+7 
           7610      1.19266e+7 
           7630      1.18376e+7 
           7650       1.1725e+7 
           7670      1.16434e+7 
           7690      1.15619e+7 
           7710      1.14462e+7 
           7730      1.14028e+7 
           7750      1.13165e+7 
           7770        1.098e+7 
           7790      1.11583e+7 
           7810      1.10722e+7 
           7830      1.09826e+7 
           7850      1.08814e+7 
           7870        1.078e+7 
           7890       1.0677e+7 
           7910      1.06562e+7 
           7930      1.05755e+7 
           7950      1.04628e+7 
           7970      1.04501e+7 
           7990      1.02556e+7 
           8010      1.02955e+7 
           8030      1.02174e+7 
           8050      1.01492e+7 
           8070      1.00735e+7 
           8090      1.00042e+7 
           8110      9.93258e+6 
           8130      9.86895e+6 
           8150      9.79959e+6 
           8170      9.72966e+6 
           8190      9.59065e+6 
           8210      9.56522e+6 
           8230      9.49598e+6 
           8250      9.42785e+6 
           8270      9.44014e+6 
           8290      9.34641e+6 
           8310      9.22619e+6 
           8330      9.07336e+6 
           8350      9.16881e+6 
           8370      8.89327e+6 
           8390      9.03449e+6 
           8410      9.01501e+6 
           8430      9.31209e+6 
           8450      9.10609e+6 
           8470      8.91452e+6 
           8490      9.66962e+6 
           8510      8.70555e+6 
           8530      9.85149e+6 
           8550      8.20943e+6 
           8570      1.00947e+7 
           8590      9.63725e+6 
           8610       9.3674e+6 
           8630      1.03337e+7 
           8650      1.01817e+7 
           8670      8.21129e+6 
           8690      9.98694e+6 
           8710      1.01115e+7 
           8730      9.98856e+6 
           8750      8.45252e+6 
           8770      9.80851e+6 
           8790       9.8551e+6 
           8810      9.73178e+6 
           8830      9.63701e+6 
           8850      9.41793e+6 
           8870      8.15976e+6 
           8890      9.46923e+6 
           8910      9.37741e+6 
           8930       9.3005e+6 
           8950        9.322e+6 
           8970      9.25426e+6 
           8990      9.14227e+6 
           9010       7.9527e+6 
           9030      8.69092e+6 
           9050      8.99155e+6 
           9070      8.77701e+6 
           9090      8.65089e+6 
           9110      8.74368e+6 
           9130      8.74202e+6 
           9150      8.70565e+6 
           9170      8.63232e+6 
           9190      8.55018e+6 
           9210      8.38651e+6 
           9230      7.05321e+6 
           9250      8.15739e+6 
           9270      8.11653e+6 
           9290      8.28984e+6 
           9310      8.24035e+6 
           9330      8.17347e+6 
           9350      8.13078e+6 
           9370      8.08066e+6 
           9390      7.99244e+6 
           9410      7.79896e+6 
           9430      7.86462e+6 
           9450      7.84824e+6 
           9470      7.80546e+6 
           9490      7.75712e+6 
