# Kurucz ODFNEW /NOVER (2003)
# teff = 27000 K (value for the effective temperature for the model. Temperatures are given in K)
# logg = 4 log(cm/s2) (value for Log(G) for the model.)
# meta = -1.5  (value for the Metallicity for the model.)
# lh = 1.25  (l/Hp where l is the  mixing length of the convective element and Hp is the pressure scale height)
# vtur = 2 km/s (Microturbulence velocity)
# alpha = 0  (Alpha)
#
# column 1: WAVELENGTH (ANGSTROM), Wavelength in Angstrom
# column 2: FLUX (ERG/CM2/S/A), Flux in erg/cm2/s/A
          147.2     6.74182e-12 
            151      2.7586e-11 
          155.2     1.20839e-10 
          158.8     4.02986e-10 
            162      1.12433e-9 
            166      3.83333e-9 
          170.3      1.34353e-8 
          173.4      3.19187e-8 
          176.8      7.95491e-8 
          180.2      1.91474e-7 
          181.7      2.79179e-7 
          186.1      8.14511e-7 
            191      2.52922e-6 
          193.9      4.81227e-6 
          198.4      1.25693e-5 
          201.8      2.52126e-5 
            205      4.75114e-5 
          210.5     0.000134979 
          216.2     0.000375896 
          219.8     0.000697579 
            223      0.00118824 
          226.8      0.00219271 
            230        0.198086 
            234        0.472859 
            240         1.00841 
          246.5         2.21782 
          252.4         4.41325 
          256.8         6.44447 
            260         10.0039 
            264         14.8198 
          268.5          23.251 
          273.5         37.4119 
          278.5         59.0529 
            284         96.7233 
            290         159.494 
            296         257.346 
            301         370.571 
            308         577.699 
            318         1280.24 
            328          2426.1 
            338         4524.62 
            348         8009.67 
            357         13366.4 
            366         21474.2 
            375         32517.3 
            385         51724.2 
            395         79370.9 
            405          118659 
            414          168769 
            422          223646 
            430          295862 
            441          427964 
            451          589503 
            460          767524 
            470      1.02955e+6 
            480      1.35003e+6 
            490      1.75451e+6 
            500      2.25706e+6 
            506      1.42887e+7 
            512      4.59171e+7 
            520      5.08027e+7 
            530      5.97993e+7 
            540      6.10196e+7 
            550      7.71766e+7 
            560      8.56339e+7 
            570        9.748e+7 
            580      9.57715e+7 
            590      1.15735e+8 
            600      1.27648e+8 
            610      1.41965e+8 
            620      1.54063e+8 
            630      1.68365e+8 
            640      1.75304e+8 
            650      1.91798e+8 
            658      2.07227e+8 
            665      2.19457e+8 
            675      2.29076e+8 
            685      2.41232e+8 
            695      2.72783e+8 
            705      2.82904e+8 
            716      3.09926e+8 
            726      3.25241e+8 
            735      3.43762e+8 
            745      3.69823e+8 
            755      3.90612e+8 
            765      4.12376e+8 
            775      4.37003e+8 
            785      4.63446e+8 
            795      4.82624e+8 
            805      5.05833e+8 
            815      5.24356e+8 
            825      5.54667e+8 
            835      5.53241e+8 
            845      5.94779e+8 
            855      6.17279e+8 
            865      6.46239e+8 
            875      6.77855e+8 
            885      7.07355e+8 
            895      7.33212e+8 
            905      7.50216e+8 
            915      1.05861e+9 
            925      7.41945e+9 
            935     1.67774e+10 
            945     3.36191e+10 
            955     3.93585e+10 
            965     4.79516e+10 
            975     2.11258e+10 
            985     4.69638e+10 
            995      4.4023e+10 
           1005     4.59114e+10 
           1015     4.38337e+10 
           1025      2.2984e+10 
           1035     3.99685e+10 
           1045     4.60655e+10 
           1055     4.43773e+10 
           1065     4.02396e+10 
           1075     4.16949e+10 
           1085     3.84658e+10 
           1095     4.08644e+10 
           1105     3.91408e+10 
           1115     3.85055e+10 
           1125     3.55052e+10 
           1135      3.7216e+10 
           1145     3.49797e+10 
           1155     3.54441e+10 
           1165     3.48743e+10 
           1175     2.87767e+10 
           1185     3.28405e+10 
           1195     3.14094e+10 
           1205      2.8249e+10 
           1215      1.5638e+10 
           1225     2.85944e+10 
           1235     2.99783e+10 
           1245     2.91803e+10 
           1255     2.88989e+10 
           1265     2.83449e+10 
           1275     2.81454e+10 
           1285     2.75835e+10 
           1295     2.52834e+10 
           1305     2.55079e+10 
           1315     2.59167e+10 
           1325     2.49862e+10 
           1335     2.40616e+10 
           1345     2.40695e+10 
           1355     2.39064e+10 
           1365     2.30924e+10 
           1375      2.2688e+10 
           1385     2.22947e+10 
           1395     2.04411e+10 
           1405     2.04813e+10 
           1415     2.08006e+10 
           1425     2.02036e+10 
           1435     2.01077e+10 
           1442     2.00416e+10 
           1447     1.97666e+10 
           1455     1.93932e+10 
           1465      1.8917e+10 
           1475     1.85886e+10 
           1485     1.82691e+10 
           1495     1.78704e+10 
           1505     1.72445e+10 
           1512     1.68364e+10 
           1517      1.6814e+10 
           1525     1.65538e+10 
           1535     1.55343e+10 
           1545     1.53177e+10 
           1555     1.48146e+10 
           1565     1.50496e+10 
           1575     1.50655e+10 
           1585     1.48684e+10 
           1595     1.46535e+10 
           1605      1.4062e+10 
           1615     1.37568e+10 
           1625     1.36999e+10 
           1635     1.36248e+10 
           1645     1.31418e+10 
           1655      1.3241e+10 
           1665      1.3056e+10 
           1672     1.27859e+10 
           1677     1.30188e+10 
           1685     1.27475e+10 
           1695     1.24354e+10 
           1705     1.21283e+10 
           1715     1.17801e+10 
           1725     1.16098e+10 
           1735     1.15649e+10 
           1745     1.13461e+10 
           1755     1.12308e+10 
           1765     1.08916e+10 
           1775     1.07166e+10 
           1785     1.06479e+10 
           1795     1.05328e+10 
           1805     1.04375e+10 
           1815     1.01114e+10 
           1825     1.00127e+10 
           1835      9.85059e+9 
           1845      9.34457e+9 
           1855      9.18453e+9 
           1865      9.20014e+9 
           1875      9.19356e+9 
           1885      8.68257e+9 
           1895      8.34779e+9 
           1905       8.5635e+9 
           1915      8.25467e+9 
           1925      8.03757e+9 
           1935       8.1493e+9 
           1945       8.1655e+9 
           1955      7.69885e+9 
           1967      7.84483e+9 
           1976      7.93032e+9 
           1984      7.61746e+9 
           1995      7.38565e+9 
           2005       7.4487e+9 
           2015      7.43359e+9 
           2025      7.40307e+9 
           2035         7.14e+9 
           2045      7.04332e+9 
           2055      6.70178e+9 
           2065      6.61397e+9 
           2074      6.73685e+9 
           2078      6.54343e+9 
           2085      6.57799e+9 
           2095      6.45801e+9 
           2105      6.51625e+9 
           2115      6.46606e+9 
           2125      6.42946e+9 
           2135      6.31854e+9 
           2145      6.17838e+9 
           2155      6.14437e+9 
           2165      6.06451e+9 
           2175      5.97416e+9 
           2185      5.89285e+9 
           2195      5.83466e+9 
           2205       5.7511e+9 
           2215      5.66788e+9 
           2225      5.58547e+9 
           2235      5.49902e+9 
           2245      5.44386e+9 
           2255      5.35153e+9 
           2265       5.2966e+9 
           2275      5.22612e+9 
           2285      5.15811e+9 
           2295      4.99538e+9 
           2305      5.00999e+9 
           2315      4.94086e+9 
           2325      4.87664e+9 
           2335      4.80241e+9 
           2345      4.75359e+9 
           2355      4.69341e+9 
           2365      4.63245e+9 
           2375       4.5672e+9 
           2385      4.50196e+9 
           2395      4.44757e+9 
           2405      4.39177e+9 
           2415      4.33203e+9 
           2425       4.2826e+9 
           2435      4.22068e+9 
           2445      4.17079e+9 
           2455      4.12107e+9 
           2465      4.06829e+9 
           2475      4.01537e+9 
           2485      3.96403e+9 
           2495      3.78616e+9 
           2505      3.86148e+9 
           2513      3.77889e+9 
           2518      3.79598e+9 
           2525       3.7687e+9 
           2535      3.72243e+9 
           2545      3.65467e+9 
           2555      3.62364e+9 
           2565      3.58479e+9 
           2575      3.54274e+9 
           2585      3.49965e+9 
           2595      3.45735e+9 
           2605      3.43458e+9 
           2615      3.39282e+9 
           2625      3.35188e+9 
           2635      3.30733e+9 
           2645      3.26675e+9 
           2655      3.22493e+9 
           2665      3.17844e+9 
           2675      3.13993e+9 
           2685      3.12097e+9 
           2695      3.05745e+9 
           2705      3.04338e+9 
           2715       3.0093e+9 
           2725      2.95397e+9 
           2735      2.93649e+9 
           2745      2.90303e+9 
           2755      2.87147e+9 
           2765      2.81694e+9 
           2775      2.80783e+9 
           2785      2.77444e+9 
           2795      2.71908e+9 
           2805      2.70394e+9 
           2815      2.68148e+9 
           2825      2.62633e+9 
           2835      2.59733e+9 
           2845      2.59144e+9 
           2855      2.56079e+9 
           2865      2.53308e+9 
           2875      2.50487e+9 
           2885      2.47735e+9 
           2895      2.44939e+9 
           2910      2.40774e+9 
           2930       2.3555e+9 
           2950      2.28864e+9 
           2970      2.25434e+9 
           2990      2.20515e+9 
           3010      2.15594e+9 
           3030      2.11276e+9 
           3050      2.06838e+9 
           3070      2.02517e+9 
           3090      1.97753e+9 
           3110      1.94112e+9 
           3130      1.90174e+9 
           3150       1.8629e+9 
           3170      1.82383e+9 
           3190      1.77338e+9 
           3210      1.74996e+9 
           3230      1.71467e+9 
           3250      1.68044e+9 
           3270      1.64853e+9 
           3290      1.61358e+9 
           3310      1.58424e+9 
           3330      1.55297e+9 
           3350      1.52011e+9 
           3370       1.4931e+9 
           3390      1.46452e+9 
           3410      1.43644e+9 
           3430      1.40241e+9 
           3450      1.37091e+9 
           3470      1.34877e+9 
           3490      1.32318e+9 
           3510      1.30231e+9 
           3530      1.28064e+9 
           3550      1.25707e+9 
           3570      1.24019e+9 
           3590      1.20963e+9 
           3610      1.19013e+9 
           3630      1.16613e+9 
           3640      1.16346e+9 
           3650        1.141e+9 
           3670       1.1253e+9 
           3690      1.10082e+9 
           3710      1.06394e+9 
           3730      1.02367e+9 
           3750      1.06465e+9 
           3770      1.05995e+9 
           3790      1.10193e+9 
           3810      1.14017e+9 
           3830      1.00841e+9 
           3850      1.15684e+9 
           3870      1.15568e+9 
           3890      9.56083e+8 
           3910      1.13181e+9 
           3930      1.11127e+9 
           3950      1.09331e+9 
           3970      8.86889e+8 
           3990      1.05062e+9 
           4010      1.03902e+9 
           4030      9.86935e+8 
           4050      1.01313e+9 
           4070      9.88599e+8 
           4090      9.25806e+8 
           4110      8.20628e+8 
           4130      9.30488e+8 
           4150      9.20359e+8 
           4170      9.11249e+8 
           4190      8.97592e+8 
           4210      8.83196e+8 
           4230      8.68274e+8 
           4250      8.52926e+8 
           4270      8.35884e+8 
           4290      8.24444e+8 
           4310      8.07096e+8 
           4330      7.44843e+8 
           4350      6.83359e+8 
           4370      7.66976e+8 
           4390      7.42098e+8 
           4410      7.46191e+8 
           4430      7.32942e+8 
           4450      7.23705e+8 
           4470       6.8651e+8 
           4490      7.00459e+8 
           4510      6.90112e+8 
           4530      6.79148e+8 
           4550      6.67968e+8 
           4570      6.57372e+8 
           4590      6.47185e+8 
           4610      6.37275e+8 
           4630       6.2744e+8 
           4650      6.14946e+8 
           4670      6.07997e+8 
           4690      5.98215e+8 
           4710        5.826e+8 
           4730      5.80883e+8 
           4750      5.71727e+8 
           4770      5.64045e+8 
           4790      5.55536e+8 
           4810      5.46887e+8 
           4830      5.36263e+8 
           4850      5.02621e+8 
           4870      4.53215e+8 
           4890      5.11856e+8 
           4910      5.06882e+8 
           4930       4.8996e+8 
           4950      4.92942e+8 
           4970      4.86146e+8 
           4990       4.7908e+8 
           5010      4.66467e+8 
           5030      4.65401e+8 
           5050      4.56212e+8 
           5070      4.52224e+8 
           5090      4.45783e+8 
           5110      4.39473e+8 
           5130      4.33161e+8 
           5150      4.27048e+8 
           5170      4.21199e+8 
           5190      4.15343e+8 
           5210      4.09538e+8 
           5230      4.03891e+8 
           5250      3.98318e+8 
           5270      3.92832e+8 
           5290      3.87458e+8 
           5310      3.82153e+8 
           5330      3.76969e+8 
           5350      3.71827e+8 
           5370      3.66841e+8 
           5390      3.61868e+8 
           5410      3.56957e+8 
           5430      3.52237e+8 
           5450      3.47539e+8 
           5470      3.42924e+8 
           5490       3.3838e+8 
           5510      3.33931e+8 
           5530      3.29524e+8 
           5550      3.25209e+8 
           5570      3.20947e+8 
           5590      3.16773e+8 
           5610      3.12651e+8 
           5630      3.08616e+8 
           5650      3.04605e+8 
           5670      3.00585e+8 
           5690      2.96603e+8 
           5710      2.93038e+8 
           5730      2.89309e+8 
           5750      2.85557e+8 
           5770      2.82053e+8 
           5790      2.78489e+8 
           5810      2.74991e+8 
           5830      2.71522e+8 
           5850       2.6815e+8 
           5870      2.57655e+8 
           5890      2.61164e+8 
           5910      2.58267e+8 
           5930      2.55039e+8 
           5950      2.51901e+8 
           5970      2.48885e+8 
           5990      2.45808e+8 
           6010      2.42829e+8 
           6030      2.39864e+8 
           6050      2.36984e+8 
           6070      2.34126e+8 
           6090      2.31311e+8 
           6110      2.28538e+8 
           6130      2.25796e+8 
           6150      2.23074e+8 
           6170      2.20433e+8 
           6190      2.17841e+8 
           6210      2.15268e+8 
           6230      2.12733e+8 
           6250      2.10226e+8 
           6270      2.07766e+8 
           6290      2.05342e+8 
           6310      2.02945e+8 
           6330      2.00593e+8 
           6350      1.98247e+8 
           6370      1.95974e+8 
           6390      1.93716e+8 
           6410      1.91491e+8 
           6430      1.89308e+8 
           6450       1.8714e+8 
           6470      1.84986e+8 
           6490       1.8289e+8 
           6510      1.80826e+8 
           6530      1.78245e+8 
           6550       1.7174e+8 
           6570      1.53939e+8 
           6590      1.71414e+8 
           6610      1.70766e+8 
           6630      1.69017e+8 
           6650      1.67227e+8 
           6670      1.63897e+8 
           6690      1.62119e+8 
           6710      1.61773e+8 
           6730      1.59973e+8 
           6750      1.58249e+8 
           6770      1.56518e+8 
           6790      1.54756e+8 
           6810      1.53125e+8 
           6830      1.51471e+8 
           6850      1.49841e+8 
           6870      1.48227e+8 
           6890       1.4663e+8 
           6910      1.45056e+8 
           6930      1.43522e+8 
           6950      1.41995e+8 
           6970      1.40484e+8 
           6990      1.38995e+8 
           7010      1.37528e+8 
           7030      1.36084e+8 
           7050      1.34653e+8 
           7070      1.31202e+8 
           7090      1.31849e+8 
           7110      1.30475e+8 
           7130      1.29114e+8 
           7150      1.27781e+8 
           7170      1.26432e+8 
           7190      1.25154e+8 
           7210      1.23866e+8 
           7230      1.22317e+8 
           7250      1.21327e+8 
           7270      1.20098e+8 
           7290      1.17937e+8 
           7310      1.17652e+8 
           7330      1.16478e+8 
           7350      1.15301e+8 
           7370      1.14142e+8 
           7390      1.12994e+8 
           7410      1.11856e+8 
           7430      1.10736e+8 
           7450      1.09647e+8 
           7470      1.08541e+8 
           7490      1.07478e+8 
           7510      1.06372e+8 
           7530      1.05363e+8 
           7550      1.04323e+8 
           7570      1.03299e+8 
           7590      1.02285e+8 
           7610      1.01279e+8 
           7630      1.00296e+8 
           7650      9.93153e+7 
           7670      9.83562e+7 
           7690      9.73993e+7 
           7710      9.64574e+7 
           7730      9.55302e+7 
           7750       9.4605e+7 
           7770       9.3688e+7 
           7790       9.2804e+7 
           7810      9.18661e+7 
           7830      9.10471e+7 
           7850      9.02598e+7 
           7870      8.94002e+7 
           7890      8.84936e+7 
           7910      8.77276e+7 
           7930      8.68962e+7 
           7950      8.60364e+7 
           7970      8.50595e+7 
           7990       8.4286e+7 
           8010      8.34781e+7 
           8030      8.27005e+7 
           8050      8.19936e+7 
           8070      8.12753e+7 
           8090      8.03674e+7 
           8110      7.97138e+7 
           8130       7.9077e+7 
           8150        7.823e+7 
           8170      7.76555e+7 
           8190       7.6833e+7 
           8210      7.59114e+7 
           8230      7.54261e+7 
           8250      7.47785e+7 
           8270      7.37232e+7 
           8290       7.3357e+7 
           8310      7.27261e+7 
           8330      7.20407e+7 
           8350      7.10584e+7 
           8370      7.06385e+7 
           8390      7.01042e+7 
           8410      6.94675e+7 
           8430      6.87778e+7 
           8450      6.77351e+7 
           8470      6.74576e+7 
           8490      6.68317e+7 
           8510      6.60706e+7 
           8530      6.57301e+7 
           8550      6.42428e+7 
           8570      6.53026e+7 
           8590      6.27116e+7 
