# Kurucz ODFNEW /NOVER (2003)
# teff = 8500 K (value for the effective temperature for the model. Temperatures are given in K)
# logg = 4 log(cm/s2) (value for Log(G) for the model.)
# meta = -2.5  (value for the Metallicity for the model.)
# lh = 1.25  (l/Hp where l is the  mixing length of the convective element and Hp is the pressure scale height)
# vtur = 2 km/s (Microturbulence velocity)
# alpha = 0.4  (Alpha)
#
# column 1: WAVELENGTH (ANGSTROM), Wavelength in Angstrom
# column 2: FLUX (ERG/CM2/S/A), Flux in erg/cm2/s/A
          273.5     1.55089e-24 
          278.5     6.82086e-23 
            284     3.57911e-22 
            290     1.86842e-21 
            296     9.02352e-21 
            301     3.18786e-20 
            308     1.73794e-19 
            318     1.71544e-18 
            328     1.46652e-17 
            338     1.09971e-16 
            348     7.31783e-16 
            357     3.66771e-15 
            366     1.69339e-14 
            375     7.24392e-14 
            385     3.35263e-13 
            395     1.43137e-12 
            405     5.67167e-12 
            414      1.8454e-11 
            422     5.03924e-11 
            430     1.32336e-10 
            441     4.70135e-10 
            451      1.40697e-9 
            460      3.61543e-9 
            470      9.86813e-9 
            480      2.57726e-8 
            490      6.45979e-8 
            500       1.5574e-7 
            506      2.60687e-7 
            512      4.29724e-7 
            520      8.18509e-7 
            530      1.77971e-6 
            540      3.75218e-6 
            550      7.68877e-6 
            560      1.53299e-5 
            570      2.97882e-5 
            580      5.64781e-5 
            590      0.00010467 
            600     0.000189746 
            610     0.000336849 
            620     0.000586273 
            630      0.00100129 
            640      0.00167974 
            650      0.00277005 
            658      0.00408485 
            665        0.005691 
            675      0.00902249 
            685       0.0140985 
            695       0.0217244 
            705       0.0330323 
            716       0.0516186 
            726       0.0764786 
            735         0.10786 
            745        0.156373 
            755        0.224276 
            765        0.318385 
            775         0.44754 
            785        0.623149 
            795        0.859827 
            805         1.17596 
            815         1.59483 
            825         2.14528 
            835         2.86335 
            845         3.79323 
            855         4.98863 
            865         6.51475 
            875         8.45055 
            885         10.8898 
            895         13.9456 
            905         17.7513 
            915         31.7142 
            925         109.793 
            935         193.311 
            945         369.349 
            955         579.619 
            965         780.989 
            975         551.011 
            985         1474.92 
            995         1978.12 
           1005         2167.89 
           1015         1759.86 
           1025         1075.73 
           1035         2451.15 
           1045         4192.23 
           1055         5507.64 
           1065         8389.37 
           1075         16649.6 
           1085         35787.3 
           1095           46124 
           1105          106766 
           1115          276484 
           1125          220687 
           1135          184688 
           1145         76034.1 
           1155         29431.8 
           1165         20595.1 
           1175           17981 
           1185         22879.4 
           1195         13906.6 
           1205         10064.6 
           1215         5128.97 
           1225         11377.3 
           1235         20844.3 
           1245         23628.1 
           1255         34912.1 
           1265         47793.2 
           1275         73284.5 
           1285          255986 
           1295          551742 
           1305      1.22507e+6 
           1315      2.04231e+6 
           1325      3.20868e+6 
           1335      4.50052e+6 
           1345      6.00072e+6 
           1355      6.84075e+6 
           1365      8.01247e+6 
           1375      7.19375e+6 
           1385      5.84962e+6 
           1395      5.22613e+6 
           1405      9.72556e+6 
           1415      1.71244e+7 
           1425      1.85201e+7 
           1435      1.88362e+7 
           1442      2.14022e+7 
           1447      1.98368e+7 
           1455      2.25288e+7 
           1465      2.06126e+7 
           1475      2.17661e+7 
           1485       2.2253e+7 
           1495       2.2826e+7 
           1505       2.4009e+7 
           1512      2.41546e+7 
           1517      2.21327e+7 
           1525      2.25734e+7 
           1535      2.20228e+7 
           1545      2.05313e+7 
           1555      1.87101e+7 
           1565      1.49024e+7 
           1575      1.52932e+7 
           1585      1.42912e+7 
           1595       1.3608e+7 
           1605      1.33309e+7 
           1615       1.7857e+7 
           1625      2.25471e+7 
           1635      2.83066e+7 
           1645      3.51722e+7 
           1655      3.38091e+7 
           1665      4.08131e+7 
           1672      3.94466e+7 
           1677       4.1418e+7 
           1685      4.33569e+7 
           1695      4.21702e+7 
           1705      4.24844e+7 
           1715      4.44855e+7 
           1725      4.40143e+7 
           1735      4.51716e+7 
           1745      4.41902e+7 
           1755      4.50885e+7 
           1765      4.30577e+7 
           1775      4.44883e+7 
           1785      4.41201e+7 
           1795      4.51686e+7 
           1805      4.40705e+7 
           1815      4.38847e+7 
           1825      4.32762e+7 
           1835      4.36214e+7 
           1845      4.18716e+7 
           1855      4.31227e+7 
           1865      4.34261e+7 
           1875      4.33724e+7 
           1885       4.3328e+7 
           1895      4.32192e+7 
           1905      4.22341e+7 
           1915      4.28194e+7 
           1925      4.31778e+7 
           1935      4.22044e+7 
           1945      4.31717e+7 
           1955      4.29885e+7 
           1967      4.29427e+7 
           1976      4.20439e+7 
           1984      4.18031e+7 
           1995      4.21811e+7 
           2005       4.1454e+7 
           2015      4.09156e+7 
           2025       4.0642e+7 
           2035      4.14234e+7 
           2045      4.12751e+7 
           2055      4.01902e+7 
           2065      4.04282e+7 
           2074      4.11405e+7 
           2078      4.11821e+7 
           2085      4.09242e+7 
           2095      4.06941e+7 
           2105      4.05184e+7 
           2115      4.03526e+7 
           2125      4.00746e+7 
           2135      3.94728e+7 
           2145      4.01995e+7 
           2155      3.97908e+7 
           2165      3.89338e+7 
           2175      3.90417e+7 
           2185      3.91665e+7 
           2195      3.97612e+7 
           2205       3.8904e+7 
           2215      3.75476e+7 
           2225      3.79832e+7 
           2235      3.91856e+7 
           2245      3.85249e+7 
           2255      3.76172e+7 
           2265      3.71213e+7 
           2275      3.81328e+7 
           2285      3.82702e+7 
           2295      3.75955e+7 
           2305      3.77983e+7 
           2315      3.74991e+7 
           2325      3.75076e+7 
           2335      3.70336e+7 
           2345      3.54702e+7 
           2355      3.69405e+7 
           2365      3.56218e+7 
           2375      3.64118e+7 
           2385      3.45302e+7 
           2395      3.60177e+7 
           2405      3.57637e+7 
           2415      3.57918e+7 
           2425      3.65536e+7 
           2435       3.5766e+7 
           2445      3.61484e+7 
           2455      3.61645e+7 
           2465      3.54191e+7 
           2475      3.51568e+7 
           2485      3.53844e+7 
           2495      3.49131e+7 
           2505      3.58297e+7 
           2513      3.48998e+7 
           2518      3.46835e+7 
           2525      3.40229e+7 
           2535      3.39344e+7 
           2545      3.41894e+7 
           2555      3.51901e+7 
           2565      3.48957e+7 
           2575      3.53751e+7 
           2585      3.55237e+7 
           2595      3.52174e+7 
           2605      3.47749e+7 
           2615      3.45662e+7 
           2625      3.45975e+7 
           2635      3.47629e+7 
           2645      3.60245e+7 
           2655      3.58669e+7 
           2665      3.51522e+7 
           2675        3.537e+7 
           2685      3.56249e+7 
           2695      3.52593e+7 
           2705      3.52632e+7 
           2715      3.46319e+7 
           2725      3.46126e+7 
           2735      3.48696e+7 
           2745      3.34686e+7 
           2755       3.3573e+7 
           2765      3.41905e+7 
           2775      3.47747e+7 
           2785      3.44856e+7 
           2795       3.1721e+7 
           2805      3.31581e+7 
           2815      3.48836e+7 
           2825      3.47584e+7 
           2835      3.43036e+7 
           2845      3.41885e+7 
           2855      3.36231e+7 
           2865      3.39286e+7 
           2875      3.39883e+7 
           2885      3.39735e+7 
           2895      3.42575e+7 
           2910      3.43701e+7 
           2930      3.38257e+7 
           2950      3.36873e+7 
           2970      3.37326e+7 
           2990      3.35711e+7 
           3010      3.36554e+7 
           3030      3.35622e+7 
           3050      3.34328e+7 
           3070      3.31238e+7 
           3090      3.31612e+7 
           3110      3.30597e+7 
           3130      3.28954e+7 
           3150       3.2738e+7 
           3170      3.26823e+7 
           3190      3.22834e+7 
           3210      3.23701e+7 
           3230      3.20297e+7 
           3250      3.21136e+7 
           3270      3.21504e+7 
           3290      3.20844e+7 
           3310      3.19839e+7 
           3330      3.17228e+7 
           3350      3.14623e+7 
           3370      3.14131e+7 
           3390      3.13071e+7 
           3410      3.13572e+7 
           3430      3.12357e+7 
           3450      3.11002e+7 
           3470      3.09762e+7 
           3490      3.08776e+7 
           3510      3.07803e+7 
           3530      3.06743e+7 
           3550      3.05598e+7 
           3570      3.03958e+7 
           3590      3.02802e+7 
           3610      3.01624e+7 
           3630      3.00511e+7 
           3640      2.99829e+7 
           3650      3.00903e+7 
           3670      2.99842e+7 
           3690      2.88604e+7 
           3710      3.01239e+7 
           3730      3.13343e+7 
           3750      3.97317e+7 
           3770      4.20547e+7 
           3790       5.0642e+7 
           3810      5.96649e+7 
           3830      4.79589e+7 
           3850       6.6923e+7 
           3870      7.63903e+7 
           3890      4.18776e+7 
           3910      7.66884e+7 
           3930      8.46714e+7 
           3950       7.6401e+7 
           3970      4.05893e+7 
           3990      7.23164e+7 
           4010      8.48151e+7 
           4030      8.61002e+7 
           4050      8.46364e+7 
           4070      7.93581e+7 
           4090      5.81216e+7 
           4110      4.43433e+7 
           4130      7.40984e+7 
           4150      7.95632e+7 
           4170      8.01299e+7 
           4190      7.96543e+7 
           4210      7.88398e+7 
           4230      7.77676e+7 
           4250      7.67934e+7 
           4270      7.54289e+7 
           4290      7.33579e+7 
           4310      6.81764e+7 
           4330      4.88712e+7 
           4350         4.16e+7 
           4370      6.47192e+7 
           4390      6.89045e+7 
           4410      6.94625e+7 
           4430      6.91688e+7 
           4450      6.85656e+7 
           4470      6.78723e+7 
           4490       6.7013e+7 
           4510      6.65404e+7 
           4530       6.5765e+7 
           4550      6.49789e+7 
           4570      6.43068e+7 
           4590      6.35884e+7 
           4610      6.29138e+7 
           4630      6.21887e+7 
           4650      6.15137e+7 
           4670      6.08308e+7 
           4690      6.00784e+7 
           4710      5.92585e+7 
           4730       5.8649e+7 
           4750      5.79157e+7 
           4770      5.71082e+7 
           4790      5.61184e+7 
           4810      5.45878e+7 
           4830      5.10942e+7 
           4850      3.90703e+7 
           4870      3.18483e+7 
           4890      4.79764e+7 
           4910      5.13852e+7 
           4930      5.19131e+7 
           4950      5.18065e+7 
           4970      5.14499e+7 
           4990      5.09959e+7 
           5010      5.04875e+7 
           5030      5.00883e+7 
           5050      4.95727e+7 
           5070      4.90739e+7 
           5090      4.85684e+7 
           5110      4.80721e+7 
           5130      4.75748e+7 
           5150      4.70882e+7 
           5170      4.64412e+7 
           5190      4.60532e+7 
           5210      4.56643e+7 
           5230      4.51876e+7 
           5250      4.47592e+7 
           5270      4.42791e+7 
           5290      4.38628e+7 
           5310      4.34194e+7 
           5330      4.29788e+7 
           5350      4.25672e+7 
           5370       4.2141e+7 
           5390      4.17277e+7 
           5410      4.13103e+7 
           5430      4.09108e+7 
           5450      4.05121e+7 
           5470      4.01195e+7 
           5490      3.97302e+7 
           5510      3.93468e+7 
           5530      3.89616e+7 
           5550      3.85933e+7 
           5570      3.82207e+7 
           5590      3.78513e+7 
           5610      3.74921e+7 
           5630      3.71382e+7 
           5650      3.67849e+7 
           5670      3.64356e+7 
           5690      3.60915e+7 
           5710      3.57513e+7 
           5730      3.54161e+7 
           5750      3.50836e+7 
           5770      3.47559e+7 
           5790      3.44319e+7 
           5810      3.41116e+7 
           5830      3.37948e+7 
           5850      3.34816e+7 
           5870      3.31663e+7 
           5890      3.28481e+7 
           5910      3.25668e+7 
           5930      3.22682e+7 
           5950       3.1974e+7 
           5970      3.16829e+7 
           5990      3.13951e+7 
           6010      3.11103e+7 
           6030      3.08297e+7 
           6050      3.05521e+7 
           6070      3.02775e+7 
           6090      3.00058e+7 
           6110      2.97381e+7 
           6130      2.94711e+7 
           6150      2.92051e+7 
           6170      2.89477e+7 
           6190      2.86951e+7 
           6210      2.84422e+7 
           6230       2.8191e+7 
           6250      2.79404e+7 
           6270      2.76983e+7 
           6290      2.74567e+7 
           6310      2.72167e+7 
           6330      2.69801e+7 
           6350      2.67385e+7 
           6370      2.65096e+7 
           6390       2.6283e+7 
           6410      2.60358e+7 
           6430      2.57656e+7 
           6450      2.55092e+7 
           6470      2.52383e+7 
           6490      2.49122e+7 
           6510      2.44429e+7 
           6530      2.34691e+7 
           6550       2.0207e+7 
           6570      1.63871e+7 
           6590      2.20617e+7 
           6610      2.32149e+7 
           6630      2.34058e+7 
           6650      2.33539e+7 
           6670      2.32242e+7 
           6690      2.30653e+7 
           6710      2.29096e+7 
           6730      2.27454e+7 
           6750       2.2557e+7 
           6770      2.23722e+7 
           6790      2.21875e+7 
           6810      2.20045e+7 
           6830      2.18234e+7 
           6850      2.16439e+7 
           6870       2.1467e+7 
           6890      2.12918e+7 
           6910      2.11182e+7 
           6930      2.09463e+7 
           6950       2.0776e+7 
           6970      2.06081e+7 
           6990      2.04417e+7 
           7010      2.02762e+7 
           7030       2.0113e+7 
           7050       1.9952e+7 
           7070      1.97918e+7 
           7090      1.96338e+7 
           7110      1.94751e+7 
           7130      1.93223e+7 
           7150      1.91679e+7 
           7170      1.90164e+7 
           7190      1.88656e+7 
           7210      1.87169e+7 
           7230      1.85695e+7 
           7250      1.84227e+7 
           7270      1.82787e+7 
           7290      1.81346e+7 
           7310      1.79932e+7 
           7330      1.78524e+7 
           7350      1.77136e+7 
           7370      1.75759e+7 
           7390      1.74395e+7 
           7410      1.73044e+7 
           7430      1.71704e+7 
           7450      1.70383e+7 
           7470      1.69066e+7 
           7490      1.67769e+7 
           7510      1.66489e+7 
           7530      1.65213e+7 
           7550      1.63956e+7 
           7570      1.62703e+7 
           7590      1.61467e+7 
           7610      1.60242e+7 
           7630      1.59028e+7 
           7650      1.57818e+7 
           7670      1.56631e+7 
           7690      1.55448e+7 
           7710      1.54281e+7 
           7730      1.53124e+7 
           7750      1.51971e+7 
           7770      1.50479e+7 
           7790      1.49713e+7 
           7810      1.48595e+7 
           7830      1.47493e+7 
           7850      1.46394e+7 
           7870      1.45298e+7 
           7890      1.44211e+7 
           7910       1.4317e+7 
           7930      1.42113e+7 
           7950      1.41065e+7 
           7970      1.40038e+7 
           7990       1.3899e+7 
           8010      1.37997e+7 
           8030      1.36989e+7 
           8050      1.35989e+7 
           8070      1.34998e+7 
           8090      1.34021e+7 
           8110      1.33051e+7 
           8130      1.32084e+7 
           8150       1.3113e+7 
           8170       1.3019e+7 
           8190      1.29229e+7 
           8210      1.28544e+7 
           8230      1.27681e+7 
           8250      1.26825e+7 
           8270      1.26036e+7 
           8290      1.25214e+7 
           8310      1.24383e+7 
           8330       1.2351e+7 
           8350      1.22665e+7 
           8370      1.21714e+7 
           8390      1.20722e+7 
           8410      1.19664e+7 
           8430        1.188e+7 
           8450      1.18017e+7 
           8470      1.15475e+7 
           8490      1.16965e+7 
           8510      1.12041e+7 
           8530      1.16243e+7 
           8550      1.06882e+7 
           8570      1.16422e+7 
           8590      1.08902e+7 
           8610      1.06277e+7 
           8630      1.16509e+7 
           8650      1.11852e+7 
           8670      9.47075e+6 
           8690      1.13868e+7 
           8710      1.16946e+7 
           8730      1.12268e+7 
           8750      8.97606e+6 
           8770      1.06814e+7 
           8790      1.15451e+7 
           8810      1.16442e+7 
           8830      1.13465e+7 
           8850      1.01216e+7 
           8870      8.61082e+6 
           8890      1.07381e+7 
           8910      1.12817e+7 
           8930      1.13881e+7 
           8950      1.13269e+7 
           8970      1.10897e+7 
           8990       1.0481e+7 
           9010      8.41863e+6 
           9030      9.18158e+6 
           9050      1.04828e+7 
           9070      1.08011e+7 
           9090      1.08585e+7 
           9110      1.08554e+7 
           9130      1.07934e+7 
           9150      1.06891e+7 
           9170      1.05229e+7 
           9190      1.02051e+7 
