# Kurucz ODFNEW /NOVER (2003)
# teff = 22000 K (value for the effective temperature for the model. Temperatures are given in K)
# logg = 3.5 log(cm/s2) (value for Log(G) for the model.)
# meta = 0.5  (value for the Metallicity for the model.)
# lh = 1.25  (l/Hp where l is the  mixing length of the convective element and Hp is the pressure scale height)
# vtur = 2 km/s (Microturbulence velocity)
# alpha = 0.4  (Alpha)
#
# column 1: WAVELENGTH (ANGSTROM), Wavelength in Angstrom
# column 2: FLUX (ERG/CM2/S/A), Flux in erg/cm2/s/A
          147.2      3.8939e-18 
            151     2.03227e-17 
          155.2     1.15316e-16 
          158.8     4.76248e-16 
            162      1.5987e-15 
            166     6.82354e-15 
          170.3      2.9992e-14 
          173.4     8.44872e-14 
          176.8      2.5101e-13 
          180.2     7.17238e-13 
          181.7     1.12467e-12 
          186.1     4.06706e-12 
            191     1.59765e-11 
          193.9     3.47458e-11 
          198.4     1.11174e-10 
          201.8      2.5911e-10 
            205     5.60796e-10 
          210.5      2.00819e-9 
          216.2      7.05618e-9 
          219.8      1.51145e-8 
            223        2.917e-8 
          226.8       6.2224e-8 
            230      8.30015e-7 
            234      2.06267e-6 
            240      5.81831e-6 
          246.5       1.6827e-5 
          252.4       4.2582e-5 
          256.8      8.03545e-5 
            260      0.00013589 
            264      0.00023725 
          268.5     0.000439802 
          273.5     0.000845047 
          278.5      0.00160712 
            284      0.00339218 
            290      0.00682279 
            296       0.0134222 
            301       0.0230393 
            308       0.0512054 
            318         0.14084 
            328        0.345512 
            338        0.855954 
            348         1.94683 
            357         11.2822 
            366         24.3827 
            375         41.5936 
            385         77.2394 
            395         153.268 
            405         259.743 
            414         422.171 
            422         633.051 
            430         957.329 
            441         1584.32 
            451         2392.79 
            460         3403.74 
            470         5140.34 
            480          7459.7 
            490         10879.5 
            500         15361.5 
            506         73051.7 
            512      1.46168e+6 
            520      1.70267e+6 
            530      2.18728e+6 
            540      2.31373e+6 
            550      3.89756e+6 
            560      4.76186e+6 
            570      6.10292e+6 
            580      5.84155e+6 
            590      8.64053e+6 
            600      1.02165e+7 
            610      1.27638e+7 
            620      1.38951e+7 
            630      1.49183e+7 
            640      1.32306e+7 
            650      8.67423e+6 
            658      1.57239e+7 
            665      2.05341e+7 
            675      2.19047e+7 
            685       2.2515e+7 
            695      3.19034e+7 
            705      3.27033e+7 
            716      3.77306e+7 
            726      3.84316e+7 
            735      4.23742e+7 
            745      4.98957e+7 
            755      5.42605e+7 
            765      5.96626e+7 
            775       6.4937e+7 
            785      7.04031e+7 
            795      7.30719e+7 
            805      7.69649e+7 
            815      8.07482e+7 
            825      8.96623e+7 
            835      7.15285e+7 
            845      9.33032e+7 
            855      9.60704e+7 
            865       1.0439e+8 
            875      1.12213e+8 
            885      1.25021e+8 
            895      1.32717e+8 
            905      1.26258e+8 
            915      2.24123e+8 
            925      2.34538e+9 
            935      5.13625e+9 
            945      8.81514e+9 
            955     1.14461e+10 
            965     1.06834e+10 
            975      1.44189e+9 
            985      6.48912e+9 
            995      8.61699e+9 
           1005     1.24288e+10 
           1015     1.30108e+10 
           1025      8.13646e+9 
           1035      9.02484e+9 
           1045     1.74361e+10 
           1055     1.57014e+10 
           1065     1.03334e+10 
           1075     1.38972e+10 
           1085     1.20946e+10 
           1095     1.47556e+10 
           1105     1.15013e+10 
           1115      9.09896e+9 
           1125      7.00847e+9 
           1135     1.28943e+10 
           1145     1.13034e+10 
           1155      1.2117e+10 
           1165     1.20692e+10 
           1175      5.88714e+9 
           1185     1.14495e+10 
           1195      8.14201e+9 
           1205      2.26968e+9 
           1215       4.9733e+9 
           1225      9.63649e+9 
           1235     1.26261e+10 
           1245     1.21796e+10 
           1255     1.19738e+10 
           1265     1.20044e+10 
           1275     1.24644e+10 
           1285      1.2549e+10 
           1295      5.11419e+9 
           1305      5.70638e+9 
           1315     1.19849e+10 
           1325     1.10961e+10 
           1335     1.03706e+10 
           1345     1.12809e+10 
           1355     1.10413e+10 
           1365      9.20844e+9 
           1375      8.89744e+9 
           1385      8.01173e+9 
           1395      4.43203e+9 
           1405      5.43159e+9 
           1415      7.01895e+9 
           1425      7.60017e+9 
           1435      8.04272e+9 
           1442       8.4415e+9 
           1447      8.27477e+9 
           1455      7.90464e+9 
           1465      6.99492e+9 
           1475      7.42836e+9 
           1485      7.32267e+9 
           1495      7.14227e+9 
           1505      6.15035e+9 
           1512      5.40291e+9 
           1517      5.72062e+9 
           1525      6.06023e+9 
           1535      4.89893e+9 
           1545      4.70599e+9 
           1555      4.68196e+9 
           1565      5.12929e+9 
           1575      5.56386e+9 
           1585      5.73876e+9 
           1595      5.61238e+9 
           1605      5.91734e+9 
           1615      5.89109e+9 
           1625      5.61679e+9 
           1635      6.23714e+9 
           1645      6.25245e+9 
           1655       6.0184e+9 
           1665      6.37711e+9 
           1672      5.99811e+9 
           1677      6.63834e+9 
           1685      6.57532e+9 
           1695      6.04598e+9 
           1705      5.90295e+9 
           1715      5.41893e+9 
           1725      5.39287e+9 
           1735      5.80921e+9 
           1745      5.59225e+9 
           1755      5.67401e+9 
           1765        5.566e+9 
           1775      5.09919e+9 
           1785      5.28992e+9 
           1795      5.69825e+9 
           1805      5.83984e+9 
           1815      4.84283e+9 
           1825      5.24234e+9 
           1835      4.98263e+9 
           1845      4.44889e+9 
           1855      4.39405e+9 
           1865       4.4897e+9 
           1875      5.01609e+9 
           1885      4.29495e+9 
           1895      3.95841e+9 
           1905      4.53692e+9 
           1915      4.00344e+9 
           1925      3.81932e+9 
           1935      4.21572e+9 
           1945      4.24707e+9 
           1955      3.75761e+9 
           1967      4.32572e+9 
           1976       4.5033e+9 
           1984      4.14911e+9 
           1995      4.04953e+9 
           2005       4.3899e+9 
           2015      4.22322e+9 
           2025       4.4236e+9 
           2035      3.94539e+9 
           2045       4.1513e+9 
           2055      3.93543e+9 
           2065      3.86799e+9 
           2074      4.17798e+9 
           2078      3.61795e+9 
           2085      4.00039e+9 
           2095      3.73045e+9 
           2105      3.88511e+9 
           2115      3.96131e+9 
           2125      3.97142e+9 
           2135       3.8853e+9 
           2145      3.67442e+9 
           2155      3.89837e+9 
           2165      3.92079e+9 
           2175      3.88283e+9 
           2185       3.6583e+9 
           2195      3.77947e+9 
           2205      3.79548e+9 
           2215      3.68035e+9 
           2225      3.55451e+9 
           2235      3.55686e+9 
           2245      3.61711e+9 
           2255      3.42944e+9 
           2265      3.56431e+9 
           2275      3.50742e+9 
           2285      3.53032e+9 
           2295       3.0837e+9 
           2305      3.37495e+9 
           2315      3.22635e+9 
           2325      3.18876e+9 
           2335      3.02048e+9 
           2345      3.08096e+9 
           2355      3.08732e+9 
           2365      3.05123e+9 
           2375      3.01557e+9 
           2385      2.98285e+9 
           2395      2.99248e+9 
           2405      2.88193e+9 
           2415      2.90753e+9 
           2425      2.91569e+9 
           2435      2.79064e+9 
           2445      2.84833e+9 
           2455      2.86424e+9 
           2465      2.78488e+9 
           2475      2.72079e+9 
           2485      2.65122e+9 
           2495      2.10659e+9 
           2505      2.54014e+9 
           2513      2.46296e+9 
           2518      2.60649e+9 
           2525      2.54272e+9 
           2535      2.52492e+9 
           2545      2.34977e+9 
           2555      2.48549e+9 
           2565      2.43712e+9 
           2575      2.50788e+9 
           2585      2.46461e+9 
           2595      2.44896e+9 
           2605       2.4313e+9 
           2615      2.39015e+9 
           2625      2.38072e+9 
           2635      2.36904e+9 
           2645      2.35994e+9 
           2655      2.36378e+9 
           2665       2.2105e+9 
           2675      2.26887e+9 
           2685      2.25268e+9 
           2695      2.15627e+9 
           2705       2.0882e+9 
           2715      2.10928e+9 
           2725       2.1229e+9 
           2735      2.11934e+9 
           2745      2.03578e+9 
           2755      2.03587e+9 
           2765      2.03113e+9 
           2775      2.07057e+9 
           2785       2.0296e+9 
           2795       1.9269e+9 
           2805        1.975e+9 
           2815      1.98619e+9 
           2825       1.9721e+9 
           2835      1.85828e+9 
           2845      1.88211e+9 
           2855      1.85198e+9 
           2865      1.88089e+9 
           2875      1.85593e+9 
           2885      1.83612e+9 
           2895      1.79536e+9 
           2910      1.76386e+9 
           2930      1.75378e+9 
           2950      1.69917e+9 
           2970      1.67944e+9 
           2990      1.64242e+9 
           3010      1.56615e+9 
           3030      1.58129e+9 
           3050      1.56029e+9 
           3070      1.54579e+9 
           3090      1.46784e+9 
           3110      1.47555e+9 
           3130      1.43687e+9 
           3150      1.42077e+9 
           3170      1.37598e+9 
           3190      1.35275e+9 
           3210      1.33719e+9 
           3230       1.3041e+9 
           3250      1.29092e+9 
           3270      1.26105e+9 
           3290      1.23668e+9 
           3310      1.21556e+9 
           3330      1.18775e+9 
           3350      1.17005e+9 
           3370      1.14426e+9 
           3390      1.13241e+9 
           3410      1.11285e+9 
           3430      1.08867e+9 
           3450      1.06507e+9 
           3470      1.04607e+9 
           3490      1.02434e+9 
           3510      1.00927e+9 
           3530      9.99863e+8 
           3550      9.81036e+8 
           3570      9.66646e+8 
           3590      9.34158e+8 
           3610      9.18979e+8 
           3630      9.10339e+8 
           3640       9.1086e+8 
           3650      8.95073e+8 
           3670      8.86827e+8 
           3690      8.62991e+8 
           3710      8.34114e+8 
           3730       8.1401e+8 
           3750      8.82933e+8 
           3770      8.76585e+8 
           3790      9.08089e+8 
           3810      9.41064e+8 
           3830      8.29303e+8 
           3850      9.31905e+8 
           3870      9.12211e+8 
           3890      7.90773e+8 
           3910       9.2203e+8 
           3930      8.79033e+8 
           3950      8.75176e+8 
           3970      7.33792e+8 
           3990      8.47257e+8 
           4010      8.44169e+8 
           4030      8.00181e+8 
           4050      8.10097e+8 
           4070      7.63561e+8 
           4090      7.29357e+8 
           4110      6.61436e+8 
           4130      7.34005e+8 
           4150      7.29353e+8 
           4170       7.3091e+8 
           4190      7.26288e+8 
           4210      7.22464e+8 
           4230      7.03458e+8 
           4250      6.80147e+8 
           4270      6.57405e+8 
           4290      6.50021e+8 
           4310      6.28143e+8 
           4330      5.90988e+8 
           4350       5.4734e+8 
           4370      5.98387e+8 
           4390      6.04988e+8 
           4410      5.96434e+8 
           4430      5.92001e+8 
           4450      5.84466e+8 
           4470       5.6422e+8 
           4490      5.67427e+8 
           4510      5.66814e+8 
           4530      5.55982e+8 
           4550      5.50559e+8 
           4570      5.40844e+8 
           4590      5.31617e+8 
           4610      5.15847e+8 
           4630      5.09888e+8 
           4650      4.92671e+8 
           4670       4.9537e+8 
           4690      4.93791e+8 
           4710      4.69262e+8 
           4730      4.74564e+8 
           4750      4.67487e+8 
           4770      4.71754e+8 
           4790      4.61452e+8 
           4810      4.48993e+8 
           4830      4.42472e+8 
           4850      4.22975e+8 
           4870       3.8013e+8 
           4890      4.26355e+8 
           4910      4.21045e+8 
           4930      4.07266e+8 
           4950      4.07088e+8 
           4970      4.07112e+8 
           4990      3.99332e+8 
           5010      3.77388e+8 
           5030       3.8571e+8 
           5050      3.74654e+8 
           5070      3.77288e+8 
           5090      3.70068e+8 
           5110      3.62762e+8 
           5130      3.52882e+8 
           5150      3.51382e+8 
           5170      3.50416e+8 
           5190      3.45973e+8 
           5210      3.37062e+8 
           5230        3.365e+8 
           5250      3.32629e+8 
           5270      3.26053e+8 
           5290      3.24091e+8 
           5310      3.18781e+8 
           5330      3.14112e+8 
           5350      3.08965e+8 
           5370      3.07099e+8 
           5390      3.02607e+8 
           5410       2.9888e+8 
           5430      2.93565e+8 
           5450      2.89651e+8 
           5470      2.85359e+8 
           5490      2.82971e+8 
           5510      2.80362e+8 
           5530      2.75184e+8 
           5550      2.73315e+8 
           5570       2.6917e+8 
           5590      2.66692e+8 
           5610      2.62269e+8 
           5630      2.60171e+8 
           5650       2.5249e+8 
           5670      2.48392e+8 
           5690      2.45765e+8 
           5710      2.44959e+8 
           5730      2.42965e+8 
           5750      2.38691e+8 
           5770      2.37798e+8 
           5790      2.34449e+8 
           5810       2.3141e+8 
           5830      2.27796e+8 
           5850      2.25581e+8 
           5870      2.17093e+8 
           5890      2.17087e+8 
           5910      2.15868e+8 
           5930      2.13182e+8 
           5950      2.09496e+8 
           5970      2.10156e+8 
           5990      2.05573e+8 
           6010      2.04875e+8 
           6030      2.01508e+8 
           6050      1.99406e+8 
           6070      1.97644e+8 
           6090      1.95129e+8 
           6110      1.93016e+8 
           6130      1.91117e+8 
           6150      1.86261e+8 
           6170      1.85293e+8 
           6190      1.84146e+8 
           6210      1.82249e+8 
           6230      1.80362e+8 
           6250      1.76953e+8 
           6270      1.75424e+8 
           6290      1.73748e+8 
           6310       1.7121e+8 
           6330      1.70055e+8 
           6350      1.66603e+8 
           6370      1.65623e+8 
           6390       1.6385e+8 
           6410      1.62151e+8 
           6430      1.60879e+8 
           6450      1.58706e+8 
           6470      1.56052e+8 
           6490      1.54582e+8 
           6510      1.53074e+8 
           6530      1.50627e+8 
           6550      1.46319e+8 
           6570      1.29353e+8 
           6590      1.44262e+8 
           6610      1.44718e+8 
           6630      1.43486e+8 
           6650      1.41662e+8 
           6670      1.39128e+8 
           6690      1.37809e+8 
           6710      1.37474e+8 
           6730      1.35386e+8 
           6750      1.34734e+8 
           6770      1.33298e+8 
           6790      1.29752e+8 
           6810      1.29901e+8 
           6830      1.28333e+8 
           6850      1.27545e+8 
           6870      1.26133e+8 
           6890      1.24576e+8 
           6910      1.22988e+8 
           6930      1.22036e+8 
           6950      1.21023e+8 
           6970      1.19787e+8 
           6990      1.18385e+8 
           7010      1.17066e+8 
           7030      1.15875e+8 
           7050      1.14673e+8 
           7070      1.11463e+8 
           7090      1.12214e+8 
           7110      1.08886e+8 
           7130      1.08009e+8 
           7150       1.0857e+8 
           7170      1.07804e+8 
           7190      1.06833e+8 
           7210      1.05748e+8 
           7230      1.02368e+8 
           7250      1.03123e+8 
           7270      1.02506e+8 
           7290      1.00633e+8 
           7310      1.00414e+8 
           7330      9.93414e+7 
           7350      9.84877e+7 
           7370      9.75377e+7 
           7390      9.65621e+7 
           7410      9.56093e+7 
           7430      9.43582e+7 
           7450      9.35876e+7 
           7470      9.17369e+7 
           7490      9.15968e+7 
           7510      9.08157e+7 
           7530      8.97559e+7 
           7550      8.91554e+7 
           7570      8.83365e+7 
           7590      8.73353e+7 
           7610      8.63955e+7 
           7630      8.57231e+7 
           7650      8.49086e+7 
           7670      8.41333e+7 
           7690      8.33013e+7 
           7710      8.24894e+7 
           7730       8.1584e+7 
           7750       8.0969e+7 
           7770      7.90925e+7 
           7790      7.94381e+7 
           7810      7.86365e+7 
           7830      7.79588e+7 
           7850       7.6914e+7 
           7870      7.61647e+7 
           7890      7.50529e+7 
           7910      7.48424e+7 
           7930      7.41119e+7 
           7950      7.30004e+7 
           7970      7.26819e+7 
           7990      7.15336e+7 
           8010      7.14117e+7 
           8030      7.07585e+7 
           8050      7.01225e+7 
           8070      6.95844e+7 
           8090      6.88321e+7 
           8110      6.77713e+7 
           8130      6.76777e+7 
           8150      6.70226e+7 
           8170      6.65764e+7 
           8190      6.54204e+7 
           8210      6.47779e+7 
           8230      6.38572e+7 
           8250      6.40461e+7 
           8270      6.25524e+7 
           8290      6.27827e+7 
           8310      6.22517e+7 
           8330      6.18337e+7 
           8350      6.09273e+7 
           8370      6.04106e+7 
           8390      6.01176e+7 
           8410      5.94858e+7 
           8430      5.89282e+7 
           8450      5.75943e+7 
           8470      5.76692e+7 
           8490      5.73769e+7 
           8510      5.62544e+7 
           8530      5.67158e+7 
           8550        5.441e+7 
           8570      5.65723e+7 
