# Kurucz ODFNEW /NOVER (2003)
# teff = 7500 K (value for the effective temperature for the model. Temperatures are given in K)
# logg = 1.5 log(cm/s2) (value for Log(G) for the model.)
# meta = -4  (value for the Metallicity for the model.)
# lh = 1.25  (l/Hp where l is the  mixing length of the convective element and Hp is the pressure scale height)
# vtur = 2 km/s (Microturbulence velocity)
# alpha = 0.4  (Alpha)
#
# column 1: WAVELENGTH (ANGSTROM), Wavelength in Angstrom
# column 2: FLUX (ERG/CM2/S/A), Flux in erg/cm2/s/A
          147.2     1.73866e-35 
            151     1.65225e-35 
          155.2     1.56403e-35 
          158.8     1.49392e-35 
            162     1.43549e-35 
            166     1.36714e-35 
          170.3     1.29897e-35 
          173.4     1.25294e-35 
          176.8     1.20522e-35 
          180.2     1.16017e-35 
          181.7     1.14109e-35 
          186.1     1.08777e-35 
            191     1.03267e-35 
          193.9     1.00201e-35 
          198.4     9.57076e-36 
          201.8     9.25097e-36 
            205     8.96441e-36 
          210.5     8.50208e-36 
          216.2     8.05969e-36 
          219.8     7.79784e-36 
            223     7.57565e-36 
          226.8     7.32392e-36 
            230     7.12154e-36 
            234     6.88015e-36 
            240     6.54044e-36 
          246.5     6.20006e-36 
          252.4     5.91358e-36 
          256.8     5.71267e-36 
            260     5.57292e-36 
            264     5.40532e-36 
          268.5     5.22566e-36 
          273.5     5.03634e-36 
          278.5     4.85712e-36 
            284     4.67082e-36 
            290     4.47954e-36 
            296     4.29978e-36 
            301     4.15812e-36 
            308      5.5677e-24 
            318     1.73929e-22 
            328     1.97151e-21 
            338     1.89539e-20 
            348     1.59114e-19 
            357     9.71109e-19 
            366     5.41037e-18 
            375     2.76603e-17 
            385     1.54525e-16 
            395     7.88397e-16 
            405     3.70103e-15 
            414     1.39332e-14 
            422     4.30517e-14 
            430     1.27342e-13 
            441     5.29216e-13 
            451     1.81433e-12 
            460     5.24412e-12 
            470     1.62284e-11 
            480     4.77943e-11 
            490     1.34483e-10 
            500     3.62203e-10 
            506     7.95994e-10 
            512      1.52793e-9 
            520      3.16194e-9 
            530      7.64711e-9 
            540       1.7635e-8 
            550      3.97839e-8 
            560      8.65697e-8 
            570      1.82973e-7 
            580      3.73135e-7 
            590      7.54097e-7 
            600        1.475e-6 
            610      2.81843e-6 
            620       5.2649e-6 
            630      9.62658e-6 
            640      1.72527e-5 
            650      3.03345e-5 
            658      4.70177e-5 
            665      6.83569e-5 
            675     0.000114964 
            685     0.000190241 
            695     0.000309978 
            705      0.00049772 
            716     0.000824217 
            726      0.00128484 
            735      0.00189465 
            745      0.00288283 
            755      0.00433418 
            765      0.00644185 
            775      0.00946865 
            785       0.0137694 
            795       0.0198192 
            805       0.0282554 
            815       0.0399073 
            825       0.0558431 
            835       0.0774613 
            845        0.106536 
            855        0.145348 
            865        0.196752 
            875        0.264327 
            885        0.352538 
            895        0.466862 
            905        0.614064 
            915         1.23045 
            925         5.40465 
            935         9.15725 
            945         16.3234 
            955         26.6735 
            965         25.0305 
            975         13.8843 
            985         64.4679 
            995         72.9581 
           1005         65.2323 
           1015         37.7671 
           1025         51.3912 
           1035         75.9561 
           1045         163.328 
           1055         279.816 
           1065         1682.89 
           1075         5458.48 
           1085         8644.24 
           1095         5785.93 
           1105         4636.67 
           1115          2344.3 
           1125         1052.42 
           1135         604.797 
           1145         546.664 
           1155         502.023 
           1165         303.804 
           1175           221.4 
           1185         1661.07 
           1195         475.441 
           1205         404.251 
           1215          370.93 
           1225         513.067 
           1235         766.043 
           1245         317.663 
           1255         467.592 
           1265         700.289 
           1275         1053.88 
           1285         1791.81 
           1295         3082.31 
           1305         3488.07 
           1315         5863.49 
           1325         15450.9 
           1335         31842.5 
           1345         56310.8 
           1355         91006.8 
           1365          157172 
           1375          183652 
           1385          201678 
           1395          227022 
           1405          399817 
           1415          705112 
           1425          841295 
           1435          989012 
           1442      1.19193e+6 
           1447      1.14148e+6 
           1455      1.41433e+6 
           1465      1.40516e+6 
           1475      1.63765e+6 
           1485      1.79342e+6 
           1495      1.98375e+6 
           1505      2.22343e+6 
           1512       2.3479e+6 
           1517        2.219e+6 
           1525      2.42954e+6 
           1535       2.5187e+6 
           1545      2.48304e+6 
           1555      2.51384e+6 
           1565      2.27632e+6 
           1575      2.35047e+6 
           1585      2.31926e+6 
           1595      2.34891e+6 
           1605       2.3522e+6 
           1615      3.00996e+6 
           1625      3.65099e+6 
           1635      4.38114e+6 
           1645      5.23574e+6 
           1655      5.20058e+6 
           1665      6.16987e+6 
           1672      6.15632e+6 
           1677      6.36775e+6 
           1685      6.67444e+6 
           1695      6.71957e+6 
           1705      6.82798e+6 
           1715      7.15244e+6 
           1725      7.22067e+6 
           1735      7.45506e+6 
           1745       7.4405e+6 
           1755      7.59691e+6 
           1765      7.62027e+6 
           1775      7.75538e+6 
           1785      7.77219e+6 
           1795      7.97884e+6 
           1805      7.91669e+6 
           1815      7.97711e+6 
           1825       8.0036e+6 
           1835      8.12571e+6 
           1845      8.04827e+6 
           1855      8.23237e+6 
           1865      8.33939e+6 
           1875      8.39791e+6 
           1885       8.4631e+6 
           1895      8.51627e+6 
           1905      8.45076e+6 
           1915      8.58535e+6 
           1925      8.67938e+6 
           1935      8.58477e+6 
           1945      8.78462e+6 
           1955      8.81996e+6 
           1967      8.87538e+6 
           1976      8.85724e+6 
           1984      8.87477e+6 
           1995      8.96563e+6 
           2005      8.94539e+6 
           2015      8.90953e+6 
           2025      8.92492e+6 
           2035      9.07622e+6 
           2045      9.09568e+6 
           2055      8.99578e+6 
           2065      9.06082e+6 
           2074       9.2451e+6 
           2078      9.25839e+6 
           2085      9.26913e+6 
           2095      9.29587e+6 
           2105      9.33189e+6 
           2115      9.35081e+6 
           2125      9.33642e+6 
           2135      9.35826e+6 
           2145      9.45216e+6 
           2155      9.45875e+6 
           2165      9.36032e+6 
           2175      9.42814e+6 
           2185      9.52116e+6 
           2195      9.62618e+6 
           2205      9.54526e+6 
           2215      9.41396e+6 
           2225      9.50304e+6 
           2235      9.71911e+6 
           2245      9.68877e+6 
           2255      9.57488e+6 
           2265      9.50741e+6 
           2275      9.73555e+6 
           2285      9.77246e+6 
           2295      9.75258e+6 
           2305      9.83619e+6 
           2315      9.83786e+6 
           2325      9.86492e+6 
           2335      9.79442e+6 
           2345      9.53363e+6 
           2355      9.88622e+6 
           2365      9.62834e+6 
           2375       9.8767e+6 
           2385      9.50794e+6 
           2395      9.85495e+6 
           2405      9.89041e+6 
           2415      9.91977e+6 
           2425      1.01994e+7 
           2435      1.01438e+7 
           2445       1.0199e+7 
           2455      1.02673e+7 
           2465      1.02096e+7 
           2475      1.02232e+7 
           2485      1.02442e+7 
           2495      1.02143e+7 
           2505      1.03953e+7 
           2513      1.02534e+7 
           2518      1.03001e+7 
           2525       1.0236e+7 
           2535      1.02005e+7 
           2545      1.03584e+7 
           2555      1.05453e+7 
           2565      1.04592e+7 
           2575      1.05571e+7 
           2585      1.06024e+7 
           2595      1.05846e+7 
           2605      1.05485e+7 
           2615      1.05258e+7 
           2625      1.05628e+7 
           2635      1.06727e+7 
           2645      1.09486e+7 
           2655      1.09646e+7 
           2665       1.0901e+7 
           2675      1.09524e+7 
           2685      1.10465e+7 
           2695      1.10435e+7 
           2705      1.10882e+7 
           2715      1.09954e+7 
           2725      1.10189e+7 
           2735      1.10769e+7 
           2745      1.07929e+7 
           2755      1.08929e+7 
           2765      1.10911e+7 
           2775       1.1275e+7 
           2785      1.12889e+7 
           2795      1.07506e+7 
           2805      1.10711e+7 
           2815      1.14104e+7 
           2825      1.14299e+7 
           2835      1.13911e+7 
           2845      1.14364e+7 
           2855      1.13476e+7 
           2865      1.14296e+7 
           2875      1.15025e+7 
           2885      1.15157e+7 
           2895      1.15954e+7 
           2910      1.16474e+7 
           2930      1.16254e+7 
           2950      1.16545e+7 
           2970      1.17581e+7 
           2990      1.17902e+7 
           3010      1.18693e+7 
           3030      1.19159e+7 
           3050      1.19553e+7 
           3070      1.19467e+7 
           3090      1.20305e+7 
           3110      1.20675e+7 
           3130      1.20984e+7 
           3150      1.21267e+7 
           3170      1.21691e+7 
           3190      1.21633e+7 
           3210      1.22319e+7 
           3230      1.22011e+7 
           3250       1.2285e+7 
           3270      1.23466e+7 
           3290      1.23828e+7 
           3310      1.24131e+7 
           3330      1.24173e+7 
           3350      1.24118e+7 
           3370      1.24534e+7 
           3390      1.24826e+7 
           3410      1.25391e+7 
           3430      1.25611e+7 
           3450      1.25814e+7 
           3470      1.25995e+7 
           3490      1.26216e+7 
           3510      1.26423e+7 
           3530      1.26606e+7 
           3550      1.26771e+7 
           3570      1.26883e+7 
           3590      1.27028e+7 
           3610      1.27165e+7 
           3630      1.27278e+7 
           3640      1.27307e+7 
           3650      1.27923e+7 
           3670      1.26963e+7 
           3690      1.37526e+7 
           3710      1.82202e+7 
           3730      2.51449e+7 
           3750      3.73287e+7 
           3770      3.93855e+7 
           3790      4.65925e+7 
           3810      5.29328e+7 
           3830      4.27531e+7 
           3850      5.67718e+7 
           3870      6.08652e+7 
           3890      3.78793e+7 
           3910      5.96706e+7 
           3930      5.98356e+7 
           3950       5.8572e+7 
           3970       3.6184e+7 
           3990      5.64546e+7 
           4010      5.81326e+7 
           4030      5.75942e+7 
           4050      5.69073e+7 
           4070      5.58263e+7 
           4090      4.81922e+7 
           4110      3.76214e+7 
           4130      5.35358e+7 
           4150      5.36204e+7 
           4170      5.31701e+7 
           4190      5.25865e+7 
           4210      5.19775e+7 
           4230      5.13671e+7 
           4250      5.07868e+7 
           4270      5.01799e+7 
           4290      4.94552e+7 
           4310      4.84274e+7 
           4330      4.03918e+7 
           4350      3.45124e+7 
           4370      4.66451e+7 
           4390      4.66941e+7 
           4410      4.63335e+7 
           4430      4.58643e+7 
           4450      4.53521e+7 
           4470      4.48359e+7 
           4490      4.43533e+7 
           4510      4.38738e+7 
           4530      4.33954e+7 
           4550      4.29147e+7 
           4570      4.24605e+7 
           4590      4.20072e+7 
           4610       4.1562e+7 
           4630      4.11141e+7 
           4650      4.06793e+7 
           4670      4.02487e+7 
           4690      3.98222e+7 
           4710      3.93981e+7 
           4730      3.89899e+7 
           4750      3.85821e+7 
           4770      3.81798e+7 
           4790      3.77417e+7 
           4810       3.7238e+7 
           4830      3.64894e+7 
           4850      3.15157e+7 
           4870      2.57677e+7 
           4890      3.51032e+7 
           4910       3.5335e+7 
           4930      3.50939e+7 
           4950      3.48016e+7 
           4970      3.44535e+7 
           4990      3.41082e+7 
           5010      3.37629e+7 
           5030      3.34324e+7 
           5050      3.31002e+7 
           5070      3.27736e+7 
           5090      3.24511e+7 
           5110      3.21327e+7 
           5130      3.18182e+7 
           5150      3.15076e+7 
           5170      3.11854e+7 
           5190       3.0891e+7 
           5210      3.06015e+7 
           5230      3.03046e+7 
           5250      3.00167e+7 
           5270      2.97283e+7 
           5290      2.94474e+7 
           5310      2.91658e+7 
           5330      2.88903e+7 
           5350      2.86195e+7 
           5370      2.83492e+7 
           5390      2.80834e+7 
           5410      2.78221e+7 
           5430      2.75626e+7 
           5450      2.73061e+7 
           5470      2.70539e+7 
           5490      2.68047e+7 
           5510      2.65571e+7 
           5530      2.63136e+7 
           5550      2.60742e+7 
           5570      2.58363e+7 
           5590      2.56011e+7 
           5610      2.53698e+7 
           5630      2.51411e+7 
           5650      2.49139e+7 
           5670      2.46904e+7 
           5690      2.44694e+7 
           5710      2.42509e+7 
           5730      2.40349e+7 
           5750      2.38224e+7 
           5770      2.36111e+7 
           5790      2.34022e+7 
           5810      2.31968e+7 
           5830      2.29935e+7 
           5850      2.27926e+7 
           5870      2.25894e+7 
           5890       2.2395e+7 
           5910      2.22027e+7 
           5930      2.20103e+7 
           5950        2.182e+7 
           5970      2.16329e+7 
           5990      2.14466e+7 
           6010      2.12635e+7 
           6030      2.10822e+7 
           6050      2.09029e+7 
           6070      2.07255e+7 
           6090        2.055e+7 
           6110      2.03774e+7 
           6130      2.02055e+7 
           6150      2.00365e+7 
           6170      1.98682e+7 
           6190      1.97026e+7 
           6210      1.95388e+7 
           6230      1.93767e+7 
           6250      1.92162e+7 
           6270      1.90574e+7 
           6290      1.89002e+7 
           6310      1.87446e+7 
           6330      1.85916e+7 
           6350      1.84392e+7 
           6370      1.82883e+7 
           6390      1.81398e+7 
           6410      1.79929e+7 
           6430      1.78465e+7 
           6450      1.77016e+7 
           6470      1.75599e+7 
           6490      1.73803e+7 
           6510      1.71972e+7 
           6530      1.69101e+7 
           6550      1.54722e+7 
           6570      1.24038e+7 
           6590      1.62852e+7 
           6610      1.64851e+7 
           6630      1.64201e+7 
           6650      1.63334e+7 
           6670       1.6211e+7 
           6690      1.60839e+7 
           6710      1.59581e+7 
           6730      1.58334e+7 
           6750        1.571e+7 
           6770      1.55877e+7 
           6790      1.54666e+7 
           6810      1.53466e+7 
           6830      1.52278e+7 
           6850      1.51101e+7 
           6870      1.49943e+7 
           6890      1.48788e+7 
           6910      1.47644e+7 
           6930      1.46519e+7 
           6950      1.45404e+7 
           6970      1.44291e+7 
           6990      1.43197e+7 
           7010      1.42113e+7 
           7030      1.41038e+7 
           7050      1.39974e+7 
           7070      1.38919e+7 
           7090      1.37875e+7 
           7110      1.36839e+7 
           7130      1.35813e+7 
           7150      1.34797e+7 
           7170      1.33796e+7 
           7190      1.32798e+7 
           7210      1.31809e+7 
           7230      1.30835e+7 
           7250      1.29871e+7 
           7270      1.28908e+7 
           7290       1.2796e+7 
           7310      1.27022e+7 
           7330      1.26084e+7 
           7350      1.25162e+7 
           7370      1.24247e+7 
           7390      1.23341e+7 
           7410      1.22443e+7 
           7430      1.21553e+7 
           7450       1.2067e+7 
           7470      1.19802e+7 
           7490      1.18935e+7 
           7510      1.18075e+7 
           7530      1.17229e+7 
           7550      1.16384e+7 
           7570      1.15553e+7 
           7590      1.14723e+7 
           7610      1.13906e+7 
           7630      1.13096e+7 
           7650      1.12287e+7 
           7670       1.1149e+7 
           7690      1.10701e+7 
           7710      1.09918e+7 
           7730      1.09142e+7 
           7750      1.08373e+7 
           7770      1.07591e+7 
           7790      1.06853e+7 
           7810      1.06109e+7 
           7830      1.05364e+7 
           7850      1.04627e+7 
           7870      1.03895e+7 
           7890      1.03175e+7 
           7910      1.02461e+7 
           7930      1.01747e+7 
           7950      1.01045e+7 
           7970      1.00349e+7 
           7990      9.96526e+6 
           8010      9.89677e+6 
           8030      9.82883e+6 
           8050      9.76145e+6 
           8070      9.69462e+6 
           8090      9.62832e+6 
           8110      9.56256e+6 
           8130      9.49733e+6 
           8150      9.43319e+6 
           8170      9.36901e+6 
           8190      9.30533e+6 
           8210      9.26564e+6 
           8230      9.20842e+6 
           8250      9.15276e+6 
           8270      9.09312e+6 
           8290      9.02628e+6 
           8310       8.9436e+6 
           8330      8.85673e+6 
           8350      8.81381e+6 
           8370      8.61902e+6 
           8390      8.62026e+6 
           8410      8.53563e+6 
           8430      8.70139e+6 
           8450      8.66922e+6 
           8470      8.25602e+6 
           8490      8.99278e+6 
           8510       8.1687e+6 
           8530      9.11782e+6 
           8550      7.95846e+6 
           8570      9.27142e+6 
