# Kurucz ODFNEW /NOVER (2003)
# teff = 7750 K (value for the effective temperature for the model. Temperatures are given in K)
# logg = 2 log(cm/s2) (value for Log(G) for the model.)
# meta = -4  (value for the Metallicity for the model.)
# lh = 1.25  (l/Hp where l is the  mixing length of the convective element and Hp is the pressure scale height)
# vtur = 2 km/s (Microturbulence velocity)
# alpha = 0.4  (Alpha)
#
# column 1: WAVELENGTH (ANGSTROM), Wavelength in Angstrom
# column 2: FLUX (ERG/CM2/S/A), Flux in erg/cm2/s/A
          147.2     1.73866e-35 
            151     1.65225e-35 
          155.2     1.56403e-35 
          158.8     1.49392e-35 
            162     1.43549e-35 
            166     1.36714e-35 
          170.3     1.29897e-35 
          173.4     1.25294e-35 
          176.8     1.20522e-35 
          180.2     1.16017e-35 
          181.7     1.14109e-35 
          186.1     1.08777e-35 
            191     1.03267e-35 
          193.9     1.00201e-35 
          198.4     9.57076e-36 
          201.8     9.25097e-36 
            205     8.96441e-36 
          210.5     8.50208e-36 
          216.2     8.05969e-36 
          219.8     7.79784e-36 
            223     7.57565e-36 
          226.8     7.32392e-36 
            230     7.12154e-36 
            234     6.88015e-36 
            240     6.54044e-36 
          246.5     6.20006e-36 
          252.4     5.91358e-36 
          256.8     5.71267e-36 
            260     5.57292e-36 
            264     5.40532e-36 
          268.5     5.22566e-36 
          273.5     5.03634e-36 
          278.5     4.85712e-36 
            284     4.67082e-36 
            290     4.47954e-36 
            296     4.29978e-36 
            301     3.67902e-23 
            308     2.58584e-22 
            318     3.09471e-21 
            328     3.12942e-20 
            338     2.74339e-19 
            348     2.11276e-18 
            357     1.19798e-17 
            366     6.22567e-17 
            375     2.97981e-16 
            385      1.5518e-15 
            395     7.40638e-15 
            405     3.26373e-14 
            414     1.16332e-13 
            422     3.43212e-13 
            430     9.71184e-13 
            441     3.80795e-12 
            451     1.24159e-11 
            460     3.43579e-11 
            470     1.01524e-10 
            480     2.86079e-10 
            490      7.7155e-10 
            500      1.99486e-9 
            506      4.61532e-9 
            512      8.85029e-9 
            520      1.77539e-8 
            530      4.14241e-8 
            540      9.19835e-8 
            550      2.00669e-7 
            560      4.22427e-7 
            570      8.64878e-7 
            580      1.70682e-6 
            590       3.3516e-6 
            600      6.36401e-6 
            610      1.18162e-5 
            620      2.14748e-5 
            630      3.82387e-5 
            640      6.68235e-5 
            650     0.000114659 
            658     0.000174345 
            665     0.000249299 
            675     0.000409832 
            685     0.000663296 
            695      0.00105767 
            705      0.00166268 
            716      0.00269193 
            726      0.00411526 
            735      0.00596847 
            745      0.00891824 
            755       0.0131698 
            765       0.0192348 
            775       0.0277994 
            785        0.039772 
            795        0.056345 
            805       0.0790811 
            815        0.109992 
            825        0.151677 
            835        0.207437 
            845        0.281482 
            855        0.378907 
            865        0.506267 
            875        0.671556 
            885        0.884651 
            895         1.15757 
            905         1.50494 
            915         3.34479 
            925         13.9601 
            935         23.6779 
            945         42.3461 
            955         67.8136 
            965         70.8371 
            975         47.4961 
            985         170.995 
            995          205.72 
           1005         180.624 
           1015         130.009 
           1025         126.043 
           1035         216.389 
           1045         433.298 
           1055         1134.53 
           1065         18037.9 
           1075         60260.4 
           1085          108917 
           1095         92276.4 
           1105         75847.3 
           1115         41466.1 
           1125         19006.1 
           1135         7628.02 
           1145         2332.69 
           1155         1377.27 
           1165         1178.77 
           1175         741.876 
           1185         3676.28 
           1195          1304.2 
           1205         997.589 
           1215         834.293 
           1225         1224.61 
           1235         2011.12 
           1245         755.488 
           1255          1289.9 
           1265         2536.45 
           1275         5138.24 
           1285         5681.43 
           1295         9845.59 
           1305         33376.5 
           1315         63859.2 
           1325          159666 
           1335          275388 
           1345          436908 
           1355          595495 
           1365          831434 
           1375          921945 
           1385          955736 
           1395      1.00792e+6 
           1405      1.66526e+6 
           1415      2.73013e+6 
           1425      3.04964e+6 
           1435      3.40629e+6 
           1442      3.87009e+6 
           1447      3.72805e+6 
           1455      4.36303e+6 
           1465      4.24785e+6 
           1475      4.76292e+6 
           1485      5.02648e+6 
           1495      5.36972e+6 
           1505      5.80905e+6 
           1512      6.03586e+6 
           1517       5.7054e+6 
           1525      6.10089e+6 
           1535      6.17339e+6 
           1545      6.04828e+6 
           1555      6.04942e+6 
           1565      5.44446e+6 
           1575      5.56781e+6 
           1585      5.40405e+6 
           1595      5.40832e+6 
           1605      5.34743e+6 
           1615      6.53182e+6 
           1625      7.62896e+6 
           1635       8.8512e+6 
           1645      1.02376e+7 
           1655       1.0069e+7 
           1665       1.1609e+7 
           1672      1.15389e+7 
           1677      1.18673e+7 
           1685      1.22565e+7 
           1695      1.22705e+7 
           1705      1.23494e+7 
           1715       1.2743e+7 
           1725      1.27808e+7 
           1735      1.30757e+7 
           1745      1.29584e+7 
           1755      1.31292e+7 
           1765      1.31392e+7 
           1775      1.32606e+7 
           1785      1.32035e+7 
           1795       1.3438e+7 
           1805      1.32617e+7 
           1815      1.33024e+7 
           1825      1.32905e+7 
           1835      1.34392e+7 
           1845      1.32784e+7 
           1855      1.34794e+7 
           1865      1.35789e+7 
           1875      1.36102e+7 
           1885      1.36464e+7 
           1895      1.36769e+7 
           1905      1.35732e+7 
           1915      1.36886e+7 
           1925      1.37542e+7 
           1935       1.3555e+7 
           1945      1.38024e+7 
           1955      1.38104e+7 
           1967      1.38322e+7 
           1976      1.37885e+7 
           1984      1.37809e+7 
           1995       1.3849e+7 
           2005      1.38002e+7 
           2015      1.37322e+7 
           2025      1.37136e+7 
           2035      1.38594e+7 
           2045      1.38548e+7 
           2055      1.36837e+7 
           2065       1.3737e+7 
           2074      1.39421e+7 
           2078      1.39487e+7 
           2085      1.39418e+7 
           2095      1.39472e+7 
           2105      1.39613e+7 
           2115      1.39567e+7 
           2125      1.39141e+7 
           2135      1.39271e+7 
           2145      1.39989e+7 
           2155      1.39845e+7 
           2165      1.38291e+7 
           2175      1.38957e+7 
           2185      1.39882e+7 
           2195      1.40737e+7 
           2205      1.39588e+7 
           2215      1.37731e+7 
           2225      1.38672e+7 
           2235      1.40956e+7 
           2245      1.40503e+7 
           2255      1.38934e+7 
           2265      1.37996e+7 
           2275       1.4025e+7 
           2285       1.4049e+7 
           2295      1.40034e+7 
           2305      1.40913e+7 
           2315      1.40732e+7 
           2325      1.40764e+7 
           2335      1.39568e+7 
           2345      1.35859e+7 
           2355      1.40189e+7 
           2365      1.36528e+7 
           2375      1.39768e+7 
           2385      1.35003e+7 
           2395      1.39184e+7 
           2405      1.39482e+7 
           2415      1.39569e+7 
           2425      1.42802e+7 
           2435      1.42077e+7 
           2445      1.42354e+7 
           2455       1.4314e+7 
           2465      1.42353e+7 
           2475      1.42411e+7 
           2485      1.42395e+7 
           2495      1.41728e+7 
           2505      1.43709e+7 
           2513       1.4205e+7 
           2518      1.42467e+7 
           2525      1.41766e+7 
           2535      1.41096e+7 
           2545      1.42909e+7 
           2555      1.44736e+7 
           2565      1.43329e+7 
           2575      1.44212e+7 
           2585      1.44479e+7 
           2595      1.44224e+7 
           2605      1.43791e+7 
           2615      1.43426e+7 
           2625      1.43653e+7 
           2635      1.44675e+7 
           2645       1.4773e+7 
           2655      1.47816e+7 
           2665      1.47117e+7 
           2675      1.47509e+7 
           2685       1.4832e+7 
           2695      1.48222e+7 
           2705      1.48555e+7 
           2715      1.47457e+7 
           2725      1.47447e+7 
           2735      1.47953e+7 
           2745      1.44442e+7 
           2755      1.45668e+7 
           2765      1.47893e+7 
           2775      1.49745e+7 
           2785      1.49769e+7 
           2795      1.43761e+7 
           2805      1.47282e+7 
           2815      1.50702e+7 
           2825      1.50803e+7 
           2835      1.50364e+7 
           2845      1.50747e+7 
           2855       1.4961e+7 
           2865      1.50582e+7 
           2875      1.51159e+7 
           2885      1.51163e+7 
           2895      1.51856e+7 
           2910      1.52207e+7 
           2930      1.51808e+7 
           2950      1.51956e+7 
           2970      1.52833e+7 
           2990      1.52982e+7 
           3010      1.53551e+7 
           3030      1.53833e+7 
           3050      1.54061e+7 
           3070      1.53915e+7 
           3090      1.54486e+7 
           3110      1.54702e+7 
           3130       1.5485e+7 
           3150      1.54967e+7 
           3170      1.55226e+7 
           3190      1.55022e+7 
           3210      1.55524e+7 
           3230      1.55113e+7 
           3250      1.55756e+7 
           3270      1.56133e+7 
           3290      1.56322e+7 
           3310      1.56453e+7 
           3330      1.56384e+7 
           3350      1.56221e+7 
           3370      1.56429e+7 
           3390      1.56562e+7 
           3410      1.56885e+7 
           3430      1.56937e+7 
           3450      1.56981e+7 
           3470      1.57001e+7 
           3490      1.57047e+7 
           3510      1.57078e+7 
           3530      1.57096e+7 
           3550      1.57092e+7 
           3570      1.57048e+7 
           3590      1.57025e+7 
           3610      1.56993e+7 
           3630       1.5694e+7 
           3640      1.56898e+7 
           3650      1.57617e+7 
           3670      1.55705e+7 
           3690      1.62455e+7 
           3710       2.0738e+7 
           3730      2.67422e+7 
           3750      3.89655e+7 
           3770      4.15961e+7 
           3790      5.00545e+7 
           3810       5.7747e+7 
           3830      4.62305e+7 
           3850       6.2648e+7 
           3870      6.83938e+7 
           3890      4.02818e+7 
           3910      6.71889e+7 
           3930      6.83654e+7 
           3950      6.60233e+7 
           3970      3.85815e+7 
           3990      6.32982e+7 
           4010      6.63583e+7 
           4030      6.58405e+7 
           4050      6.50104e+7 
           4070      6.35202e+7 
           4090      5.29778e+7 
           4110      4.08218e+7 
           4130      6.06477e+7 
           4150      6.11364e+7 
           4170      6.06228e+7 
           4190      6.00283e+7 
           4210      5.93169e+7 
           4230      5.86036e+7 
           4250      5.79094e+7 
           4270      5.71079e+7 
           4290      5.62594e+7 
           4310      5.48238e+7 
           4330      4.41653e+7 
           4350      3.75366e+7 
           4370      5.26363e+7 
           4390      5.30159e+7 
           4410      5.26059e+7 
           4430      5.21396e+7 
           4450      5.15445e+7 
           4470      5.09373e+7 
           4490      5.03761e+7 
           4510      4.98173e+7 
           4530      4.92591e+7 
           4550      4.87032e+7 
           4570       4.8166e+7 
           4590      4.76346e+7 
           4610       4.7114e+7 
           4630      4.65936e+7 
           4650      4.60857e+7 
           4670      4.55829e+7 
           4690      4.50871e+7 
           4710      4.45929e+7 
           4730      4.41189e+7 
           4750      4.36447e+7 
           4770      4.31735e+7 
           4790      4.25986e+7 
           4810      4.20041e+7 
           4830      4.09577e+7 
           4850      3.44017e+7 
           4870      2.79439e+7 
           4890      3.92388e+7 
           4910      3.97808e+7 
           4930      3.95393e+7 
           4950      3.92435e+7 
           4970      3.88536e+7 
           4990       3.8455e+7 
           5010      3.80555e+7 
           5030      3.76716e+7 
           5050      3.72881e+7 
           5070      3.69095e+7 
           5090      3.65357e+7 
           5110       3.6168e+7 
           5130       3.5805e+7 
           5150      3.54464e+7 
           5170      3.50797e+7 
           5190      3.47371e+7 
           5210      3.44002e+7 
           5230      3.40577e+7 
           5250      3.37249e+7 
           5270      3.33921e+7 
           5290      3.30674e+7 
           5310      3.27439e+7 
           5330       3.2427e+7 
           5350      3.21127e+7 
           5370       3.1802e+7 
           5390      3.14965e+7 
           5410      3.11945e+7 
           5430      3.08961e+7 
           5450      3.06013e+7 
           5470      3.03112e+7 
           5490      3.00245e+7 
           5510      2.97399e+7 
           5530      2.94599e+7 
           5550      2.91844e+7 
           5570      2.89108e+7 
           5590      2.86416e+7 
           5610      2.83755e+7 
           5630      2.81125e+7 
           5650      2.78524e+7 
           5670      2.75953e+7 
           5690      2.73424e+7 
           5710      2.70922e+7 
           5730      2.68438e+7 
           5750      2.65992e+7 
           5770      2.63574e+7 
           5790      2.61195e+7 
           5810      2.58831e+7 
           5830      2.56504e+7 
           5850      2.54202e+7 
           5870      2.51883e+7 
           5890      2.49665e+7 
           5910      2.47449e+7 
           5930      2.45247e+7 
           5950       2.4308e+7 
           5970      2.40936e+7 
           5990      2.38815e+7 
           6010      2.36717e+7 
           6030      2.34642e+7 
           6050      2.32599e+7 
           6070      2.30568e+7 
           6090      2.28568e+7 
           6110       2.2659e+7 
           6130      2.24633e+7 
           6150      2.22706e+7 
           6170      2.20789e+7 
           6190      2.18903e+7 
           6210      2.17026e+7 
           6230      2.15179e+7 
           6250      2.13351e+7 
           6270      2.11541e+7 
           6290      2.09751e+7 
           6310      2.07988e+7 
           6330      2.06234e+7 
           6350      2.04498e+7 
           6370      2.02788e+7 
           6390      2.01097e+7 
           6410      1.99422e+7 
           6430      1.97764e+7 
           6450      1.96114e+7 
           6470      1.94426e+7 
           6490      1.92344e+7 
           6510      1.90195e+7 
           6530      1.86567e+7 
           6550      1.68877e+7 
           6570      1.35366e+7 
           6590      1.79013e+7 
           6610      1.82027e+7 
           6630      1.81462e+7 
           6650      1.80423e+7 
           6670      1.79199e+7 
           6690      1.77758e+7 
           6710      1.76332e+7 
           6730      1.74911e+7 
           6750      1.73513e+7 
           6770      1.72127e+7 
           6790      1.70763e+7 
           6810      1.69404e+7 
           6830      1.68058e+7 
           6850      1.66733e+7 
           6870      1.65413e+7 
           6890      1.64112e+7 
           6910      1.62825e+7 
           6930      1.61549e+7 
           6950      1.60285e+7 
           6970      1.59033e+7 
           6990      1.57793e+7 
           7010      1.56564e+7 
           7030      1.55354e+7 
           7050      1.54148e+7 
           7070      1.52961e+7 
           7090      1.51784e+7 
           7110      1.50618e+7 
           7130      1.49463e+7 
           7150      1.48319e+7 
           7170      1.47185e+7 
           7190      1.46061e+7 
           7210      1.44947e+7 
           7230      1.43851e+7 
           7250      1.42758e+7 
           7270      1.41681e+7 
           7290      1.40607e+7 
           7310       1.3955e+7 
           7330      1.38502e+7 
           7350      1.37463e+7 
           7370      1.36433e+7 
           7390      1.35413e+7 
           7410      1.34409e+7 
           7430      1.33406e+7 
           7450      1.32413e+7 
           7470      1.31435e+7 
           7490      1.30458e+7 
           7510      1.29497e+7 
           7530      1.28544e+7 
           7550        1.276e+7 
           7570      1.26664e+7 
           7590      1.25735e+7 
           7610      1.24815e+7 
           7630      1.23903e+7 
           7650      1.23005e+7 
           7670      1.22108e+7 
           7690      1.21225e+7 
           7710      1.20344e+7 
           7730      1.19476e+7 
           7750      1.18615e+7 
           7770      1.17737e+7 
           7790      1.16916e+7 
           7810      1.16077e+7 
           7830      1.15245e+7 
           7850       1.1442e+7 
           7870      1.13602e+7 
           7890      1.12797e+7 
           7910      1.11993e+7 
           7930      1.11201e+7 
           7950      1.10416e+7 
           7970      1.09637e+7 
           7990      1.08858e+7 
           8010      1.08092e+7 
           8030      1.07332e+7 
           8050      1.06585e+7 
           8070      1.05837e+7 
           8090      1.05096e+7 
           8110      1.04361e+7 
           8130      1.03637e+7 
           8150      1.02913e+7 
           8170      1.02201e+7 
           8190      1.01495e+7 
           8210      1.01034e+7 
           8230      1.00399e+7 
           8250      9.97748e+6 
           8270      9.91441e+6 
           8290      9.84525e+6 
           8310      9.76464e+6 
           8330      9.67437e+6 
           8350      9.60755e+6 
           8370      9.43425e+6 
           8390      9.38825e+6 
           8410       9.2792e+6 
           8430      9.39426e+6 
           8450      9.36251e+6 
           8470      8.89404e+6 
           8490      9.64349e+6 
           8510      8.75081e+6 
           8530      9.76191e+6 
           8550      8.46143e+6 
           8570      9.91773e+6 
           8590      9.19511e+6 
