# Kurucz ODFNEW /NOVER (2003)
# teff = 18000 K (value for the effective temperature for the model. Temperatures are given in K)
# logg = 4 log(cm/s2) (value for Log(G) for the model.)
# meta = 0  (value for the Metallicity for the model.)
# lh = 1.25  (l/Hp where l is the  mixing length of the convective element and Hp is the pressure scale height)
# vtur = 2 km/s (Microturbulence velocity)
# alpha = 0  (Alpha)
#
# column 1: WAVELENGTH (ANGSTROM), Wavelength in Angstrom
# column 2: FLUX (ERG/CM2/S/A), Flux in erg/cm2/s/A
          147.2     4.25484e-23 
            151       5.329e-22 
          155.2     4.39806e-21 
          158.8     2.41119e-20 
            162     1.02607e-19 
            166     5.80174e-19 
          170.3      3.4111e-18 
          173.4     1.16015e-17 
          176.8     4.22693e-17 
          180.2     1.46784e-16 
          181.7     2.50435e-16 
          186.1     1.14444e-15 
            191     5.72865e-15 
          193.9     1.42667e-14 
          198.4     5.58482e-14 
          201.8      1.5092e-13 
            205     3.74112e-13 
          210.5     1.66284e-12 
          216.2     7.21761e-12 
          219.8     1.75537e-11 
            223     3.76964e-11 
          226.8      9.1007e-11 
            230     2.82106e-10 
            234     7.48216e-10 
            240      2.63573e-9 
          246.5      9.52701e-9 
          252.4      2.89293e-8 
          256.8       6.3285e-8 
            260      1.12216e-7 
            264      2.21889e-7 
          268.5      4.65366e-7 
          273.5      1.02887e-6 
          278.5      2.21635e-6 
            284      4.99684e-6 
            290      1.16732e-5 
            296      2.62901e-5 
            301      5.05086e-5 
            308     0.000120591 
            318     0.000397651 
            328       0.0012012 
            338      0.00341762 
            348      0.00910311 
            357       0.0210669 
            366       0.0466145 
            375       0.0983662 
            385        0.216791 
            395        0.457194 
            405        0.928542 
            414         1.70447 
            422         2.84995 
            430         4.66236 
            441         8.95851 
            451         15.7124 
            460         25.4328 
            470         42.4959 
            480         69.3107 
            490         110.756 
            500         173.265 
            506         1531.87 
            512         7307.99 
            520         9624.57 
            530         14190.7 
            540         17154.4 
            550         26491.9 
            560         34179.5 
            570           45836 
            580           50135 
            590         71914.1 
            600         94255.6 
            610          121908 
            620          147997 
            630          182366 
            640          211929 
            650          242195 
            658          309657 
            665          344149 
            675          401324 
            685          471802 
            695          576062 
            705          666004 
            716          787400 
            726          902805 
            735      1.01877e+6 
            745      1.19577e+6 
            755       1.3756e+6 
            765      1.57193e+6 
            775      1.79594e+6 
            785      2.03983e+6 
            795      2.26941e+6 
            805      2.54073e+6 
            815      2.81067e+6 
            825      3.17756e+6 
            835      3.41627e+6 
            845      3.82193e+6 
            855      4.22613e+6 
            865      4.69008e+6 
            875      5.21086e+6 
            885      5.80083e+6 
            895      6.34494e+6 
            905      6.67605e+6 
            915      1.31343e+7 
            925      6.02371e+7 
            935       1.7756e+8 
            945      7.30657e+8 
            955      1.71936e+9 
            965      2.41757e+9 
            975      4.09731e+8 
            985      3.15595e+9 
            995      3.20676e+9 
           1005      3.94847e+9 
           1015       3.4359e+9 
           1025      5.71607e+8 
           1035      1.99094e+9 
           1045      4.95015e+9 
           1055      4.96541e+9 
           1065      3.92664e+9 
           1075       4.8932e+9 
           1085      4.24916e+9 
           1095      4.98693e+9 
           1105      4.31764e+9 
           1115      4.13085e+9 
           1125      3.95713e+9 
           1135      5.03641e+9 
           1145      4.38389e+9 
           1155      4.70423e+9 
           1165      4.98716e+9 
           1175      3.80052e+9 
           1185      5.01689e+9 
           1195      3.05863e+9 
           1205      1.71949e+9 
           1215      5.40101e+8 
           1225      2.46221e+9 
           1235      4.68805e+9 
           1245      5.11323e+9 
           1255      5.00265e+9 
           1265      4.39581e+9 
           1275      4.87474e+9 
           1285      5.11242e+9 
           1295      3.29167e+9 
           1305      2.91579e+9 
           1315      4.75153e+9 
           1325      4.51464e+9 
           1335      3.87927e+9 
           1345      4.65564e+9 
           1355      4.46632e+9 
           1365      3.94639e+9 
           1375      4.05896e+9 
           1385      4.13038e+9 
           1395       3.6749e+9 
           1405      3.85274e+9 
           1415       3.7155e+9 
           1425      3.83255e+9 
           1435      3.81811e+9 
           1442      3.99745e+9 
           1447      3.95134e+9 
           1455      3.85605e+9 
           1465      3.60067e+9 
           1475      3.56448e+9 
           1485      3.50861e+9 
           1495      3.51458e+9 
           1505      3.27859e+9 
           1512      2.94987e+9 
           1517       3.1197e+9 
           1525      3.15574e+9 
           1535       2.8332e+9 
           1545      2.93789e+9 
           1555      2.77076e+9 
           1565      2.80698e+9 
           1575      2.95187e+9 
           1585      2.99302e+9 
           1595      3.02847e+9 
           1605       2.9477e+9 
           1615      2.95652e+9 
           1625       2.8064e+9 
           1635      2.94241e+9 
           1645       2.9261e+9 
           1655      2.71411e+9 
           1665      2.94415e+9 
           1672      2.80379e+9 
           1677      2.86747e+9 
           1685       2.9304e+9 
           1695      2.76677e+9 
           1705      2.62788e+9 
           1715      2.46655e+9 
           1725      2.43955e+9 
           1735       2.5667e+9 
           1745      2.46907e+9 
           1755      2.57079e+9 
           1765      2.37074e+9 
           1775      2.39241e+9 
           1785      2.42267e+9 
           1795      2.51969e+9 
           1805      2.51116e+9 
           1815      2.27841e+9 
           1825      2.35779e+9 
           1835      2.24423e+9 
           1845      2.07842e+9 
           1855      1.99268e+9 
           1865      2.04198e+9 
           1875      2.23265e+9 
           1885      2.01606e+9 
           1895      1.89213e+9 
           1905      2.04828e+9 
           1915       1.9201e+9 
           1925      1.86991e+9 
           1935      1.94773e+9 
           1945      1.97296e+9 
           1955      1.82183e+9 
           1967      1.97776e+9 
           1976       2.0443e+9 
           1984      1.90219e+9 
           1995      1.84549e+9 
           2005      1.90238e+9 
           2015      1.82639e+9 
           2025      1.93968e+9 
           2035      1.78793e+9 
           2045      1.81914e+9 
           2055      1.74224e+9 
           2065      1.77029e+9 
           2074      1.84665e+9 
           2078        1.712e+9 
           2085      1.78276e+9 
           2095      1.67746e+9 
           2105      1.71121e+9 
           2115      1.70871e+9 
           2125       1.7338e+9 
           2135      1.66131e+9 
           2145      1.62752e+9 
           2155      1.68213e+9 
           2165      1.64252e+9 
           2175      1.62275e+9 
           2185      1.57289e+9 
           2195      1.60895e+9 
           2205      1.56913e+9 
           2215      1.52466e+9 
           2225      1.46525e+9 
           2235      1.51922e+9 
           2245      1.48546e+9 
           2255      1.42712e+9 
           2265      1.45692e+9 
           2275      1.46423e+9 
           2285      1.47099e+9 
           2295      1.41006e+9 
           2305      1.39041e+9 
           2315      1.34321e+9 
           2325      1.32798e+9 
           2335      1.27262e+9 
           2345      1.25103e+9 
           2355      1.27351e+9 
           2365      1.22808e+9 
           2375      1.23572e+9 
           2385      1.18783e+9 
           2395      1.23474e+9 
           2405      1.18118e+9 
           2415      1.19041e+9 
           2425      1.20355e+9 
           2435      1.15029e+9 
           2445      1.18205e+9 
           2455      1.16556e+9 
           2465      1.14875e+9 
           2475      1.12023e+9 
           2485      1.15138e+9 
           2495      1.11197e+9 
           2505      1.13979e+9 
           2513       1.0813e+9 
           2518      1.11522e+9 
           2525      1.06827e+9 
           2535      1.06197e+9 
           2545      1.03445e+9 
           2555       1.0637e+9 
           2565      1.04769e+9 
           2575       1.0723e+9 
           2585      1.06735e+9 
           2595      1.06221e+9 
           2605      1.03881e+9 
           2615      1.02994e+9 
           2625      1.02386e+9 
           2635       1.0212e+9 
           2645      1.03966e+9 
           2655      1.02992e+9 
           2665      9.95739e+8 
           2675       1.0071e+9 
           2685      9.96324e+8 
           2695      9.74213e+8 
           2705      9.72893e+8 
           2715      9.53115e+8 
           2725      9.40654e+8 
           2735      9.54487e+8 
           2745      9.05198e+8 
           2755      9.01021e+8 
           2765      9.04912e+8 
           2775      9.16601e+8 
           2785      9.08428e+8 
           2795      8.67266e+8 
           2805      8.86901e+8 
           2815       8.9126e+8 
           2825      8.76512e+8 
           2835      8.43622e+8 
           2845        8.384e+8 
           2855      8.40625e+8 
           2865      8.49592e+8 
           2875       8.3453e+8 
           2885       8.3138e+8 
           2895      8.25197e+8 
           2910      8.21383e+8 
           2930      8.00642e+8 
           2950       7.8255e+8 
           2970       7.7495e+8 
           2990      7.59097e+8 
           3010      7.51122e+8 
           3030      7.42593e+8 
           3050      7.27459e+8 
           3070      7.14414e+8 
           3090      7.02671e+8 
           3110      6.89183e+8 
           3130      6.78981e+8 
           3150      6.67463e+8 
           3170      6.54944e+8 
           3190      6.36539e+8 
           3210      6.32471e+8 
           3230      6.22893e+8 
           3250      6.13039e+8 
           3270      6.03837e+8 
           3290      5.93838e+8 
           3310      5.85445e+8 
           3330      5.75342e+8 
           3350      5.64599e+8 
           3370      5.56192e+8 
           3390      5.47453e+8 
           3410      5.39203e+8 
           3430      5.29187e+8 
           3450      5.19714e+8 
           3470      5.12113e+8 
           3490      5.04158e+8 
           3510      4.97572e+8 
           3530      4.90499e+8 
           3550      4.82955e+8 
           3570       4.7679e+8 
           3590      4.66845e+8 
           3610      4.60328e+8 
           3630      4.53382e+8 
           3640      4.51975e+8 
           3650      4.46787e+8 
           3670      4.41595e+8 
           3690      4.30679e+8 
           3710      4.19315e+8 
           3730      4.07519e+8 
           3750      4.51298e+8 
           3770      4.60253e+8 
           3790       4.9926e+8 
           3810      5.30496e+8 
           3830       4.5252e+8 
           3850      5.50613e+8 
           3870      5.64155e+8 
           3890      4.24502e+8 
           3910      5.60211e+8 
           3930      5.48426e+8 
           3950      5.42935e+8 
           3970      3.96619e+8 
           3990      5.19088e+8 
           4010      5.23037e+8 
           4030      4.91484e+8 
           4050      5.12389e+8 
           4070      4.97245e+8 
           4090      4.49289e+8 
           4110      3.82147e+8 
           4130      4.65432e+8 
           4150      4.65265e+8 
           4170      4.62611e+8 
           4190       4.5857e+8 
           4210      4.52545e+8 
           4230      4.44528e+8 
           4250      4.36745e+8 
           4270      4.24358e+8 
           4290      4.22293e+8 
           4310      4.12238e+8 
           4330      3.62385e+8 
           4350      3.25872e+8 
           4370      3.91231e+8 
           4390      3.79816e+8 
           4410      3.85057e+8 
           4430      3.77538e+8 
           4450      3.75065e+8 
           4470      3.52994e+8 
           4490      3.60152e+8 
           4510      3.58854e+8 
           4530      3.52149e+8 
           4550      3.47241e+8 
           4570      3.42837e+8 
           4590       3.3771e+8 
           4610      3.32411e+8 
           4630      3.26593e+8 
           4650      3.21925e+8 
           4670      3.18224e+8 
           4690      3.14299e+8 
           4710      3.03569e+8 
           4730      3.02894e+8 
           4750      2.98345e+8 
           4770      2.97106e+8 
           4790      2.92184e+8 
           4810      2.86047e+8 
           4830       2.8034e+8 
           4850      2.52792e+8 
           4870      2.21651e+8 
           4890      2.68052e+8 
           4910      2.66966e+8 
           4930       2.5755e+8 
           4950      2.61116e+8 
           4970      2.58027e+8 
           4990      2.54042e+8 
           5010      2.45008e+8 
           5030      2.46206e+8 
           5050      2.39636e+8 
           5070      2.40431e+8 
           5090      2.37018e+8 
           5110      2.33262e+8 
           5130      2.29843e+8 
           5150      2.26457e+8 
           5170      2.24567e+8 
           5190      2.21679e+8 
           5210      2.16663e+8 
           5230      2.15808e+8 
           5250      2.13183e+8 
           5270      2.10035e+8 
           5290      2.08019e+8 
           5310      2.05039e+8 
           5330      2.02256e+8 
           5350      1.99167e+8 
           5370      1.97504e+8 
           5390      1.94951e+8 
           5410      1.92264e+8 
           5430      1.89266e+8 
           5450      1.87207e+8 
           5470      1.84695e+8 
           5490      1.82914e+8 
           5510      1.80435e+8 
           5530      1.78282e+8 
           5550      1.76217e+8 
           5570      1.73921e+8 
           5590      1.71871e+8 
           5610      1.69559e+8 
           5630      1.67928e+8 
           5650      1.64429e+8 
           5670      1.62708e+8 
           5690      1.61287e+8 
           5710      1.59743e+8 
           5730       1.5785e+8 
           5750      1.55933e+8 
           5770      1.54164e+8 
           5790      1.52258e+8 
           5810      1.50408e+8 
           5830      1.48602e+8 
           5850      1.46894e+8 
           5870      1.41139e+8 
           5890      1.42647e+8 
           5910      1.41683e+8 
           5930      1.40108e+8 
           5950      1.37943e+8 
           5970      1.36841e+8 
           5990      1.35005e+8 
           6010      1.33795e+8 
           6030      1.32184e+8 
           6050      1.30694e+8 
           6070       1.2919e+8 
           6090      1.27631e+8 
           6110      1.26303e+8 
           6130      1.24878e+8 
           6150      1.22952e+8 
           6170      1.21988e+8 
           6190       1.2069e+8 
           6210      1.19327e+8 
           6230      1.17912e+8 
           6250      1.16329e+8 
           6270       1.1532e+8 
           6290      1.14016e+8 
           6310      1.12614e+8 
           6330      1.11546e+8 
           6350       1.0962e+8 
           6370      1.08655e+8 
           6390      1.07837e+8 
           6410      1.06597e+8 
           6430      1.05634e+8 
           6450      1.04382e+8 
           6470      1.03216e+8 
           6490      1.02116e+8 
           6510      1.00725e+8 
           6530      9.91721e+7 
           6550      9.34129e+7 
           6570      8.14668e+7 
           6590      9.48327e+7 
           6610      9.54324e+7 
           6630      9.47546e+7 
           6650      9.38533e+7 
           6670      9.20465e+7 
           6690      9.11435e+7 
           6710      9.09105e+7 
           6730      8.99801e+7 
           6750      8.90673e+7 
           6770      8.81637e+7 
           6790      8.70078e+7 
           6810      8.62863e+7 
           6830      8.53617e+7 
           6850      8.45509e+7 
           6870      8.37001e+7 
           6890      8.28419e+7 
           6910      8.19922e+7 
           6930       8.1049e+7 
           6950      8.03492e+7 
           6970      7.95475e+7 
           6990      7.87229e+7 
           7010      7.79217e+7 
           7030      7.71435e+7 
           7050      7.62592e+7 
           7070       7.4578e+7 
           7090      7.48916e+7 
           7110      7.40692e+7 
           7130      7.33652e+7 
           7150      7.26466e+7 
           7170      7.19451e+7 
           7190       7.1267e+7 
           7210      7.05692e+7 
           7230      6.92799e+7 
           7250      6.91455e+7 
           7270      6.85246e+7 
           7290      6.74552e+7 
           7310      6.71951e+7 
           7330      6.65499e+7 
           7350      6.59225e+7 
           7370      6.52864e+7 
           7390       6.4661e+7 
           7410      6.40448e+7 
           7430      6.33648e+7 
           7450      6.28058e+7 
           7470      6.21519e+7 
           7490      6.15975e+7 
           7510      6.10214e+7 
           7530      6.04698e+7 
           7550      5.99099e+7 
           7570      5.93558e+7 
           7590      5.87844e+7 
           7610      5.82592e+7 
           7630      5.77135e+7 
           7650      5.71752e+7 
           7670      5.66469e+7 
           7690      5.61188e+7 
           7710      5.56069e+7 
           7730      5.50849e+7 
           7750      5.45846e+7 
           7770       5.3655e+7 
           7790      5.35934e+7 
           7810      5.30957e+7 
           7830        5.263e+7 
           7850      5.20394e+7 
           7870      5.15848e+7 
           7890       5.1032e+7 
           7910      5.07562e+7 
           7930      5.03213e+7 
           7950      4.97382e+7 
           7970      4.93893e+7 
           7990      4.87836e+7 
           8010      4.85344e+7 
           8030      4.80878e+7 
           8050      4.76556e+7 
           8070      4.72519e+7 
           8090      4.67918e+7 
           8110       4.6382e+7 
           8130      4.59939e+7 
           8150      4.55665e+7 
           8170      4.52173e+7 
           8190      4.47794e+7 
           8210      4.42485e+7 
           8230      4.38713e+7 
           8250      4.36444e+7 
           8270       4.3156e+7 
           8290      4.28647e+7 
           8310      4.25189e+7 
           8330      4.21641e+7 
           8350      4.16846e+7 
           8370      4.13813e+7 
           8390      4.10976e+7 
           8410      4.07052e+7 
           8430      4.02987e+7 
           8450      3.96433e+7 
           8470      3.94227e+7 
           8490      3.92544e+7 
           8510      3.85089e+7 
           8530      3.87763e+7 
           8550      3.71738e+7 
           8570       3.8646e+7 
           8590      3.67575e+7 
