# Kurucz ODFNEW /NOVER (2003)
# teff = 31000 K (value for the effective temperature for the model. Temperatures are given in K)
# logg = 5 log(cm/s2) (value for Log(G) for the model.)
# meta = 0.5  (value for the Metallicity for the model.)
# lh = 1.25  (l/Hp where l is the  mixing length of the convective element and Hp is the pressure scale height)
# vtur = 2 km/s (Microturbulence velocity)
# alpha = 0  (Alpha)
#
# column 1: WAVELENGTH (ANGSTROM), Wavelength in Angstrom
# column 2: FLUX (ERG/CM2/S/A), Flux in erg/cm2/s/A
          147.2      1.19421e-7 
            151      3.45651e-7 
          155.2      1.05615e-6 
          158.8      2.63185e-6 
            162      5.74138e-6 
            166      1.46257e-5 
          170.3      3.79924e-5 
          173.4      7.40602e-5 
          176.8     0.000149399 
          180.2     0.000293928 
          181.7     0.000392706 
          186.1     0.000898236 
            191      0.00216531 
          193.9      0.00356958 
          198.4      0.00754118 
          201.8       0.0129874 
            205       0.0213165 
          210.5       0.0483743 
          216.2        0.108121 
          219.8        0.176387 
            223        0.268829 
          226.8        0.455621 
            230         30.9687 
            234         64.3081 
            240         115.066 
          246.5         215.638 
          252.4         374.874 
          256.8         543.761 
            260           852.1 
            264          1252.9 
          268.5         1882.39 
          273.5         2768.78 
          278.5         3898.67 
            284         7595.22 
            290         11498.1 
            296         16654.3 
            301         22977.7 
            308         43914.2 
            318         88124.8 
            328          142212 
            338          251144 
            348          408323 
            357       1.3795e+6 
            366      2.95014e+6 
            375      3.78886e+6 
            385      5.78571e+6 
            395      1.25667e+7 
            405      1.60724e+7 
            414      2.33055e+7 
            422      2.82498e+7 
            430      3.60796e+7 
            441      4.67636e+7 
            451      5.42847e+7 
            460      6.15906e+7 
            470      7.81922e+7 
            480      9.61657e+7 
            490      1.14643e+8 
            500      1.35805e+8 
            506      2.62982e+8 
            512      2.16702e+9 
            520      2.07508e+9 
            530      1.99174e+9 
            540      1.86892e+9 
            550      2.51593e+9 
            560      3.02212e+9 
            570      3.15831e+9 
            580      2.90409e+9 
            590      3.27455e+9 
            600      2.88501e+9 
            610      3.46275e+9 
            620      3.91293e+9 
            630      3.83393e+9 
            640      3.54251e+9 
            650      3.60251e+9 
            658      3.43705e+9 
            665      3.91446e+9 
            675      4.14586e+9 
            685      3.47412e+9 
            695      4.90635e+9 
            705      4.22871e+9 
            716      5.31288e+9 
            726      5.15752e+9 
            735      5.18875e+9 
            745      5.44305e+9 
            755      5.49062e+9 
            765      5.69879e+9 
            775      5.91446e+9 
            785      6.18564e+9 
            795      6.16095e+9 
            805      6.01523e+9 
            815      5.96948e+9 
            825      6.39852e+9 
            835      5.12554e+9 
            845      6.09869e+9 
            855        5.995e+9 
            865      6.25797e+9 
            875      6.40508e+9 
            885      6.67865e+9 
            895      6.78374e+9 
            905      6.53392e+9 
            915      6.81576e+9 
            925     2.12628e+10 
            935     3.94029e+10 
            945     6.51348e+10 
            955      7.6455e+10 
            965     9.29945e+10 
            975     2.23321e+10 
            985     7.32666e+10 
            995     6.67289e+10 
           1005     7.41243e+10 
           1015     7.84048e+10 
           1025     4.74397e+10 
           1035     6.99071e+10 
           1045     9.23932e+10 
           1055     8.50685e+10 
           1065     6.65025e+10 
           1075     7.40337e+10 
           1085     6.68223e+10 
           1095     7.32203e+10 
           1105     6.83005e+10 
           1115     6.70263e+10 
           1125     4.92989e+10 
           1135     6.41118e+10 
           1145     5.97353e+10 
           1155     5.80587e+10 
           1165     5.58561e+10 
           1175     3.13935e+10 
           1185     5.07618e+10 
           1195     4.90821e+10 
           1205     4.27264e+10 
           1215     2.99322e+10 
           1225     4.46012e+10 
           1235     4.97926e+10 
           1245     4.73529e+10 
           1255     4.69649e+10 
           1265     4.87796e+10 
           1275     5.05249e+10 
           1285     5.07591e+10 
           1295     4.20798e+10 
           1305     4.39039e+10 
           1315     4.97593e+10 
           1325     4.66399e+10 
           1335     4.53329e+10 
           1345     4.46655e+10 
           1355     4.42918e+10 
           1365     4.12128e+10 
           1375     3.94877e+10 
           1385     3.74839e+10 
           1395     2.59971e+10 
           1405     2.81246e+10 
           1415     3.41728e+10 
           1425     3.13814e+10 
           1435     3.36385e+10 
           1442     3.38888e+10 
           1447     3.35471e+10 
           1455     3.18268e+10 
           1465     2.96858e+10 
           1475     3.04466e+10 
           1485     3.01746e+10 
           1495     2.92362e+10 
           1505     2.66119e+10 
           1512     2.47742e+10 
           1517       2.532e+10 
           1525     2.52414e+10 
           1535     2.08253e+10 
           1545     1.85364e+10 
           1555     1.83658e+10 
           1565     2.07051e+10 
           1575     2.20756e+10 
           1585     2.23168e+10 
           1595     2.21489e+10 
           1605     2.19776e+10 
           1615     2.07732e+10 
           1625     2.10904e+10 
           1635     2.18944e+10 
           1645     2.20745e+10 
           1655     2.18828e+10 
           1665     2.18328e+10 
           1672     2.01734e+10 
           1677     2.37464e+10 
           1685     2.23393e+10 
           1695     2.11769e+10 
           1705     2.07867e+10 
           1715     1.96612e+10 
           1725     1.86743e+10 
           1735     1.95622e+10 
           1745     1.93794e+10 
           1755     1.92546e+10 
           1765     1.90213e+10 
           1775     1.78128e+10 
           1785      1.8283e+10 
           1795      1.8254e+10 
           1805     1.82686e+10 
           1815     1.69048e+10 
           1825     1.70763e+10 
           1835     1.67553e+10 
           1845      1.5307e+10 
           1855     1.58409e+10 
           1865     1.59997e+10 
           1875     1.59966e+10 
           1885     1.45211e+10 
           1895     1.37546e+10 
           1905     1.46061e+10 
           1915     1.38879e+10 
           1925     1.28737e+10 
           1935     1.39605e+10 
           1945      1.4375e+10 
           1955     1.26532e+10 
           1967     1.36677e+10 
           1976     1.43327e+10 
           1984     1.32756e+10 
           1995     1.30946e+10 
           2005     1.34675e+10 
           2015     1.33759e+10 
           2025     1.35611e+10 
           2035     1.24975e+10 
           2045     1.25657e+10 
           2055     1.11341e+10 
           2065     1.09444e+10 
           2074     1.13532e+10 
           2078     1.06246e+10 
           2085     1.10387e+10 
           2095     1.07945e+10 
           2105     1.16317e+10 
           2115     1.17502e+10 
           2125     1.17033e+10 
           2135     1.14708e+10 
           2145     1.10382e+10 
           2155     1.13132e+10 
           2165     1.10048e+10 
           2175     1.10081e+10 
           2185     1.06803e+10 
           2195      1.0835e+10 
           2205      1.0737e+10 
           2215     1.04444e+10 
           2225     1.02983e+10 
           2235     1.00849e+10 
           2245      1.0055e+10 
           2255      9.71787e+9 
           2265      9.79894e+9 
           2275      9.65912e+9 
           2285      9.45138e+9 
           2295      8.27342e+9 
           2305      9.04983e+9 
           2315      8.91136e+9 
           2325      8.86344e+9 
           2335      8.68335e+9 
           2345       8.7081e+9 
           2355      8.53581e+9 
           2365      8.42539e+9 
           2375      8.17559e+9 
           2385      7.99989e+9 
           2395      7.94833e+9 
           2405      7.88888e+9 
           2415      7.78428e+9 
           2425      7.74519e+9 
           2435       7.5343e+9 
           2445      7.50494e+9 
           2455      7.44392e+9 
           2465      7.34087e+9 
           2475      7.21709e+9 
           2485      6.99868e+9 
           2495      5.41502e+9 
           2505      6.67484e+9 
           2513      6.40751e+9 
           2518      6.56985e+9 
           2525       6.7131e+9 
           2535      6.67256e+9 
           2545      6.43526e+9 
           2555      6.42365e+9 
           2565      6.32671e+9 
           2575      6.28846e+9 
           2585       6.2275e+9 
           2595      6.14659e+9 
           2605       6.0845e+9 
           2615      5.96698e+9 
           2625      5.93254e+9 
           2635      5.86698e+9 
           2645      5.74731e+9 
           2655      5.70784e+9 
           2665      5.46511e+9 
           2675      5.42011e+9 
           2685      5.45663e+9 
           2695      5.24037e+9 
           2705       5.1118e+9 
           2715      5.11132e+9 
           2725      5.12106e+9 
           2735      5.03352e+9 
           2745      4.98796e+9 
           2755      4.94978e+9 
           2765      4.86028e+9 
           2775      4.90589e+9 
           2785      4.80957e+9 
           2795      4.60176e+9 
           2805      4.63939e+9 
           2815      4.67019e+9 
           2825      4.59007e+9 
           2835      4.42416e+9 
           2845      4.48402e+9 
           2855       4.3929e+9 
           2865      4.35747e+9 
           2875      4.30597e+9 
           2885      4.24362e+9 
           2895      4.18734e+9 
           2910      4.07417e+9 
           2930       4.0506e+9 
           2950       3.9127e+9 
           2970      3.84421e+9 
           2990      3.72916e+9 
           3010      3.58234e+9 
           3030      3.53919e+9 
           3050      3.49426e+9 
           3070       3.4508e+9 
           3090      3.29307e+9 
           3110      3.29362e+9 
           3130       3.1906e+9 
           3150      3.14133e+9 
           3170      3.04933e+9 
           3190      2.99415e+9 
           3210      2.93977e+9 
           3230      2.86173e+9 
           3250      2.82477e+9 
           3270      2.74371e+9 
           3290      2.69395e+9 
           3310       2.6365e+9 
           3330      2.56793e+9 
           3350      2.51876e+9 
           3370      2.46228e+9 
           3390      2.43308e+9 
           3410       2.3802e+9 
           3430      2.33693e+9 
           3450      2.27658e+9 
           3470      2.23346e+9 
           3490      2.18603e+9 
           3510      2.14453e+9 
           3530      2.11383e+9 
           3550      2.06795e+9 
           3570      2.03382e+9 
           3590      1.96934e+9 
           3610      1.94073e+9 
           3630      1.90385e+9 
           3640      1.89826e+9 
           3650      1.85827e+9 
           3670      1.83404e+9 
           3690       1.8011e+9 
           3710      1.72669e+9 
           3730      1.68894e+9 
           3750      1.65954e+9 
           3770      1.59726e+9 
           3790      1.63888e+9 
           3810      1.68437e+9 
           3830      1.49144e+9 
           3850      1.69543e+9 
           3870      1.66603e+9 
           3890      1.39029e+9 
           3910      1.68716e+9 
           3930      1.64525e+9 
           3950      1.59186e+9 
           3970      1.28399e+9 
           3990      1.55104e+9 
           4010      1.54952e+9 
           4030      1.46186e+9 
           4050      1.49734e+9 
           4070      1.40907e+9 
           4090      1.30042e+9 
           4110       1.1738e+9 
           4130      1.35764e+9 
           4150      1.34868e+9 
           4170      1.34999e+9 
           4190      1.33037e+9 
           4210      1.31574e+9 
           4230      1.28794e+9 
           4250       1.2407e+9 
           4270      1.20981e+9 
           4290      1.18742e+9 
           4310      1.14004e+9 
           4330      1.04231e+9 
           4350       9.6772e+8 
           4370      1.08547e+9 
           4390      1.08393e+9 
           4410      1.07819e+9 
           4430      1.07581e+9 
           4450      1.05313e+9 
           4470       1.0017e+9 
           4490      1.02273e+9 
           4510      1.01039e+9 
           4530       9.9895e+8 
           4550      9.83218e+8 
           4570      9.69436e+8 
           4590      9.50134e+8 
           4610       9.2294e+8 
           4630      9.02981e+8 
           4650      8.63869e+8 
           4670      8.81429e+8 
           4690      8.72146e+8 
           4710      8.39894e+8 
           4730      8.50167e+8 
           4750      8.35976e+8 
           4770      8.35438e+8 
           4790      8.19642e+8 
           4810      7.99749e+8 
           4830       7.8014e+8 
           4850       7.1965e+8 
           4870       6.4594e+8 
           4890      7.44932e+8 
           4910      7.40001e+8 
           4930      7.13766e+8 
           4950      7.16574e+8 
           4970      7.15073e+8 
           4990      7.02832e+8 
           5010        6.696e+8 
           5030      6.77612e+8 
           5050      6.65017e+8 
           5070      6.62976e+8 
           5090      6.50448e+8 
           5110      6.39047e+8 
           5130      6.24368e+8 
           5150      6.17341e+8 
           5170      6.12066e+8 
           5190       6.0505e+8 
           5210      5.96292e+8 
           5230      5.87691e+8 
           5250      5.78424e+8 
           5270      5.68562e+8 
           5290      5.63127e+8 
           5310      5.54684e+8 
           5330      5.47346e+8 
           5350      5.38852e+8 
           5370      5.32246e+8 
           5390      5.23973e+8 
           5410      5.16064e+8 
           5430      5.10417e+8 
           5450      5.02796e+8 
           5470      4.95827e+8 
           5490      4.88897e+8 
           5510      4.83418e+8 
           5530      4.75296e+8 
           5550      4.70531e+8 
           5570      4.63867e+8 
           5590      4.57504e+8 
           5610      4.51638e+8 
           5630      4.45868e+8 
           5650      4.38362e+8 
           5670      4.30213e+8 
           5690      4.20957e+8 
           5710      4.18521e+8 
           5730      4.14274e+8 
           5750      4.07147e+8 
           5770      4.04499e+8 
           5790      3.98585e+8 
           5810      3.93402e+8 
           5830      3.86773e+8 
           5850      3.83054e+8 
           5870       3.6688e+8 
           5890      3.69431e+8 
           5910      3.67097e+8 
           5930      3.62214e+8 
           5950      3.57644e+8 
           5970      3.56108e+8 
           5990      3.49314e+8 
           6010      3.46701e+8 
           6030      3.41327e+8 
           6050      3.37603e+8 
           6070      3.34247e+8 
           6090      3.30237e+8 
           6110      3.25939e+8 
           6130      3.22312e+8 
           6150      3.16155e+8 
           6170       3.1301e+8 
           6190      3.10184e+8 
           6210        3.069e+8 
           6230       3.0337e+8 
           6250      2.98596e+8 
           6270      2.95468e+8 
           6290      2.92306e+8 
           6310      2.88403e+8 
           6330      2.85474e+8 
           6350      2.81334e+8 
           6370      2.78827e+8 
           6390      2.75304e+8 
           6410      2.72085e+8 
           6430      2.69064e+8 
           6450      2.65723e+8 
           6470      2.61059e+8 
           6490      2.58424e+8 
           6510      2.55434e+8 
           6530      2.51036e+8 
           6550      2.39126e+8 
           6570      2.11498e+8 
           6590      2.39858e+8 
           6610      2.40659e+8 
           6630      2.38926e+8 
           6650      2.36145e+8 
           6670      2.30802e+8 
           6690      2.28347e+8 
           6710      2.28318e+8 
           6730      2.24975e+8 
           6750      2.23388e+8 
           6770       2.2105e+8 
           6790      2.16416e+8 
           6810      2.15699e+8 
           6830      2.13235e+8 
           6850      2.11245e+8 
           6870      2.08819e+8 
           6890      2.06053e+8 
           6910      2.03292e+8 
           6930      2.02175e+8 
           6950      1.99984e+8 
           6970      1.97806e+8 
           6990      1.95566e+8 
           7010      1.93363e+8 
           7030      1.91037e+8 
           7050      1.89106e+8 
           7070      1.84005e+8 
           7090      1.84834e+8 
           7110      1.82015e+8 
           7130       1.8021e+8 
           7150      1.78967e+8 
           7170      1.77355e+8 
           7190      1.75619e+8 
           7210      1.73776e+8 
           7230      1.69306e+8 
           7250      1.69642e+8 
           7270      1.68332e+8 
           7290      1.65205e+8 
           7310      1.64761e+8 
           7330      1.62965e+8 
           7350      1.61368e+8 
           7370      1.59758e+8 
           7390      1.58102e+8 
           7410      1.56474e+8 
           7430      1.54834e+8 
           7450      1.53224e+8 
           7470      1.50669e+8 
           7490      1.49785e+8 
           7510      1.48521e+8 
           7530      1.46829e+8 
           7550      1.45609e+8 
           7570      1.44131e+8 
           7590      1.42594e+8 
           7610      1.40837e+8 
           7630      1.39731e+8 
           7650      1.38345e+8 
           7670      1.37035e+8 
           7690      1.35559e+8 
           7710      1.34191e+8 
           7730      1.32716e+8 
           7750       1.3168e+8 
           7770      1.30155e+8 
           7790      1.29127e+8 
           7810      1.27818e+8 
           7830      1.26607e+8 
           7850        1.254e+8 
           7870      1.23809e+8 
           7890      1.22389e+8 
           7910      1.21512e+8 
           7930      1.20301e+8 
           7950      1.19327e+8 
           7970      1.18165e+8 
           7990      1.17037e+8 
           8010      1.15855e+8 
           8030      1.14723e+8 
           8050      1.13747e+8 
           8070       1.1264e+8 
           8090      1.11497e+8 
           8110      1.09458e+8 
           8130      1.09496e+8 
           8150       1.0842e+8 
           8170      1.07495e+8 
           8190      1.05634e+8 
           8210      1.04813e+8 
           8230      1.03464e+8 
           8250      1.03262e+8 
           8270       1.0116e+8 
           8290      1.01237e+8 
           8310       1.0051e+8 
           8330      9.95452e+7 
           8350      9.82206e+7 
           8370      9.75206e+7 
           8390      9.69384e+7 
           8410      9.59027e+7 
           8430      9.51619e+7 
           8450      9.36725e+7 
           8470      9.34618e+7 
           8490      9.24052e+7 
           8510      9.14356e+7 
           8530       9.0707e+7 
           8550      8.98554e+7 
           8570      8.93442e+7 
           8590       8.7305e+7 
