# Kurucz ODFNEW /NOVER (2003)
# teff = 33000 K (value for the effective temperature for the model. Temperatures are given in K)
# logg = 4 log(cm/s2) (value for Log(G) for the model.)
# meta = 0.2  (value for the Metallicity for the model.)
# lh = 1.25  (l/Hp where l is the  mixing length of the convective element and Hp is the pressure scale height)
# vtur = 2 km/s (Microturbulence velocity)
# alpha = 0.4  (Alpha)
#
# column 1: WAVELENGTH (ANGSTROM), Wavelength in Angstrom
# column 2: FLUX (ERG/CM2/S/A), Flux in erg/cm2/s/A
          147.2      2.29033e-6 
            151      6.25657e-6 
          155.2      1.78988e-5 
          158.8      4.22138e-5 
            162      8.76868e-5 
            166     0.000211087 
          170.3     0.000515316 
          173.4     0.000962674 
          176.8        0.001877 
          180.2      0.00352632 
          181.7      0.00470197 
          186.1       0.0101613 
            191       0.0230751 
          193.9       0.0367048 
          198.4       0.0742298 
          201.8        0.122853 
            205        0.194492 
          210.5        0.415752 
          216.2        0.867948 
          219.8         1.37944 
            223         2.03899 
          226.8         3.36585 
            230         1479.29 
            234         3123.59 
            240          4867.4 
          246.5         8042.09 
          252.4         13552.8 
          256.8         18898.7 
            260         32356.9 
            264         53555.4 
          268.5         83547.8 
          273.5          113308 
          278.5          136223 
            284          309110 
            290          443067 
            296          569764 
            301          943934 
            308      2.40527e+6 
            318       5.2249e+6 
            328      7.43206e+6 
            338      1.36332e+7 
            348      2.08395e+7 
            357      4.35141e+7 
            366      9.95286e+7 
            375      1.13251e+8 
            385      1.68808e+8 
            395      3.72081e+8 
            405      4.72677e+8 
            414      6.66919e+8 
            422      7.35334e+8 
            430      7.76095e+8 
            441      9.34264e+8 
            451      1.01102e+9 
            460      9.74227e+8 
            470       1.1526e+9 
            480      1.33835e+9 
            490      1.25308e+9 
            500      1.64872e+9 
            506      1.90589e+9 
            512     1.30166e+10 
            520     1.22153e+10 
            530     1.10823e+10 
            540     1.06785e+10 
            550     1.08887e+10 
            560      1.5474e+10 
            570     1.83541e+10 
            580     1.68924e+10 
            590     1.75389e+10 
            600     1.09095e+10 
            610     1.50996e+10 
            620     2.00292e+10 
            630     1.91962e+10 
            640     1.96127e+10 
            650       1.777e+10 
            658     1.16787e+10 
            665     1.70515e+10 
            675     2.12506e+10 
            685     1.51302e+10 
            695      2.1134e+10 
            705      1.3695e+10 
            716     2.31399e+10 
            726     2.25955e+10 
            735     2.26369e+10 
            745     1.92001e+10 
            755     1.95897e+10 
            765      2.0369e+10 
            775     2.18338e+10 
            785     2.10732e+10 
            795     2.23084e+10 
            805     2.04676e+10 
            815     2.02577e+10 
            825     2.21585e+10 
            835     1.57905e+10 
            845      2.0864e+10 
            855     2.04313e+10 
            865     2.12778e+10 
            875     2.12947e+10 
            885     2.15203e+10 
            895     2.15068e+10 
            905      2.0656e+10 
            915     2.19655e+10 
            925      5.3637e+10 
            935     7.81146e+10 
            945      9.0383e+10 
            955      9.7852e+10 
            965     1.05281e+11 
            975     4.98818e+10 
            985     8.39291e+10 
            995     7.60023e+10 
           1005     7.76939e+10 
           1015     8.30306e+10 
           1025     7.26763e+10 
           1035     8.16322e+10 
           1045        9.22e+10 
           1055     8.74988e+10 
           1065     7.57295e+10 
           1075     7.82456e+10 
           1085     7.30466e+10 
           1095     7.68902e+10 
           1105     7.34376e+10 
           1115     7.17171e+10 
           1125     5.55945e+10 
           1135     6.85481e+10 
           1145     6.67008e+10 
           1155     6.18034e+10 
           1165     6.12604e+10 
           1175     4.12414e+10 
           1185      5.5658e+10 
           1195     5.33559e+10 
           1205     5.13194e+10 
           1215     4.40727e+10 
           1225     5.02072e+10 
           1235     5.32234e+10 
           1245      5.1074e+10 
           1255     5.10406e+10 
           1265     5.21367e+10 
           1275       5.392e+10 
           1285     5.36681e+10 
           1295     5.00951e+10 
           1305      4.9724e+10 
           1315     5.23671e+10 
           1325     5.06612e+10 
           1335     4.90342e+10 
           1345     4.86909e+10 
           1355     4.75296e+10 
           1365     4.56873e+10 
           1375     4.40548e+10 
           1385     4.24998e+10 
           1395     3.10749e+10 
           1405     3.26705e+10 
           1415      4.1048e+10 
           1425     3.68079e+10 
           1435     3.92916e+10 
           1442     3.85577e+10 
           1447     3.84447e+10 
           1455     3.64784e+10 
           1465     3.56311e+10 
           1475     3.60431e+10 
           1485     3.59659e+10 
           1495      3.4807e+10 
           1505      3.3867e+10 
           1512      3.3424e+10 
           1517     3.36411e+10 
           1525     3.23171e+10 
           1535     2.83447e+10 
           1545      2.3178e+10 
           1555      2.3529e+10 
           1565     2.68562e+10 
           1575     2.82157e+10 
           1585     2.80692e+10 
           1595     2.80915e+10 
           1605     2.64776e+10 
           1615     2.52812e+10 
           1625      2.5807e+10 
           1635     2.60292e+10 
           1645      2.5942e+10 
           1655     2.59059e+10 
           1665     2.52818e+10 
           1672     2.33429e+10 
           1677     2.73673e+10 
           1685     2.60572e+10 
           1695       2.515e+10 
           1705     2.48598e+10 
           1715     2.36139e+10 
           1725     2.27636e+10 
           1735     2.35394e+10 
           1745     2.33447e+10 
           1755     2.29314e+10 
           1765     2.25804e+10 
           1775     2.17802e+10 
           1785     2.20831e+10 
           1795      2.1508e+10 
           1805     2.14357e+10 
           1815     2.08994e+10 
           1825     2.05307e+10 
           1835     2.04989e+10 
           1845     1.95856e+10 
           1855     1.98184e+10 
           1865     1.97667e+10 
           1875     1.91728e+10 
           1885      1.8391e+10 
           1895     1.81314e+10 
           1905      1.8473e+10 
           1915     1.79477e+10 
           1925     1.68763e+10 
           1935     1.77879e+10 
           1945     1.78734e+10 
           1955     1.63347e+10 
           1967     1.69802e+10 
           1976     1.72301e+10 
           1984     1.67326e+10 
           1995     1.62863e+10 
           2005     1.65441e+10 
           2015     1.64462e+10 
           2025     1.63356e+10 
           2035     1.57434e+10 
           2045     1.54934e+10 
           2055     1.24223e+10 
           2065     1.19948e+10 
           2074     1.25618e+10 
           2078     1.25432e+10 
           2085     1.35224e+10 
           2095     1.40623e+10 
           2105     1.41798e+10 
           2115     1.43374e+10 
           2125     1.39859e+10 
           2135     1.39378e+10 
           2145     1.36878e+10 
           2155     1.36665e+10 
           2165     1.30302e+10 
           2175     1.32921e+10 
           2185     1.29071e+10 
           2195     1.31135e+10 
           2205     1.28933e+10 
           2215     1.24079e+10 
           2225     1.24868e+10 
           2235     1.23044e+10 
           2245     1.21106e+10 
           2255     1.17478e+10 
           2265     1.17912e+10 
           2275     1.16878e+10 
           2285     1.13064e+10 
           2295     1.02497e+10 
           2305     1.08707e+10 
           2315     1.07833e+10 
           2325     1.07869e+10 
           2335     1.06312e+10 
           2345      1.0479e+10 
           2355     1.02625e+10 
           2365      1.0083e+10 
           2375      9.85599e+9 
           2385      9.45032e+9 
           2395      9.50423e+9 
           2405      9.50873e+9 
           2415      9.34359e+9 
           2425      9.30064e+9 
           2435      9.13736e+9 
           2445      9.03315e+9 
           2455      8.89345e+9 
           2465      8.78548e+9 
           2475      8.65067e+9 
           2485      8.23955e+9 
           2495      5.62459e+9 
           2505      7.71647e+9 
           2513      7.76227e+9 
           2518      7.87229e+9 
           2525       8.0887e+9 
           2535      8.05021e+9 
           2545      7.86609e+9 
           2555      7.80464e+9 
           2565      7.69237e+9 
           2575      7.63274e+9 
           2585      7.54336e+9 
           2595      7.37232e+9 
           2605      7.36468e+9 
           2615      7.19883e+9 
           2625      7.16213e+9 
           2635      7.09214e+9 
           2645      6.96968e+9 
           2655      6.90445e+9 
           2665      6.75407e+9 
           2675      6.57626e+9 
           2685      6.61516e+9 
           2695      6.49406e+9 
           2705      6.45025e+9 
           2715      6.35274e+9 
           2725       6.2783e+9 
           2735      6.12721e+9 
           2745      6.16964e+9 
           2755      6.07431e+9 
           2765      5.98955e+9 
           2775      5.96114e+9 
           2785      5.83535e+9 
           2795      5.64514e+9 
           2805      5.70024e+9 
           2815      5.66409e+9 
           2825      5.59244e+9 
           2835      5.49493e+9 
           2845      5.48011e+9 
           2855      5.39048e+9 
           2865      5.30473e+9 
           2875      5.24054e+9 
           2885      5.19296e+9 
           2895      5.13062e+9 
           2910      4.99512e+9 
           2930      4.93506e+9 
           2950      4.80473e+9 
           2970      4.69113e+9 
           2990      4.54388e+9 
           3010      4.40303e+9 
           3030       4.2819e+9 
           3050      4.24213e+9 
           3070      4.16705e+9 
           3090      4.04305e+9 
           3110       4.0029e+9 
           3130      3.88769e+9 
           3150      3.83013e+9 
           3170      3.73715e+9 
           3190       3.6666e+9 
           3210      3.55327e+9 
           3230      3.49474e+9 
           3250      3.44298e+9 
           3270      3.32979e+9 
           3290      3.28205e+9 
           3310      3.20619e+9 
           3330      3.12873e+9 
           3350      3.04747e+9 
           3370      2.99339e+9 
           3390      2.95775e+9 
           3410      2.89309e+9 
           3430      2.85084e+9 
           3450      2.76696e+9 
           3470      2.72699e+9 
           3490      2.67414e+9 
           3510      2.62332e+9 
           3530      2.57745e+9 
           3550      2.52218e+9 
           3570      2.47366e+9 
           3590      2.42002e+9 
           3610      2.37191e+9 
           3630      2.32498e+9 
           3640      2.28945e+9 
           3650      2.15883e+9 
           3670      2.12471e+9 
           3690      2.08412e+9 
           3710      2.01808e+9 
           3730        1.995e+9 
           3750      2.01723e+9 
           3770      1.99117e+9 
           3790      2.04008e+9 
           3810      2.06595e+9 
           3830      1.90665e+9 
           3850      2.03773e+9 
           3870      1.96289e+9 
           3890      1.80051e+9 
           3910      1.96278e+9 
           3930      1.89698e+9 
           3950      1.85048e+9 
           3970      1.65309e+9 
           3990      1.81863e+9 
           4010      1.78313e+9 
           4030       1.7246e+9 
           4050      1.72638e+9 
           4070      1.65439e+9 
           4090       1.5792e+9 
           4110      1.47809e+9 
           4130      1.58083e+9 
           4150      1.56121e+9 
           4170      1.55374e+9 
           4190      1.52249e+9 
           4210      1.49059e+9 
           4230      1.47675e+9 
           4250      1.43582e+9 
           4270      1.40634e+9 
           4290      1.37727e+9 
           4310      1.34329e+9 
           4330      1.28949e+9 
           4350      1.21037e+9 
           4370      1.28807e+9 
           4390      1.26354e+9 
           4410      1.24381e+9 
           4430      1.23601e+9 
           4450      1.21196e+9 
           4470       1.1811e+9 
           4490      1.17821e+9 
           4510      1.15059e+9 
           4530      1.14038e+9 
           4550      1.11373e+9 
           4570      1.10723e+9 
           4590      1.08464e+9 
           4610      1.06523e+9 
           4630      1.04297e+9 
           4650      9.89924e+8 
           4670      1.01133e+9 
           4690      9.88131e+8 
           4710      9.76751e+8 
           4730      9.83899e+8 
           4750      9.66565e+8 
           4770      9.55926e+8 
           4790      9.41081e+8 
           4810      9.23957e+8 
           4830      9.07116e+8 
           4850      8.75018e+8 
           4870      8.05404e+8 
           4890       8.6574e+8 
           4910       8.5342e+8 
           4930      8.33396e+8 
           4950      8.25076e+8 
           4970      8.20645e+8 
           4990      8.08497e+8 
           5010      7.83054e+8 
           5030      7.79326e+8 
           5050      7.68541e+8 
           5070      7.61801e+8 
           5090      7.49937e+8 
           5110      7.38812e+8 
           5130      7.27566e+8 
           5150      7.17252e+8 
           5170      7.05907e+8 
           5190      6.96896e+8 
           5210      6.87434e+8 
           5230       6.7811e+8 
           5250      6.66338e+8 
           5270      6.56081e+8 
           5290       6.4977e+8 
           5310      6.40235e+8 
           5330      6.31527e+8 
           5350      6.22944e+8 
           5370      6.14185e+8 
           5390      6.04876e+8 
           5410      5.90939e+8 
           5430      5.89277e+8 
           5450      5.81002e+8 
           5470      5.72846e+8 
           5490       5.6518e+8 
           5510      5.56989e+8 
           5530      5.49888e+8 
           5550      5.42899e+8 
           5570      5.35158e+8 
           5590       5.2626e+8 
           5610      5.21389e+8 
           5630       5.1447e+8 
           5650      5.07436e+8 
           5670      5.00054e+8 
           5690      4.86619e+8 
           5710      4.71858e+8 
           5730       4.6624e+8 
           5750      4.59311e+8 
           5770      4.54752e+8 
           5790      4.48873e+8 
           5810      4.42329e+8 
           5830      4.37359e+8 
           5850      4.34143e+8 
           5870      4.22334e+8 
           5890      4.24672e+8 
           5910      4.20972e+8 
           5930      4.17012e+8 
           5950      4.13352e+8 
           5970      4.10312e+8 
           5990      4.05896e+8 
           6010      4.01885e+8 
           6030      3.96447e+8 
           6050       3.9172e+8 
           6070      3.87047e+8 
           6090      3.82488e+8 
           6110      3.77334e+8 
           6130      3.72871e+8 
           6150       3.6776e+8 
           6170      3.62945e+8 
           6190      3.59571e+8 
           6210      3.55442e+8 
           6230      3.50368e+8 
           6250      3.46326e+8 
           6270      3.42548e+8 
           6290      3.38421e+8 
           6310      3.33214e+8 
           6330      3.30454e+8 
           6350      3.26142e+8 
           6370      3.22723e+8 
           6390      3.18898e+8 
           6410      3.14316e+8 
           6430      3.11471e+8 
           6450      3.07541e+8 
           6470      3.03411e+8 
           6490      2.99844e+8 
           6510      2.95676e+8 
           6530      2.91685e+8 
           6550      2.85894e+8 
           6570      2.60966e+8 
           6590      2.82087e+8 
           6610      2.80029e+8 
           6630      2.77133e+8 
           6650       2.7368e+8 
           6670       2.6807e+8 
           6690      2.64466e+8 
           6710      2.63896e+8 
           6730      2.60608e+8 
           6750      2.58346e+8 
           6770      2.55877e+8 
           6790      2.52689e+8 
           6810      2.50272e+8 
           6830      2.47363e+8 
           6850      2.44652e+8 
           6870      2.41801e+8 
           6890      2.37757e+8 
           6910      2.35735e+8 
           6930      2.34212e+8 
           6950      2.31626e+8 
           6970       2.2912e+8 
           6990      2.26585e+8 
           7010      2.23783e+8 
           7030      2.21124e+8 
           7050      2.18863e+8 
           7070      2.14145e+8 
           7090      2.14617e+8 
           7110      2.11921e+8 
           7130      2.09822e+8 
           7150      2.07854e+8 
           7170      2.04916e+8 
           7190      2.03136e+8 
           7210      2.01315e+8 
           7230      1.98105e+8 
           7250       1.9672e+8 
           7270      1.95026e+8 
           7290      1.91852e+8 
           7310      1.90797e+8 
           7330      1.88951e+8 
           7350      1.86982e+8 
           7370      1.85019e+8 
           7390      1.83177e+8 
           7410      1.81215e+8 
           7430      1.79415e+8 
           7450      1.77408e+8 
           7470      1.75251e+8 
           7490      1.73342e+8 
           7510      1.72073e+8 
           7530      1.70303e+8 
           7550      1.68701e+8 
           7570      1.66956e+8 
           7590      1.64279e+8 
           7610      1.63222e+8 
           7630      1.61856e+8 
           7650      1.60206e+8 
           7670      1.58802e+8 
           7690      1.56696e+8 
           7710      1.55428e+8 
           7730      1.53465e+8 
           7750      1.52492e+8 
           7770       1.5109e+8 
           7790      1.49608e+8 
           7810      1.48126e+8 
           7830      1.46688e+8 
           7850      1.45086e+8 
           7870      1.43473e+8 
           7890      1.42142e+8 
           7910      1.41045e+8 
           7930      1.39693e+8 
           7950      1.38431e+8 
           7970      1.36895e+8 
           7990      1.35697e+8 
           8010      1.34427e+8 
           8030      1.33039e+8 
           8050      1.31897e+8 
           8070      1.30636e+8 
           8090      1.29306e+8 
           8110      1.27484e+8 
           8130      1.26965e+8 
           8150      1.25651e+8 
           8170      1.24534e+8 
           8190      1.22809e+8 
           8210      1.20228e+8 
           8230      1.18737e+8 
           8250      1.18157e+8 
           8270      1.16495e+8 
           8290      1.15989e+8 
           8310      1.15082e+8 
           8330      1.13737e+8 
           8350      1.12415e+8 
           8370      1.11701e+8 
           8390      1.10966e+8 
           8410       1.0989e+8 
           8430      1.08993e+8 
           8450      1.07707e+8 
           8470      1.07047e+8 
           8490      1.06104e+8 
           8510      1.04617e+8 
           8530      1.04376e+8 
           8550      1.02749e+8 
           8570      1.03106e+8 
