# Kurucz ODFNEW /NOVER (2003)
# teff = 27000 K (value for the effective temperature for the model. Temperatures are given in K)
# logg = 4.5 log(cm/s2) (value for Log(G) for the model.)
# meta = -1  (value for the Metallicity for the model.)
# lh = 1.25  (l/Hp where l is the  mixing length of the convective element and Hp is the pressure scale height)
# vtur = 2 km/s (Microturbulence velocity)
# alpha = 0  (Alpha)
#
# column 1: WAVELENGTH (ANGSTROM), Wavelength in Angstrom
# column 2: FLUX (ERG/CM2/S/A), Flux in erg/cm2/s/A
          147.2     5.20467e-12 
            151     2.08349e-11 
          155.2     8.96488e-11 
          158.8     2.95543e-10 
            162     8.18472e-10 
            166      2.77338e-9 
          170.3      9.68099e-9 
          173.4      2.29727e-8 
          176.8      5.72598e-8 
          180.2      1.37944e-7 
          181.7      2.01208e-7 
          186.1      5.88538e-7 
            191      1.83537e-6 
          193.9      3.50134e-6 
          198.4      9.18525e-6 
          201.8      1.84927e-5 
            205      3.49711e-5 
          210.5       9.9908e-5 
          216.2     0.000279953 
          219.8     0.000521668 
            223     0.000891502 
          226.8       0.0016511 
            230        0.128893 
            234        0.299218 
            240        0.641663 
          246.5         1.41256 
          252.4         2.82161 
          256.8         4.25777 
            260         6.47908 
            264         9.66093 
          268.5          15.202 
          273.5         24.5567 
          278.5         38.9954 
            284         64.4386 
            290         106.801 
            296         173.543 
            301         253.113 
            308         404.671 
            318         882.925 
            328         1680.62 
            338         3170.17 
            348         5652.62 
            357         9799.77 
            366         15922.9 
            375         24141.5 
            385         38561.2 
            395         59670.7 
            405         89443.5 
            414          127889 
            422          169450 
            430          225671 
            441          327564 
            451          452666 
            460          590500 
            470          795702 
            480      1.04667e+6 
            490      1.36705e+6 
            500      1.76596e+6 
            506      9.85995e+6 
            512      3.61979e+7 
            520      4.07924e+7 
            530      4.87763e+7 
            540      5.05316e+7 
            550       6.5059e+7 
            560      7.24712e+7 
            570      8.36469e+7 
            580      8.23396e+7 
            590      1.00497e+8 
            600       1.1101e+8 
            610      1.24682e+8 
            620      1.35442e+8 
            630      1.47797e+8 
            640      1.52127e+8 
            650      1.65556e+8 
            658      1.81715e+8 
            665      1.94198e+8 
            675       2.0289e+8 
            685      2.13461e+8 
            695      2.45602e+8 
            705      2.54708e+8 
            716      2.80062e+8 
            726      2.93571e+8 
            735      3.09354e+8 
            745      3.35654e+8 
            755      3.55326e+8 
            765       3.7605e+8 
            775      3.99419e+8 
            785      4.24393e+8 
            795      4.41531e+8 
            805      4.62255e+8 
            815      4.79078e+8 
            825      5.08937e+8 
            835      5.04655e+8 
            845      5.43495e+8 
            855      5.63838e+8 
            865      5.92264e+8 
            875      6.22991e+8 
            885      6.53147e+8 
            895      6.77763e+8 
            905      6.90742e+8 
            915      8.73894e+8 
            925      4.50688e+9 
            935     1.12822e+10 
            945     2.76456e+10 
            955     3.63914e+10 
            965     4.74014e+10 
            975     1.55305e+10 
            985     4.91964e+10 
            995     4.58114e+10 
           1005     4.85894e+10 
           1015      4.5205e+10 
           1025     1.77474e+10 
           1035     3.91808e+10 
           1045     5.00638e+10 
           1055     4.78297e+10 
           1065     4.22591e+10 
           1075      4.4818e+10 
           1085     4.05875e+10 
           1095     4.39184e+10 
           1105     4.13962e+10 
           1115     4.08146e+10 
           1125     3.66661e+10 
           1135     3.95409e+10 
           1145     3.64337e+10 
           1155     3.72147e+10 
           1165     3.66064e+10 
           1175      2.8482e+10 
           1185     3.42919e+10 
           1195     3.21929e+10 
           1205     2.70322e+10 
           1215     1.24904e+10 
           1225      2.7653e+10 
           1235     3.08749e+10 
           1245     3.02813e+10 
           1255     2.98174e+10 
           1265     2.94114e+10 
           1275     2.94037e+10 
           1285     2.87745e+10 
           1295     2.54249e+10 
           1305     2.57623e+10 
           1315      2.7006e+10 
           1325     2.58102e+10 
           1335      2.4831e+10 
           1345     2.47339e+10 
           1355     2.46882e+10 
           1365      2.3521e+10 
           1375     2.31024e+10 
           1385      2.2715e+10 
           1395     2.00965e+10 
           1405     2.03973e+10 
           1415     2.09925e+10 
           1425     2.02703e+10 
           1435     2.02888e+10 
           1442     2.03695e+10 
           1447     2.00113e+10 
           1455     1.95854e+10 
           1465     1.89065e+10 
           1475     1.86354e+10 
           1485     1.82708e+10 
           1495     1.78772e+10 
           1505     1.69801e+10 
           1512     1.61922e+10 
           1517     1.63363e+10 
           1525     1.62072e+10 
           1535     1.48568e+10 
           1545     1.47365e+10 
           1555     1.41311e+10 
           1565     1.45737e+10 
           1575     1.47465e+10 
           1585     1.45367e+10 
           1595     1.43804e+10 
           1605      1.3852e+10 
           1615     1.35074e+10 
           1625     1.34757e+10 
           1635     1.35439e+10 
           1645     1.31229e+10 
           1655     1.31308e+10 
           1665     1.30104e+10 
           1672      1.2658e+10 
           1677     1.30405e+10 
           1685     1.27249e+10 
           1695     1.23431e+10 
           1705     1.19781e+10 
           1715     1.15828e+10 
           1725     1.13842e+10 
           1735      1.1403e+10 
           1745     1.11767e+10 
           1755     1.11154e+10 
           1765      1.0742e+10 
           1775     1.04963e+10 
           1785     1.04615e+10 
           1795     1.04221e+10 
           1805     1.03495e+10 
           1815      9.87961e+9 
           1825      9.87163e+9 
           1835      9.66889e+9 
           1845      9.02893e+9 
           1855      8.94521e+9 
           1865      9.00691e+9 
           1875      9.05512e+9 
           1885      8.39821e+9 
           1895       7.9676e+9 
           1905      8.29775e+9 
           1915      7.96959e+9 
           1925      7.69588e+9 
           1935      7.89907e+9 
           1945      7.97082e+9 
           1955      7.40896e+9 
           1967      7.65038e+9 
           1976      7.83817e+9 
           1984      7.41657e+9 
           1995      7.21404e+9 
           2005      7.28245e+9 
           2015      7.27753e+9 
           2025      7.30689e+9 
           2035      6.94087e+9 
           2045      6.87721e+9 
           2055      6.60687e+9 
           2065      6.57828e+9 
           2074      6.73055e+9 
           2078      6.43629e+9 
           2085      6.47426e+9 
           2095      6.28119e+9 
           2105      6.39467e+9 
           2115      6.34395e+9 
           2125      6.35346e+9 
           2135      6.22622e+9 
           2145      6.04172e+9 
           2155      6.06406e+9 
           2165      5.99419e+9 
           2175      5.89404e+9 
           2185      5.81307e+9 
           2195       5.7675e+9 
           2205      5.68493e+9 
           2215      5.60983e+9 
           2225      5.50914e+9 
           2235      5.41719e+9 
           2245       5.3816e+9 
           2255      5.28182e+9 
           2265      5.23785e+9 
           2275       5.1673e+9 
           2285      5.10688e+9 
           2295      4.91834e+9 
           2305       4.9583e+9 
           2315      4.87331e+9 
           2325      4.81196e+9 
           2335       4.7262e+9 
           2345      4.69036e+9 
           2355      4.63838e+9 
           2365      4.57681e+9 
           2375      4.50636e+9 
           2385      4.44752e+9 
           2395      4.38859e+9 
           2405      4.33289e+9 
           2415      4.27183e+9 
           2425      4.23276e+9 
           2435      4.16166e+9 
           2445      4.11748e+9 
           2455      4.07394e+9 
           2465      4.01993e+9 
           2475      3.96648e+9 
           2485      3.91437e+9 
           2495      3.72056e+9 
           2505      3.80768e+9 
           2513      3.70175e+9 
           2518      3.74565e+9 
           2525      3.71859e+9 
           2535      3.67266e+9 
           2545      3.59552e+9 
           2555      3.57274e+9 
           2565      3.53538e+9 
           2575      3.49786e+9 
           2585      3.45585e+9 
           2595      3.41399e+9 
           2605      3.39011e+9 
           2615      3.34974e+9 
           2625      3.31202e+9 
           2635      3.27033e+9 
           2645      3.22981e+9 
           2655      3.19008e+9 
           2665      3.13606e+9 
           2675      3.10028e+9 
           2685      3.08471e+9 
           2695      3.01227e+9 
           2705      3.00106e+9 
           2715      2.96928e+9 
           2725      2.91475e+9 
           2735      2.90204e+9 
           2745      2.85913e+9 
           2755      2.83241e+9 
           2765      2.77919e+9 
           2775       2.7751e+9 
           2785      2.74039e+9 
           2795      2.66965e+9 
           2805      2.66434e+9 
           2815       2.6501e+9 
           2825      2.59215e+9 
           2835       2.5491e+9 
           2845      2.56039e+9 
           2855      2.52862e+9 
           2865      2.50274e+9 
           2875      2.47488e+9 
           2885      2.44784e+9 
           2895       2.4194e+9 
           2910       2.3774e+9 
           2930      2.32627e+9 
           2950      2.25735e+9 
           2970      2.22675e+9 
           2990      2.17666e+9 
           3010      2.12646e+9 
           3030       2.0872e+9 
           3050      2.04363e+9 
           3070      2.00142e+9 
           3090      1.95007e+9 
           3110      1.91779e+9 
           3130      1.87836e+9 
           3150      1.84016e+9 
           3170      1.80123e+9 
           3190      1.75013e+9 
           3210      1.72941e+9 
           3230      1.69351e+9 
           3250         1.66e+9 
           3270      1.62841e+9 
           3290      1.59378e+9 
           3310      1.56515e+9 
           3330      1.53401e+9 
           3350      1.50165e+9 
           3370      1.47499e+9 
           3390      1.44705e+9 
           3410       1.4194e+9 
           3430      1.38573e+9 
           3450      1.35442e+9 
           3470      1.33253e+9 
           3490      1.30725e+9 
           3510      1.28543e+9 
           3530      1.26449e+9 
           3550      1.24126e+9 
           3570      1.22573e+9 
           3590      1.19346e+9 
           3610      1.17545e+9 
           3630       1.1513e+9 
           3640       1.1501e+9 
           3650      1.12819e+9 
           3670      1.11333e+9 
           3690      1.09239e+9 
           3710      1.05497e+9 
           3730      1.01271e+9 
           3750      1.02572e+9 
           3770      1.01198e+9 
           3790      1.05858e+9 
           3810      1.10002e+9 
           3830      9.63442e+8 
           3850      1.12756e+9 
           3870       1.1392e+9 
           3890      9.08008e+8 
           3910      1.12005e+9 
           3930      1.10451e+9 
           3950      1.08278e+9 
           3970      8.43482e+8 
           3990      1.03728e+9 
           4010        1.036e+9 
           4030      9.72901e+8 
           4050      1.01148e+9 
           4070      9.82823e+8 
           4090      9.00042e+8 
           4110      7.89785e+8 
           4130      9.23619e+8 
           4150      9.17713e+8 
           4170      9.11249e+8 
           4190      8.97914e+8 
           4210      8.84472e+8 
           4230      8.68885e+8 
           4250      8.52488e+8 
           4270      8.32785e+8 
           4290      8.22233e+8 
           4310       8.0227e+8 
           4330      7.22499e+8 
           4350      6.59647e+8 
           4370      7.61097e+8 
           4390      7.35608e+8 
           4410      7.44292e+8 
           4430      7.32193e+8 
           4450      7.22982e+8 
           4470      6.77875e+8 
           4490      6.98703e+8 
           4510      6.89963e+8 
           4530      6.78781e+8 
           4550      6.67458e+8 
           4570       6.5656e+8 
           4590      6.46452e+8 
           4610      6.36229e+8 
           4630      6.26333e+8 
           4650      6.12698e+8 
           4670      6.06891e+8 
           4690      5.98164e+8 
           4710      5.80104e+8 
           4730      5.79468e+8 
           4750      5.69991e+8 
           4770      5.63648e+8 
           4790      5.54862e+8 
           4810      5.44884e+8 
           4830      5.33001e+8 
           4850       4.8936e+8 
           4870      4.38029e+8 
           4890      5.07949e+8 
           4910      5.04773e+8 
           4930      4.85867e+8 
           4950      4.91851e+8 
           4970       4.8549e+8 
           4990      4.78308e+8 
           5010      4.63976e+8 
           5030      4.64552e+8 
           5050       4.5472e+8 
           5070      4.51447e+8 
           5090      4.44954e+8 
           5110      4.38549e+8 
           5130      4.31959e+8 
           5150      4.25897e+8 
           5170      4.20311e+8 
           5190      4.14504e+8 
           5210      4.08566e+8 
           5230      4.03023e+8 
           5250      3.97457e+8 
           5270      3.91923e+8 
           5290      3.86582e+8 
           5310      3.81257e+8 
           5330      3.76068e+8 
           5350      3.70866e+8 
           5370      3.65979e+8 
           5390      3.60999e+8 
           5410      3.56133e+8 
           5430      3.51343e+8 
           5450      3.46613e+8 
           5470      3.42005e+8 
           5490       3.3748e+8 
           5510      3.33062e+8 
           5530      3.28625e+8 
           5550      3.24365e+8 
           5570      3.20072e+8 
           5590      3.15917e+8 
           5610      3.11778e+8 
           5630      3.07772e+8 
           5650      3.03626e+8 
           5670      2.99472e+8 
           5690      2.95381e+8 
           5710      2.92102e+8 
           5730      2.88414e+8 
           5750      2.84565e+8 
           5770      2.81193e+8 
           5790      2.77624e+8 
           5810      2.74131e+8 
           5830      2.70635e+8 
           5850       2.6728e+8 
           5870      2.55512e+8 
           5890      2.59796e+8 
           5910      2.57361e+8 
           5930      2.54096e+8 
           5950      2.50944e+8 
           5970       2.4805e+8 
           5990      2.44905e+8 
           6010      2.41984e+8 
           6030      2.39004e+8 
           6050      2.36129e+8 
           6070      2.33318e+8 
           6090      2.30488e+8 
           6110       2.2773e+8 
           6130      2.25004e+8 
           6150      2.22188e+8 
           6170      2.19612e+8 
           6190      2.17045e+8 
           6210      2.14486e+8 
           6230      2.11956e+8 
           6250      2.09425e+8 
           6270      2.06989e+8 
           6290       2.0458e+8 
           6310      2.02178e+8 
           6330       1.9984e+8 
           6350      1.97444e+8 
           6370      1.95212e+8 
           6390      1.92977e+8 
           6410      1.90757e+8 
           6430      1.88588e+8 
           6450      1.86425e+8 
           6470      1.84203e+8 
           6490       1.8213e+8 
           6510      1.79893e+8 
           6530      1.77052e+8 
           6550      1.68579e+8 
           6570      1.49592e+8 
           6590      1.69601e+8 
           6610       1.6974e+8 
           6630      1.68323e+8 
           6650      1.66554e+8 
           6670      1.62889e+8 
           6690      1.61159e+8 
           6710      1.61112e+8 
           6730      1.59299e+8 
           6750      1.57604e+8 
           6770      1.55885e+8 
           6790      1.54004e+8 
           6810      1.52483e+8 
           6830      1.50841e+8 
           6850      1.49223e+8 
           6870      1.47613e+8 
           6890      1.46011e+8 
           6910      1.44433e+8 
           6930       1.4291e+8 
           6950      1.41395e+8 
           6970      1.39894e+8 
           6990      1.38401e+8 
           7010      1.36946e+8 
           7030      1.35497e+8 
           7050       1.3407e+8 
           7070      1.30471e+8 
           7090      1.31279e+8 
           7110      1.29901e+8 
           7130      1.28551e+8 
           7150      1.27221e+8 
           7170      1.25882e+8 
           7190      1.24607e+8 
           7210      1.23322e+8 
           7230      1.21438e+8 
           7250      1.20783e+8 
           7270       1.1957e+8 
           7290      1.17348e+8 
           7310       1.1713e+8 
           7330      1.15959e+8 
           7350      1.14785e+8 
           7370      1.13629e+8 
           7390      1.12483e+8 
           7410      1.11355e+8 
           7430      1.10238e+8 
           7450      1.09152e+8 
           7470      1.08021e+8 
           7490      1.06988e+8 
           7510      1.05892e+8 
           7530      1.04878e+8 
           7550      1.03847e+8 
           7570      1.02826e+8 
           7590      1.01814e+8 
           7610      1.00811e+8 
           7630      9.98367e+7 
           7650      9.88647e+7 
           7670      9.79015e+7 
           7690      9.69534e+7 
           7710      9.60137e+7 
           7730      9.50888e+7 
           7750      9.41722e+7 
           7770      9.32137e+7 
           7790      9.23757e+7 
           7810      9.14399e+7 
           7830       9.0617e+7 
           7850      8.98318e+7 
           7870      8.89683e+7 
           7890       8.8064e+7 
           7910      8.73121e+7 
           7930      8.64829e+7 
           7950      8.56429e+7 
           7970      8.47214e+7 
           7990      8.38906e+7 
           8010      8.30964e+7 
           8030      8.23149e+7 
           8050      8.15518e+7 
           8070      8.08588e+7 
           8090       7.9976e+7 
           8110      7.93071e+7 
           8130      7.86609e+7 
           8150      7.78726e+7 
           8170      7.72604e+7 
           8190      7.64399e+7 
           8210      7.55481e+7 
           8230      7.50423e+7 
           8250      7.44077e+7 
           8270      7.33597e+7 
           8290      7.30171e+7 
           8310      7.23988e+7 
           8330      7.17095e+7 
           8350      7.07234e+7 
           8370      7.03213e+7 
           8390      6.98044e+7 
           8410      6.91799e+7 
           8430      6.85127e+7 
           8450      6.74238e+7 
           8470       6.7279e+7 
           8490      6.65286e+7 
           8510      6.59822e+7 
           8530      6.53521e+7 
           8550      6.43871e+7 
           8570      6.47281e+7 
           8590      6.25227e+7 
