# Kurucz ODFNEW /NOVER (2003)
# teff = 8250 K (value for the effective temperature for the model. Temperatures are given in K)
# logg = 4.5 log(cm/s2) (value for Log(G) for the model.)
# meta = 0.5  (value for the Metallicity for the model.)
# lh = 1.25  (l/Hp where l is the  mixing length of the convective element and Hp is the pressure scale height)
# vtur = 2 km/s (Microturbulence velocity)
# alpha = 0  (Alpha)
#
# column 1: WAVELENGTH (ANGSTROM), Wavelength in Angstrom
# column 2: FLUX (ERG/CM2/S/A), Flux in erg/cm2/s/A
            328     6.63402e-23 
            338     7.74966e-22 
            348     7.29388e-21 
            357     4.89856e-20 
            366     2.09438e-20 
            375     1.06893e-19 
            385     5.94888e-19 
            395     3.01625e-18 
            405      1.4045e-17 
            414     5.24202e-17 
            422     1.60627e-16 
            430     4.70718e-16 
            441     1.92873e-15 
            451     6.51698e-15 
            460     1.85712e-14 
            470     5.65265e-14 
            480     1.63625e-13 
            490     4.52122e-13 
            500     1.19431e-12 
            506     2.76901e-12 
            512     5.40856e-12 
            520     1.09704e-11 
            530     2.58815e-11 
            540     5.78685e-11 
            550      1.2744e-10 
            560     2.70282e-10 
            570     5.56282e-10 
            580      1.09967e-9 
            590      2.17044e-9 
            600      4.12644e-9 
            610      7.68605e-9 
            620      1.39647e-8 
            630      2.48495e-8 
            640      4.33128e-8 
            650      7.41992e-8 
            658       1.1255e-7 
            665      1.60012e-7 
            675      2.62357e-7 
            685      4.23172e-7 
            695      6.71846e-7 
            705      1.04084e-6 
            716      1.68731e-6 
            726      2.56168e-6 
            735      3.68734e-6 
            745      5.45575e-6 
            755      7.98565e-6 
            765      1.15679e-5 
            775      1.65657e-5 
            785      2.35278e-5 
            795      3.25369e-5 
            805      4.54017e-5 
            815      6.29674e-5 
            825      8.59206e-5 
            835     0.000116197 
            845     0.000155905 
            855     0.000207478 
            865     0.000273913 
            875     0.000356302 
            885     0.000466573 
            895     0.000602889 
            905     0.000766913 
            915        0.218386 
            925        0.613819 
            935        0.798082 
            945         1.05287 
            955         1.41344 
            965         1.81515 
            975          2.2541 
            985         2.83841 
            995         3.49733 
           1005         4.54526 
           1015         5.65812 
           1025         6.77745 
           1035         8.56695 
           1045         10.5296 
           1055         12.8735 
           1065         15.5166 
           1075         18.9782 
           1085         23.0132 
           1095         27.4143 
           1105         68.3622 
           1115         201.197 
           1125         287.608 
           1135         399.035 
           1145         497.383 
           1155          548.93 
           1165         742.925 
           1175         886.933 
           1185         945.429 
           1195         636.867 
           1205         811.537 
           1215         248.568 
           1225         954.159 
           1235         1675.69 
           1245         3591.51 
           1255         8600.78 
           1265         7435.12 
           1275         10976.3 
           1285         14435.8 
           1295         16854.2 
           1305         13792.6 
           1315         19732.9 
           1325         22610.7 
           1335         24499.1 
           1345         29352.8 
           1355         29832.2 
           1365         32330.5 
           1375         34809.1 
           1385         37006.7 
           1395           41914 
           1405         46447.4 
           1415         47447.1 
           1425         52768.6 
           1435         53186.4 
           1442           61047 
           1447           64622 
           1455         71269.9 
           1465         71971.3 
           1475         78203.9 
           1485         85776.2 
           1495         95507.8 
           1505          104234 
           1512          104850 
           1517          113339 
           1525          128736 
           1535          196693 
           1545          321819 
           1555          343711 
           1565          325966 
           1575          504614 
           1585          684365 
           1595          843235 
           1605          885671 
           1615          908868 
           1625          777320 
           1635      1.11716e+6 
           1645       2.1487e+6 
           1655      1.03507e+6 
           1665      2.12674e+6 
           1672      1.04881e+6 
           1677      3.42902e+6 
           1685      5.57738e+6 
           1695      3.42987e+6 
           1705      5.25745e+6 
           1715      9.96329e+6 
           1725      1.09406e+7 
           1735      1.54272e+7 
           1745      1.41399e+7 
           1755       1.9317e+7 
           1765      1.08464e+7 
           1775      1.72556e+7 
           1785      1.72543e+7 
           1795       2.4327e+7 
           1805      1.85241e+7 
           1815      1.96746e+7 
           1825      1.72437e+7 
           1835      1.54799e+7 
           1845      1.29209e+7 
           1855      1.69456e+7 
           1865      2.14813e+7 
           1875      1.96432e+7 
           1885      2.05285e+7 
           1895      2.26949e+7 
           1905      2.02274e+7 
           1915      2.23774e+7 
           1925      2.01895e+7 
           1935      1.17791e+7 
           1945       2.3475e+7 
           1955      2.43374e+7 
           1967      2.79079e+7 
           1976      2.68863e+7 
           1984      2.48256e+7 
           1995      2.51082e+7 
           2005      2.22709e+7 
           2015      2.14807e+7 
           2025      1.99351e+7 
           2035      2.42591e+7 
           2045      2.68862e+7 
           2055      2.48793e+7 
           2065      2.38147e+7 
           2074      2.87469e+7 
           2078       3.2523e+7 
           2085      3.05398e+7 
           2095       2.7576e+7 
           2105      2.50284e+7 
           2115      2.64051e+7 
           2125      2.76797e+7 
           2135      2.13638e+7 
           2145      2.67885e+7 
           2155      2.70824e+7 
           2165      2.40808e+7 
           2175      2.40812e+7 
           2185      2.66405e+7 
           2195      2.87667e+7 
           2205      2.66336e+7 
           2215      2.22104e+7 
           2225      2.18924e+7 
           2235      2.73458e+7 
           2245      2.44993e+7 
           2255      2.10197e+7 
           2265      2.11914e+7 
           2275      2.37067e+7 
           2285      2.59666e+7 
           2295      2.24041e+7 
           2305      2.40204e+7 
           2315      2.23835e+7 
           2325      2.15481e+7 
           2335      1.71332e+7 
           2345      1.29666e+7 
           2355      2.08029e+7 
           2365      1.36258e+7 
           2375      1.70465e+7 
           2385       1.1222e+7 
           2395      1.40885e+7 
           2405      1.37469e+7 
           2415      1.46694e+7 
           2425      2.02503e+7 
           2435      1.91801e+7 
           2445      2.16162e+7 
           2455       2.1708e+7 
           2465      2.11862e+7 
           2475      1.91076e+7 
           2485      1.91079e+7 
           2495      1.79105e+7 
           2505      2.41358e+7 
           2513      1.78541e+7 
           2518      1.80767e+7 
           2525      1.54264e+7 
           2535      1.40351e+7 
           2545      1.29741e+7 
           2555      1.63001e+7 
           2565      1.57432e+7 
           2575      1.96369e+7 
           2585       1.9801e+7 
           2595      1.89298e+7 
           2605      1.71099e+7 
           2615      1.57931e+7 
           2625      2.06597e+7 
           2635      2.24468e+7 
           2645      2.86854e+7 
           2655      3.06155e+7 
           2665      2.31897e+7 
           2675      2.66857e+7 
           2685      2.62323e+7 
           2695      2.36763e+7 
           2705      2.60188e+7 
           2715      2.27472e+7 
           2725      2.31944e+7 
           2735      2.58188e+7 
           2745       1.6808e+7 
           2755      1.89173e+7 
           2765      2.10617e+7 
           2775      2.50236e+7 
           2785      2.02819e+7 
           2795      8.49905e+6 
           2805      1.12789e+7 
           2815      2.53648e+7 
           2825      3.00241e+7 
           2835      2.79706e+7 
           2845      2.62686e+7 
           2855      2.26162e+7 
           2865       2.8365e+7 
           2875      2.76963e+7 
           2885      2.76703e+7 
           2895      2.60028e+7 
           2910      3.18325e+7 
           2930      2.93076e+7 
           2950      2.91414e+7 
           2970      3.13017e+7 
           2990      3.13112e+7 
           3010      3.24125e+7 
           3030      3.18358e+7 
           3050      3.17105e+7 
           3070      3.23419e+7 
           3090      3.31047e+7 
           3110      3.18581e+7 
           3130       3.1523e+7 
           3150      3.26738e+7 
           3170      3.23363e+7 
           3190      2.97456e+7 
           3210      3.11658e+7 
           3230       2.9012e+7 
           3250      3.09137e+7 
           3270      3.20926e+7 
           3290      3.19643e+7 
           3310      3.28088e+7 
           3330      3.19786e+7 
           3350      3.15019e+7 
           3370      3.07679e+7 
           3390      3.11769e+7 
           3410      3.11784e+7 
           3430      3.11729e+7 
           3450      3.11977e+7 
           3470      3.07534e+7 
           3490      3.07654e+7 
           3510      3.14927e+7 
           3530      3.10583e+7 
           3550      3.24013e+7 
           3570      3.02539e+7 
           3590      2.99499e+7 
           3610      3.01219e+7 
           3630      3.03284e+7 
           3640      2.98492e+7 
           3650      3.18237e+7 
           3670      3.13995e+7 
           3690      3.03711e+7 
           3710      3.02416e+7 
           3730      2.91167e+7 
           3750      3.39398e+7 
           3770      3.62896e+7 
           3790      4.38439e+7 
           3810      5.08695e+7 
           3830       4.0208e+7 
           3850      5.63169e+7 
           3870      6.37001e+7 
           3890      3.78146e+7 
           3910      6.30515e+7 
           3930      5.12033e+7 
           3950       6.1595e+7 
           3970      3.39874e+7 
           3990      6.29906e+7 
           4010      7.29253e+7 
           4030      7.33677e+7 
           4050       7.2135e+7 
           4070      6.82711e+7 
           4090      5.36782e+7 
           4110      4.15711e+7 
           4130      6.51622e+7 
           4150      7.11088e+7 
           4170      7.13318e+7 
           4190      7.08713e+7 
           4210      7.09031e+7 
           4230      6.82088e+7 
           4250      6.92473e+7 
           4270      6.49264e+7 
           4290      6.60931e+7 
           4310      5.91172e+7 
           4330      4.59094e+7 
           4350      3.92069e+7 
           4370      6.05134e+7 
           4390      6.31613e+7 
           4410      6.27582e+7 
           4430      6.12119e+7 
           4450      6.31551e+7 
           4470      6.31568e+7 
           4490      6.19209e+7 
           4510      6.46345e+7 
           4530      6.13645e+7 
           4550      6.07189e+7 
           4570      6.28583e+7 
           4590      5.98673e+7 
           4610      6.10596e+7 
           4630      5.90588e+7 
           4650      5.95136e+7 
           4670      5.95525e+7 
           4690      5.64355e+7 
           4710      5.36494e+7 
           4730      5.72059e+7 
           4750      5.69807e+7 
           4770      5.57952e+7 
           4790       5.5084e+7 
           4810       5.3189e+7 
           4830      5.01285e+7 
           4850      3.80437e+7 
           4870      3.04536e+7 
           4890      4.63946e+7 
           4910        4.981e+7 
           4930      4.96237e+7 
           4950      5.10393e+7 
           4970      5.14087e+7 
           4990      4.89928e+7 
           5010      4.70099e+7 
           5030      4.85398e+7 
           5050      4.74972e+7 
           5070      4.87163e+7 
           5090      4.78428e+7 
           5110      4.79235e+7 
           5130      4.67388e+7 
           5150      4.54021e+7 
           5170      4.45892e+7 
           5190       4.4042e+7 
           5210      4.43485e+7 
           5230      4.39769e+7 
           5250      4.45638e+7 
           5270      4.09476e+7 
           5290      4.34212e+7 
           5310      4.27901e+7 
           5330      4.05268e+7 
           5350      4.22066e+7 
           5370      4.18706e+7 
           5390      4.13542e+7 
           5410      4.00708e+7 
           5430      4.06105e+7 
           5450       4.0885e+7 
           5470      4.02303e+7 
           5490      3.98064e+7 
           5510      3.95887e+7 
           5530      3.91846e+7 
           5550      3.90483e+7 
           5570      3.84186e+7 
           5590      3.79368e+7 
           5610      3.79876e+7 
           5630      3.79096e+7 
           5650      3.74104e+7 
           5670      3.66512e+7 
           5690      3.67059e+7 
           5710      3.63544e+7 
           5730      3.68194e+7 
           5750      3.59085e+7 
           5770      3.58173e+7 
           5790      3.53444e+7 
           5810      3.51919e+7 
           5830      3.50384e+7 
           5850      3.45416e+7 
           5870      3.42772e+7 
           5890      3.33465e+7 
           5910      3.36713e+7 
           5930      3.33706e+7 
           5950      3.30562e+7 
           5970      3.28393e+7 
           5990      3.23558e+7 
           6010      3.17309e+7 
           6030      3.17104e+7 
           6050      3.15567e+7 
           6070      3.15218e+7 
           6090      3.10521e+7 
           6110      3.06069e+7 
           6130      2.99494e+7 
           6150      2.92748e+7 
           6170      2.92308e+7 
           6190      2.97835e+7 
           6210      2.95344e+7 
           6230      2.90364e+7 
           6250      2.80851e+7 
           6270      2.88463e+7 
           6290      2.86288e+7 
           6310      2.79679e+7 
           6330      2.78573e+7 
           6350      2.72888e+7 
           6370       2.7191e+7 
           6390      2.71955e+7 
           6410        2.664e+7 
           6430      2.66331e+7 
           6450      2.59402e+7 
           6470      2.60213e+7 
           6490      2.53952e+7 
           6510      2.51265e+7 
           6530       2.4001e+7 
           6550      2.03545e+7 
           6570      1.62536e+7 
           6590      2.23653e+7 
           6610      2.39391e+7 
           6630      2.42577e+7 
           6650      2.42356e+7 
           6670      2.40083e+7 
           6690      2.40148e+7 
           6710      2.38125e+7 
           6730      2.36312e+7 
           6750      2.32127e+7 
           6770      2.33544e+7 
           6790      2.31288e+7 
           6810      2.29371e+7 
           6830      2.26964e+7 
           6850      2.24805e+7 
           6870      2.24145e+7 
           6890      2.22425e+7 
           6910      2.20382e+7 
           6930      2.18272e+7 
           6950      2.16854e+7 
           6970      2.14766e+7 
           6990      2.13708e+7 
           7010      2.08266e+7 
           7030      2.09065e+7 
           7050      2.07949e+7 
           7070       2.0657e+7 
           7090      2.04979e+7 
           7110      1.97918e+7 
           7130      1.99707e+7 
           7150       1.9865e+7 
           7170      1.96781e+7 
           7190      1.94704e+7 
           7210      1.94372e+7 
           7230      1.92527e+7 
           7250      1.90019e+7 
           7270      1.90557e+7 
           7290      1.87095e+7 
           7310      1.86891e+7 
           7330       1.8555e+7 
           7350      1.84932e+7 
           7370      1.83569e+7 
           7390      1.80576e+7 
           7410      1.78086e+7 
           7430      1.75867e+7 
           7450      1.75697e+7 
           7470      1.73462e+7 
           7490      1.73255e+7 
           7510      1.72941e+7 
           7530      1.71917e+7 
           7550      1.71543e+7 
           7570      1.69652e+7 
           7590      1.68739e+7 
           7610      1.67183e+7 
           7630      1.66231e+7 
           7650      1.64403e+7 
           7670      1.61587e+7 
           7690      1.61003e+7 
           7710      1.60422e+7 
           7730      1.59814e+7 
           7750      1.57955e+7 
           7770      1.53386e+7 
           7790      1.56859e+7 
           7810      1.55179e+7 
           7830        1.529e+7 
           7850      1.51101e+7 
           7870      1.50535e+7 
           7890      1.48853e+7 
           7910      1.47409e+7 
           7930      1.45881e+7 
           7950      1.44707e+7 
           7970      1.46461e+7 
           7990      1.43292e+7 
           8010      1.43722e+7 
           8030      1.42014e+7 
           8050       1.4153e+7 
           8070      1.40441e+7 
           8090      1.39253e+7 
           8110      1.39037e+7 
           8130      1.38405e+7 
           8150      1.37318e+7 
           8170       1.3637e+7 
           8190      1.32335e+7 
           8210      1.31512e+7 
           8230      1.30729e+7 
           8250      1.30439e+7 
           8270      1.31897e+7 
           8290      1.30652e+7 
           8310       1.2914e+7 
           8330      1.27044e+7 
           8350      1.27674e+7 
           8370      1.27495e+7 
           8390      1.26004e+7 
           8410      1.25646e+7 
           8430      1.24053e+7 
           8450      1.20903e+7 
           8470      1.21661e+7 
           8490      1.20916e+7 
           8510      1.15562e+7 
           8530      1.19422e+7 
           8550      1.05625e+7 
           8570      1.19777e+7 
           8590      1.13844e+7 
           8610      1.11948e+7 
           8630      1.18208e+7 
           8650      1.14002e+7 
           8670      9.59153e+6 
           8690      1.12052e+7 
           8710      1.17303e+7 
           8730      1.12604e+7 
           8750       9.3451e+6 
           8770      1.08283e+7 
           8790      1.15968e+7 
           8810      1.16354e+7 
           8830      1.11532e+7 
           8850      1.00466e+7 
           8870      8.73196e+6 
           8890      1.07281e+7 
           8910      1.12637e+7 
           8930      1.13121e+7 
           8950       1.1428e+7 
           8970      1.11079e+7 
           8990      1.05043e+7 
           9010      8.42791e+6 
           9030      9.19267e+6 
           9050       1.0532e+7 
           9070      1.05969e+7 
           9090      1.04883e+7 
           9110        1.081e+7 
           9130      1.08843e+7 
           9150      1.08664e+7 
           9170      1.06224e+7 
           9190      1.02194e+7 
           9210       9.3334e+6 
           9230      7.36629e+6 
           9250      8.93099e+6 
           9270       9.6461e+6 
           9290      1.02205e+7 
           9310      1.03201e+7 
           9330      1.02755e+7 
           9350      1.02807e+7 
           9370      1.02527e+7 
