# Kurucz ODFNEW /NOVER (2003)
# teff = 27000 K (value for the effective temperature for the model. Temperatures are given in K)
# logg = 5 log(cm/s2) (value for Log(G) for the model.)
# meta = -1  (value for the Metallicity for the model.)
# lh = 1.25  (l/Hp where l is the  mixing length of the convective element and Hp is the pressure scale height)
# vtur = 2 km/s (Microturbulence velocity)
# alpha = 0.4  (Alpha)
#
# column 1: WAVELENGTH (ANGSTROM), Wavelength in Angstrom
# column 2: FLUX (ERG/CM2/S/A), Flux in erg/cm2/s/A
          147.2     6.59977e-12 
            151     2.53125e-11 
          155.2     1.04108e-10 
          158.8     3.31143e-10 
            162     8.90548e-10 
            166      2.91803e-9 
          170.3      9.85999e-9 
          173.4      2.29163e-8 
          176.8      5.59594e-8 
          180.2      1.32386e-7 
          181.7      1.91669e-7 
          186.1      5.49911e-7 
            191       1.6845e-6 
          193.9       3.1846e-6 
          198.4      8.25659e-6 
          201.8         1.65e-5 
            205      3.10178e-5 
          210.5      8.78775e-5 
          216.2     0.000244652 
          219.8     0.000454559 
            223     0.000775292 
          226.8      0.00143329 
            230       0.0706749 
            234        0.160741 
            240        0.350241 
          246.5        0.779657 
          252.4          1.5755 
          256.8         2.45462 
            260         3.66063 
            264         5.51019 
          268.5         8.75089 
          273.5         14.2402 
          278.5         22.8625 
            284         38.1914 
            290         64.0395 
            296         105.173 
            301         155.821 
            308         256.547 
            318         556.652 
            328         1072.37 
            338          2053.8 
            348         3710.24 
            357         6637.82 
            366         10937.7 
            375         16775.7 
            385         27050.3 
            395         42186.9 
            405         63827.5 
            414         92111.8 
            422          122618 
            430          164117 
            441          240007 
            451          335536 
            460          440218 
            470          594990 
            480          787338 
            490      1.03374e+6 
            500      1.34432e+6 
            506      7.02472e+6 
            512      2.76715e+7 
            520      3.16974e+7 
            530       3.9289e+7 
            540      4.04764e+7 
            550      5.28754e+7 
            560      5.86309e+7 
            570       6.7838e+7 
            580      6.68336e+7 
            590      8.21034e+7 
            600       9.1135e+7 
            610      1.02915e+8 
            620      1.11343e+8 
            630      1.22292e+8 
            640       1.2664e+8 
            650      1.40455e+8 
            658      1.52819e+8 
            665      1.62056e+8 
            675      1.69709e+8 
            685      1.79298e+8 
            695      2.06122e+8 
            705      2.14733e+8 
            716      2.36602e+8 
            726      2.48563e+8 
            735      2.63929e+8 
            745      2.85969e+8 
            755      3.03677e+8 
            765      3.21584e+8 
            775      3.42781e+8 
            785      3.64175e+8 
            795      3.79081e+8 
            805      3.98789e+8 
            815      4.15669e+8 
            825      4.40834e+8 
            835       4.3881e+8 
            845      4.74515e+8 
            855      4.93411e+8 
            865      5.18905e+8 
            875      5.44262e+8 
            885      5.71137e+8 
            895      5.93765e+8 
            905      6.04865e+8 
            915      7.18068e+8 
            925      2.91023e+9 
            935       7.2004e+9 
            945     2.08811e+10 
            955       3.181e+10 
            965     4.39263e+10 
            975     1.34642e+10 
            985     5.14485e+10 
            995     4.83876e+10 
           1005      5.1357e+10 
           1015     4.51465e+10 
           1025     1.27668e+10 
           1035     3.80906e+10 
           1045     5.28065e+10 
           1055     5.10452e+10 
           1065     4.42619e+10 
           1075     4.73542e+10 
           1085     4.29492e+10 
           1095      4.6655e+10 
           1105     4.31178e+10 
           1115     4.22267e+10 
           1125     3.73864e+10 
           1135     4.14564e+10 
           1145     3.73044e+10 
           1155     3.86183e+10 
           1165     3.82302e+10 
           1175     3.01083e+10 
           1185     3.58721e+10 
           1195     3.26625e+10 
           1205     2.47462e+10 
           1215       9.4829e+9 
           1225     2.56747e+10 
           1235     3.13566e+10 
           1245      3.1217e+10 
           1255     3.05612e+10 
           1265     3.01765e+10 
           1275      3.0245e+10 
           1285     2.94863e+10 
           1295     2.48768e+10 
           1305     2.51916e+10 
           1315     2.75702e+10 
           1325     2.62866e+10 
           1335     2.53404e+10 
           1345       2.499e+10 
           1355     2.51416e+10 
           1365     2.36383e+10 
           1375     2.33037e+10 
           1385     2.30312e+10 
           1395     1.96261e+10 
           1405     2.01531e+10 
           1415     2.12653e+10 
           1425     2.06321e+10 
           1435     2.05358e+10 
           1442     2.07029e+10 
           1447     2.03532e+10 
           1455      1.9904e+10 
           1465      1.9233e+10 
           1475     1.89159e+10 
           1485     1.84621e+10 
           1495     1.80912e+10 
           1505      1.7015e+10 
           1512     1.64757e+10 
           1517     1.65963e+10 
           1525     1.64323e+10 
           1535     1.51907e+10 
           1545      1.5105e+10 
           1555     1.44862e+10 
           1565     1.48252e+10 
           1575     1.49354e+10 
           1585     1.46553e+10 
           1595     1.45427e+10 
           1605     1.40447e+10 
           1615     1.37035e+10 
           1625     1.36389e+10 
           1635     1.36543e+10 
           1645     1.32412e+10 
           1655     1.31882e+10 
           1665     1.30611e+10 
           1672     1.27344e+10 
           1677     1.30315e+10 
           1685     1.27564e+10 
           1695     1.23796e+10 
           1705      1.2013e+10 
           1715     1.16297e+10 
           1725     1.14076e+10 
           1735        1.14e+10 
           1745     1.11904e+10 
           1755     1.11143e+10 
           1765     1.07009e+10 
           1775     1.04907e+10 
           1785     1.03941e+10 
           1795     1.04015e+10 
           1805     1.03027e+10 
           1815       9.8803e+9 
           1825      9.85636e+9 
           1835      9.63801e+9 
           1845      9.02661e+9 
           1855      8.92254e+9 
           1865      8.95806e+9 
           1875      8.99671e+9 
           1885      8.40203e+9 
           1895      7.98575e+9 
           1905      8.28737e+9 
           1915      7.96179e+9 
           1925      7.71408e+9 
           1935      7.87029e+9 
           1945      7.92053e+9 
           1955      7.41192e+9 
           1967      7.61124e+9 
           1976      7.77006e+9 
           1984      7.37455e+9 
           1995      7.17267e+9 
           2005      7.23279e+9 
           2015      7.21267e+9 
           2025      7.22843e+9 
           2035      6.90275e+9 
           2045      6.82928e+9 
           2055      6.57359e+9 
           2065      6.56653e+9 
           2074      6.66495e+9 
           2078      6.42565e+9 
           2085      6.43509e+9 
           2095      6.23081e+9 
           2105      6.32402e+9 
           2115      6.27556e+9 
           2125      6.27053e+9 
           2135      6.14697e+9 
           2145       5.9849e+9 
           2155      5.98521e+9 
           2165      5.91478e+9 
           2175      5.81273e+9 
           2185      5.73763e+9 
           2195      5.68289e+9 
           2205      5.59977e+9 
           2215       5.5256e+9 
           2225      5.42681e+9 
           2235      5.34117e+9 
           2245      5.29878e+9 
           2255      5.20373e+9 
           2265      5.15641e+9 
           2275       5.0852e+9 
           2285      5.02166e+9 
           2295      4.84968e+9 
           2305      4.87711e+9 
           2315      4.79675e+9 
           2325      4.73683e+9 
           2335      4.64632e+9 
           2345      4.60472e+9 
           2355      4.55857e+9 
           2365      4.49619e+9 
           2375      4.42788e+9 
           2385      4.37023e+9 
           2395       4.3126e+9 
           2405       4.2574e+9 
           2415      4.19328e+9 
           2425      4.15877e+9 
           2435      4.08656e+9 
           2445      4.04299e+9 
           2455      3.99899e+9 
           2465      3.94782e+9 
           2475      3.89489e+9 
           2485       3.8447e+9 
           2495      3.64987e+9 
           2505       3.7384e+9 
           2513      3.64031e+9 
           2518      3.67049e+9 
           2525      3.64839e+9 
           2535      3.60507e+9 
           2545      3.51752e+9 
           2555      3.50418e+9 
           2565      3.46162e+9 
           2575      3.43411e+9 
           2585      3.39395e+9 
           2595      3.35251e+9 
           2605      3.32899e+9 
           2615      3.29024e+9 
           2625      3.25319e+9 
           2635      3.21265e+9 
           2645      3.17473e+9 
           2655      3.13429e+9 
           2665      3.08052e+9 
           2675      3.04437e+9 
           2685      3.02958e+9 
           2695      2.95775e+9 
           2705      2.94957e+9 
           2715      2.91756e+9 
           2725      2.85768e+9 
           2735      2.84991e+9 
           2745      2.80539e+9 
           2755        2.779e+9 
           2765      2.72464e+9 
           2775      2.72515e+9 
           2785      2.69051e+9 
           2795      2.60527e+9 
           2805        2.611e+9 
           2815      2.60214e+9 
           2825      2.54041e+9 
           2835      2.49768e+9 
           2845      2.51371e+9 
           2855      2.48268e+9 
           2865       2.4568e+9 
           2875       2.4293e+9 
           2885      2.40321e+9 
           2895      2.37544e+9 
           2910      2.33318e+9 
           2930      2.28125e+9 
           2950      2.21219e+9 
           2970      2.18592e+9 
           2990      2.13596e+9 
           3010      2.08783e+9 
           3030      2.04797e+9 
           3050      2.00548e+9 
           3070      1.96425e+9 
           3090      1.91105e+9 
           3110      1.88176e+9 
           3130      1.84241e+9 
           3150      1.80545e+9 
           3170       1.7679e+9 
           3190      1.71422e+9 
           3210      1.69728e+9 
           3230      1.66137e+9 
           3250      1.62883e+9 
           3270      1.59811e+9 
           3290      1.56384e+9 
           3310      1.53596e+9 
           3330      1.50544e+9 
           3350      1.47348e+9 
           3370      1.44722e+9 
           3390         1.42e+9 
           3410       1.3929e+9 
           3430      1.35995e+9 
           3450      1.32885e+9 
           3470      1.30738e+9 
           3490      1.28266e+9 
           3510      1.26066e+9 
           3530      1.23888e+9 
           3550       1.2168e+9 
           3570      1.20306e+9 
           3590       1.1692e+9 
           3610      1.15386e+9 
           3630      1.12825e+9 
           3640      1.12891e+9 
           3650       1.1075e+9 
           3670       1.0933e+9 
           3690      1.07479e+9 
           3710      1.03893e+9 
           3730      1.00309e+9 
           3750       9.9269e+8 
           3770      9.65248e+8 
           3790      1.00468e+9 
           3810      1.04635e+9 
           3830       9.1069e+8 
           3850      1.08087e+9 
           3870        1.106e+9 
           3890      8.52839e+8 
           3910      1.09127e+9 
           3930      1.08658e+9 
           3950      1.05694e+9 
           3970      7.92784e+8 
           3990      1.00902e+9 
           4010      1.02129e+9 
           4030      9.47385e+8 
           4050      1.00165e+9 
           4070      9.67631e+8 
           4090      8.63063e+8 
           4110      7.50109e+8 
           4130      9.06236e+8 
           4150      9.06797e+8 
           4170      9.03363e+8 
           4190      8.91026e+8 
           4210      8.78648e+8 
           4230      8.62905e+8 
           4250      8.45438e+8 
           4270      8.24478e+8 
           4290      8.13268e+8 
           4310      7.89736e+8 
           4330      6.91977e+8 
           4350      6.28888e+8 
           4370      7.47939e+8 
           4390      7.21729e+8 
           4410       7.3666e+8 
           4430      7.26069e+8 
           4450         7.16e+8 
           4470      6.61736e+8 
           4490      6.90873e+8 
           4510      6.84648e+8 
           4530      6.73567e+8 
           4550      6.61908e+8 
           4570      6.50987e+8 
           4590      6.40927e+8 
           4610      6.30928e+8 
           4630      6.21465e+8 
           4650      6.07088e+8 
           4670      6.01554e+8 
           4690      5.93505e+8 
           4710      5.72852e+8 
           4730      5.74804e+8 
           4750      5.65282e+8 
           4770      5.59111e+8 
           4790      5.49592e+8 
           4810      5.38729e+8 
           4830      5.24281e+8 
           4850      4.70253e+8 
           4870      4.18269e+8 
           4890      4.98465e+8 
           4910      4.98366e+8 
           4930      4.77187e+8 
           4950        4.871e+8 
           4970      4.81388e+8 
           4990      4.74254e+8 
           5010      4.58873e+8 
           5030      4.60442e+8 
           5050       4.4983e+8 
           5070      4.47607e+8 
           5090      4.41072e+8 
           5110      4.34712e+8 
           5130       4.2828e+8 
           5150      4.22247e+8 
           5170      4.16576e+8 
           5190      4.10826e+8 
           5210      4.04611e+8 
           5230      3.99511e+8 
           5250      3.93958e+8 
           5270      3.88464e+8 
           5290      3.83163e+8 
           5310      3.77877e+8 
           5330      3.72646e+8 
           5350      3.67417e+8 
           5370      3.62674e+8 
           5390      3.57705e+8 
           5410       3.5289e+8 
           5430      3.48008e+8 
           5450      3.43366e+8 
           5470      3.38807e+8 
           5490      3.34381e+8 
           5510      3.29972e+8 
           5530      3.25569e+8 
           5550      3.21331e+8 
           5570      3.17073e+8 
           5590      3.12964e+8 
           5610      3.08821e+8 
           5630      3.04872e+8 
           5650      3.00605e+8 
           5670      2.96601e+8 
           5690      2.92681e+8 
           5710      2.89329e+8 
           5730      2.85695e+8 
           5750      2.81774e+8 
           5770      2.78522e+8 
           5790      2.74983e+8 
           5810      2.71509e+8 
           5830      2.68053e+8 
           5850      2.64715e+8 
           5870      2.51303e+8 
           5890      2.56897e+8 
           5910      2.54859e+8 
           5930      2.51707e+8 
           5950      2.48507e+8 
           5970       2.4565e+8 
           5990      2.42522e+8 
           6010      2.39648e+8 
           6030      2.36704e+8 
           6050      2.33844e+8 
           6070      2.31018e+8 
           6090      2.28223e+8 
           6110       2.2549e+8 
           6130      2.22788e+8 
           6150      2.19957e+8 
           6170      2.17445e+8 
           6190      2.14901e+8 
           6210      2.12357e+8 
           6230       2.0985e+8 
           6250      2.07323e+8 
           6270       2.0492e+8 
           6290      2.02523e+8 
           6310      2.00125e+8 
           6330      1.97828e+8 
           6350      1.95313e+8 
           6370      1.93179e+8 
           6390      1.91012e+8 
           6410      1.88804e+8 
           6430      1.86675e+8 
           6450      1.84523e+8 
           6470      1.82322e+8 
           6490      1.80198e+8 
           6510      1.77662e+8 
           6530      1.74446e+8 
           6550      1.63705e+8 
           6570      1.44164e+8 
           6590      1.66504e+8 
           6610      1.67576e+8 
           6630      1.66301e+8 
           6650      1.64808e+8 
           6670      1.60722e+8 
           6690       1.5903e+8 
           6710      1.59455e+8 
           6730      1.57644e+8 
           6750      1.55984e+8 
           6770      1.54282e+8 
           6790      1.52427e+8 
           6810      1.50916e+8 
           6830      1.49266e+8 
           6850      1.47681e+8 
           6870      1.46088e+8 
           6890      1.44495e+8 
           6910      1.42926e+8 
           6930       1.4142e+8 
           6950      1.39929e+8 
           6970      1.38437e+8 
           6990      1.36967e+8 
           7010      1.35512e+8 
           7030      1.34079e+8 
           7050      1.32675e+8 
           7070      1.28873e+8 
           7090      1.29908e+8 
           7110      1.28537e+8 
           7130      1.27202e+8 
           7150       1.2588e+8 
           7170       1.2457e+8 
           7190      1.23295e+8 
           7210      1.22025e+8 
           7230      1.20169e+8 
           7250        1.195e+8 
           7270      1.18302e+8 
           7290      1.16016e+8 
           7310      1.15889e+8 
           7330      1.14725e+8 
           7350      1.13565e+8 
           7370      1.12422e+8 
           7390       1.1129e+8 
           7410      1.10169e+8 
           7430      1.09051e+8 
           7450      1.07984e+8 
           7470       1.0684e+8 
           7490       1.0584e+8 
           7510      1.04763e+8 
           7530      1.03755e+8 
           7550      1.02737e+8 
           7570      1.01728e+8 
           7590      1.00728e+8 
           7610      9.97181e+7 
           7630      9.87625e+7 
           7650      9.78026e+7 
           7670      9.68513e+7 
           7690      9.59086e+7 
           7710      9.49807e+7 
           7730      9.40611e+7 
           7750      9.31561e+7 
           7770      9.21217e+7 
           7790      9.13824e+7 
           7810      9.04579e+7 
           7830        8.964e+7 
           7850      8.88476e+7 
           7870       8.7989e+7 
           7890      8.70836e+7 
           7910      8.63728e+7 
           7930      8.55603e+7 
           7950      8.47012e+7 
           7970       8.3814e+7 
           7990      8.29995e+7 
           8010      8.22157e+7 
           8030      8.14327e+7 
           8050       8.0674e+7 
           8070      7.99333e+7 
           8090      7.91184e+7 
           8110      7.83735e+7 
           8130      7.77832e+7 
           8150      7.70162e+7 
           8170      7.63856e+7 
           8190      7.55749e+7 
           8210      7.47377e+7 
           8230      7.42025e+7 
           8250       7.3583e+7 
           8270       7.2561e+7 
           8290      7.22332e+7 
           8310      7.16241e+7 
           8330      7.09385e+7 
           8350      6.99777e+7 
           8370      6.95792e+7 
           8390      6.90712e+7 
           8410      6.84555e+7 
           8430      6.78024e+7 
           8450      6.67062e+7 
           8470      6.66226e+7 
           8490      6.58701e+7 
           8510        6.541e+7 
           8530      6.46842e+7 
           8550      6.40315e+7 
           8570      6.38561e+7 
           8590      6.20427e+7 
