# Kurucz ODFNEW /NOVER (2003)
# teff = 30000 K (value for the effective temperature for the model. Temperatures are given in K)
# logg = 4 log(cm/s2) (value for Log(G) for the model.)
# meta = 0  (value for the Metallicity for the model.)
# lh = 1.25  (l/Hp where l is the  mixing length of the convective element and Hp is the pressure scale height)
# vtur = 2 km/s (Microturbulence velocity)
# alpha = 0  (Alpha)
#
# column 1: WAVELENGTH (ANGSTROM), Wavelength in Angstrom
# column 2: FLUX (ERG/CM2/S/A), Flux in erg/cm2/s/A
          147.2      6.81188e-9 
            151      2.15338e-8 
          155.2      7.21942e-8 
          158.8      1.94046e-7 
            162      4.51246e-7 
            166      1.23989e-6 
          170.3      3.48579e-6 
          173.4       7.1394e-6 
          176.8      1.52207e-5 
          180.2      3.15553e-5 
          181.7      4.31857e-5 
          186.1     0.000105333 
            191     0.000271438 
          193.9     0.000464915 
          198.4      0.00103958 
          201.8      0.00186555 
            205      0.00317851 
          210.5      0.00766352 
          216.2       0.0181899 
          219.8       0.0307469 
            223       0.0483099 
          226.8       0.0821377 
            230          25.859 
            234         56.4805 
            240         101.194 
          246.5         192.171 
          252.4         338.825 
          256.8         478.437 
            260         811.807 
            264         1243.55 
          268.5         1891.74 
          273.5         2782.78 
          278.5         3881.52 
            284         8225.78 
            290         12535.1 
            296         17998.4 
            301         24799.8 
            308         52805.8 
            318          114754 
            328          183130 
            338          329036 
            348          535990 
            357       1.4479e+6 
            366      2.82865e+6 
            375      3.65518e+6 
            385      5.52545e+6 
            395      9.79267e+6 
            405      1.26775e+7 
            414       1.7279e+7 
            422      2.03827e+7 
            430      2.54155e+7 
            441      3.31051e+7 
            451      3.94545e+7 
            460      4.52609e+7 
            470      5.66936e+7 
            480      6.91537e+7 
            490      8.21007e+7 
            500      9.95847e+7 
            506      2.64365e+8 
            512      1.89224e+9 
            520      1.81064e+9 
            530      1.68864e+9 
            540      1.59554e+9 
            550      2.03795e+9 
            560      2.47073e+9 
            570       2.6109e+9 
            580      2.37483e+9 
            590       2.6462e+9 
            600      2.31678e+9 
            610      2.79636e+9 
            620      3.20641e+9 
            630      3.14473e+9 
            640      2.97732e+9 
            650      2.82748e+9 
            658      2.78168e+9 
            665      3.24615e+9 
            675      3.50382e+9 
            685      3.00083e+9 
            695      3.97519e+9 
            705      3.40063e+9 
            716       4.3037e+9 
            726      4.21169e+9 
            735      4.25213e+9 
            745      4.35928e+9 
            755      4.39373e+9 
            765      4.55313e+9 
            775      4.73658e+9 
            785      4.95665e+9 
            795      4.97466e+9 
            805       4.8652e+9 
            815      4.84722e+9 
            825      5.16442e+9 
            835      4.28117e+9 
            845      5.01391e+9 
            855      5.00193e+9 
            865      5.19458e+9 
            875      5.31419e+9 
            885       5.5079e+9 
            895      5.60467e+9 
            905      5.47736e+9 
            915      6.64971e+9 
            925     2.79043e+10 
            935     4.63766e+10 
            945     6.25741e+10 
            955      6.7099e+10 
            965     7.47006e+10 
            975     2.52175e+10 
            985     5.91017e+10 
            995     5.57013e+10 
           1005     5.99097e+10 
           1015     6.24832e+10 
           1025     4.78664e+10 
           1035     5.80485e+10 
           1045     6.99521e+10 
           1055     6.56875e+10 
           1065     5.60465e+10 
           1075     5.94324e+10 
           1085     5.46073e+10 
           1095     5.83683e+10 
           1105     5.55611e+10 
           1115     5.45629e+10 
           1125     4.39588e+10 
           1135     5.25779e+10 
           1145      4.9721e+10 
           1155     4.84769e+10 
           1165     4.71236e+10 
           1175     2.95462e+10 
           1185     4.28609e+10 
           1195     4.17271e+10 
           1205     3.83054e+10 
           1215     3.04681e+10 
           1225     3.88999e+10 
           1235     4.16959e+10 
           1245     3.98403e+10 
           1255     3.97533e+10 
           1265     4.06693e+10 
           1275     4.16398e+10 
           1285     4.14255e+10 
           1295     3.70007e+10 
           1305      3.7606e+10 
           1315     4.02998e+10 
           1325     3.84792e+10 
           1335     3.72306e+10 
           1345     3.71664e+10 
           1355     3.64844e+10 
           1365     3.49125e+10 
           1375     3.38685e+10 
           1385     3.27076e+10 
           1395     2.45549e+10 
           1405     2.59089e+10 
           1415     3.03815e+10 
           1425     2.77822e+10 
           1435     2.93575e+10 
           1442     2.93903e+10 
           1447     2.90885e+10 
           1455      2.7789e+10 
           1465     2.66544e+10 
           1475     2.69747e+10 
           1485     2.67903e+10 
           1495     2.59662e+10 
           1505     2.46543e+10 
           1512     2.34329e+10 
           1517     2.38123e+10 
           1525     2.33185e+10 
           1535     2.00626e+10 
           1545     1.80203e+10 
           1555     1.77301e+10 
           1565     1.96469e+10 
           1575     2.07559e+10 
           1585     2.08157e+10 
           1595     2.05911e+10 
           1605     1.97386e+10 
           1615     1.88608e+10 
           1625     1.91858e+10 
           1635     1.96043e+10 
           1645     1.94962e+10 
           1655     1.94937e+10 
           1665     1.92915e+10 
           1672      1.7966e+10 
           1677       2.064e+10 
           1685     1.95568e+10 
           1695     1.87183e+10 
           1705     1.84385e+10 
           1715     1.75439e+10 
           1725       1.696e+10 
           1735     1.75047e+10 
           1745     1.72577e+10 
           1755     1.70921e+10 
           1765     1.68809e+10 
           1775     1.61411e+10 
           1785     1.63675e+10 
           1795     1.61716e+10 
           1805     1.61907e+10 
           1815     1.53369e+10 
           1825     1.53582e+10 
           1835     1.51879e+10 
           1845     1.40553e+10 
           1855     1.43563e+10 
           1865     1.44454e+10 
           1875     1.43153e+10 
           1885     1.32541e+10 
           1895     1.26583e+10 
           1905     1.32431e+10 
           1915     1.27651e+10 
           1925     1.19893e+10 
           1935      1.2744e+10 
           1945     1.29858e+10 
           1955     1.16862e+10 
           1967     1.23581e+10 
           1976     1.28131e+10 
           1984     1.20735e+10 
           1995     1.18092e+10 
           2005     1.20262e+10 
           2015     1.20055e+10 
           2025     1.21013e+10 
           2035     1.13495e+10 
           2045     1.13036e+10 
           2055      9.84593e+9 
           2065      9.62624e+9 
           2074     1.00955e+10 
           2078      9.69636e+9 
           2085     1.01739e+10 
           2095     1.02203e+10 
           2105     1.05188e+10 
           2115     1.05459e+10 
           2125     1.04894e+10 
           2135     1.03277e+10 
           2145     1.00089e+10 
           2155     1.01491e+10 
           2165      9.87069e+9 
           2175      9.87649e+9 
           2185      9.63953e+9 
           2195      9.71922e+9 
           2205      9.58555e+9 
           2215      9.35177e+9 
           2225      9.25876e+9 
           2235      9.08032e+9 
           2245      9.01904e+9 
           2255      8.78438e+9 
           2265       8.7863e+9 
           2275      8.68448e+9 
           2285       8.5206e+9 
           2295        7.654e+9 
           2305      8.18264e+9 
           2315      8.09242e+9 
           2325      8.02644e+9 
           2335        7.877e+9 
           2345      7.85243e+9 
           2355      7.71864e+9 
           2365      7.61444e+9 
           2375      7.45361e+9 
           2385      7.26606e+9 
           2395      7.22193e+9 
           2405      7.17437e+9 
           2415      7.06986e+9 
           2425      7.01552e+9 
           2435      6.86779e+9 
           2445      6.81047e+9 
           2455      6.73947e+9 
           2465      6.64522e+9 
           2475      6.53874e+9 
           2485      6.37519e+9 
           2495      4.99121e+9 
           2505       6.1099e+9 
           2513      5.92371e+9 
           2518      6.05054e+9 
           2525       6.1228e+9 
           2535      6.07049e+9 
           2545      5.90713e+9 
           2555       5.8656e+9 
           2565      5.80621e+9 
           2575      5.74302e+9 
           2585      5.67781e+9 
           2595      5.60113e+9 
           2605      5.55765e+9 
           2615      5.45948e+9 
           2625      5.41233e+9 
           2635       5.3493e+9 
           2645      5.26267e+9 
           2655      5.20675e+9 
           2665      5.06887e+9 
           2675      5.00151e+9 
           2685      5.00921e+9 
           2695      4.86235e+9 
           2705      4.80603e+9 
           2715      4.76425e+9 
           2725      4.72666e+9 
           2735      4.64718e+9 
           2745      4.62543e+9 
           2755      4.57941e+9 
           2765      4.49815e+9 
           2775       4.4995e+9 
           2785      4.42333e+9 
           2795      4.27885e+9 
           2805      4.29455e+9 
           2815      4.28487e+9 
           2825      4.21446e+9 
           2835      4.11236e+9 
           2845      4.12995e+9 
           2855      4.06202e+9 
           2865       4.0176e+9 
           2875      3.97307e+9 
           2885      3.92778e+9 
           2895      3.87948e+9 
           2910      3.79132e+9 
           2930       3.7339e+9 
           2950      3.62015e+9 
           2970      3.55473e+9 
           2990       3.4598e+9 
           3010      3.35398e+9 
           3030      3.29393e+9 
           3050       3.2403e+9 
           3070      3.18511e+9 
           3090      3.07007e+9 
           3110      3.04419e+9 
           3130      2.96434e+9 
           3150      2.90855e+9 
           3170      2.83875e+9 
           3190      2.77669e+9 
           3210      2.72048e+9 
           3230      2.65981e+9 
           3250      2.61776e+9 
           3270      2.55043e+9 
           3290      2.50162e+9 
           3310      2.45123e+9 
           3330      2.39208e+9 
           3350      2.34279e+9 
           3370      2.29553e+9 
           3390      2.26141e+9 
           3410      2.21526e+9 
           3430      2.16936e+9 
           3450      2.11709e+9 
           3470      2.07846e+9 
           3490      2.03568e+9 
           3510       1.9998e+9 
           3530      1.96834e+9 
           3550      1.92763e+9 
           3570      1.89492e+9 
           3590      1.84543e+9 
           3610      1.81301e+9 
           3630      1.77876e+9 
           3640      1.76866e+9 
           3650      1.71448e+9 
           3670      1.69061e+9 
           3690       1.6559e+9 
           3710      1.59761e+9 
           3730      1.54825e+9 
           3750      1.57775e+9 
           3770      1.55353e+9 
           3790       1.6003e+9 
           3810      1.63696e+9 
           3830      1.47611e+9 
           3850      1.63298e+9 
           3870      1.59399e+9 
           3890      1.39759e+9 
           3910      1.58207e+9 
           3930      1.53317e+9 
           3950       1.5066e+9 
           3970      1.29056e+9 
           3990       1.4646e+9 
           4010      1.44328e+9 
           4030      1.38559e+9 
           4050      1.39787e+9 
           4070      1.34125e+9 
           4090      1.27323e+9 
           4110      1.16673e+9 
           4130       1.2789e+9 
           4150      1.26527e+9 
           4170      1.25646e+9 
           4190      1.23539e+9 
           4210      1.21726e+9 
           4230      1.19738e+9 
           4250       1.1662e+9 
           4270      1.13827e+9 
           4290      1.12118e+9 
           4310      1.09165e+9 
           4330      1.03065e+9 
           4350      9.58184e+8 
           4370      1.04073e+9 
           4390      1.02433e+9 
           4410      1.01494e+9 
           4430       1.0067e+9 
           4450      9.88352e+8 
           4470       9.5217e+8 
           4490      9.58562e+8 
           4510      9.42912e+8 
           4530      9.30749e+8 
           4550      9.13158e+8 
           4570      9.01323e+8 
           4590      8.84777e+8 
           4610       8.6742e+8 
           4630      8.51349e+8 
           4650      8.15694e+8 
           4670      8.25841e+8 
           4690      8.12852e+8 
           4710      7.92395e+8 
           4730      7.94919e+8 
           4750      7.81243e+8 
           4770      7.75434e+8 
           4790      7.62847e+8 
           4810       7.4901e+8 
           4830      7.34439e+8 
           4850      7.00815e+8 
           4870      6.38808e+8 
           4890      7.02426e+8 
           4910      6.93871e+8 
           4930      6.73264e+8 
           4950       6.7091e+8 
           4970      6.65963e+8 
           4990      6.55658e+8 
           5010      6.33593e+8 
           5030      6.34819e+8 
           5050      6.23463e+8 
           5070      6.18319e+8 
           5090       6.0857e+8 
           5110      5.99328e+8 
           5130      5.89081e+8 
           5150      5.81063e+8 
           5170      5.73518e+8 
           5190      5.66211e+8 
           5210      5.58361e+8 
           5230      5.50297e+8 
           5250       5.4193e+8 
           5270      5.33836e+8 
           5290      5.27492e+8 
           5310      5.19918e+8 
           5330      5.12974e+8 
           5350       5.0575e+8 
           5370      4.98867e+8 
           5390      4.91528e+8 
           5410      4.83679e+8 
           5430       4.7873e+8 
           5450      4.72001e+8 
           5470      4.65547e+8 
           5490      4.59186e+8 
           5510      4.53302e+8 
           5530      4.46802e+8 
           5550      4.41337e+8 
           5570      4.35271e+8 
           5590      4.29232e+8 
           5610      4.23975e+8 
           5630      4.18424e+8 
           5650      4.12482e+8 
           5670      4.05921e+8 
           5690      3.97696e+8 
           5710      3.93402e+8 
           5730       3.8871e+8 
           5750      3.82751e+8 
           5770      3.79175e+8 
           5790      3.74099e+8 
           5810       3.6924e+8 
           5830      3.63929e+8 
           5850      3.60212e+8 
           5870      3.47943e+8 
           5890      3.49939e+8 
           5910      3.46765e+8 
           5930      3.42373e+8 
           5950      3.38394e+8 
           5970      3.35634e+8 
           5990      3.30624e+8 
           6010      3.27124e+8 
           6030      3.22657e+8 
           6050      3.18922e+8 
           6070       3.1529e+8 
           6090      3.11486e+8 
           6110      3.07583e+8 
           6130      3.03965e+8 
           6150      2.99511e+8 
           6170      2.96098e+8 
           6190       2.9287e+8 
           6210      2.89512e+8 
           6230      2.86054e+8 
           6250      2.82336e+8 
           6270      2.79129e+8 
           6290       2.7591e+8 
           6310      2.72479e+8 
           6330      2.69444e+8 
           6350       2.6603e+8 
           6370      2.63155e+8 
           6390      2.59979e+8 
           6410      2.56938e+8 
           6430      2.54012e+8 
           6450       2.5099e+8 
           6470      2.47515e+8 
           6490      2.44793e+8 
           6510      2.42207e+8 
           6530      2.38729e+8 
           6550      2.32013e+8 
           6570      2.09447e+8 
           6590      2.29353e+8 
           6610      2.28527e+8 
           6630      2.26156e+8 
           6650      2.23495e+8 
           6670      2.19235e+8 
           6690      2.16807e+8 
           6710      2.16052e+8 
           6730      2.13247e+8 
           6750      2.11341e+8 
           6770      2.09116e+8 
           6790      2.05924e+8 
           6810      2.04367e+8 
           6830      2.02082e+8 
           6850      1.99988e+8 
           6870      1.97756e+8 
           6890      1.95284e+8 
           6910      1.93043e+8 
           6930      1.91421e+8 
           6950      1.89345e+8 
           6970      1.87307e+8 
           6990      1.85265e+8 
           7010      1.83228e+8 
           7030      1.81127e+8 
           7050      1.79282e+8 
           7070      1.74991e+8 
           7090      1.75549e+8 
           7110      1.73147e+8 
           7130      1.71406e+8 
           7150      1.70036e+8 
           7170      1.68151e+8 
           7190      1.66466e+8 
           7210      1.64732e+8 
           7230      1.61494e+8 
           7250       1.6102e+8 
           7270      1.59622e+8 
           7290      1.56869e+8 
           7310      1.56293e+8 
           7330       1.5467e+8 
           7350      1.53112e+8 
           7370      1.51553e+8 
           7390      1.50003e+8 
           7410      1.48467e+8 
           7430      1.46952e+8 
           7450      1.45452e+8 
           7470      1.43573e+8 
           7490      1.42365e+8 
           7510      1.41039e+8 
           7530      1.39587e+8 
           7550      1.38273e+8 
           7570      1.36873e+8 
           7590      1.35388e+8 
           7610      1.33981e+8 
           7630      1.32788e+8 
           7650      1.31476e+8 
           7670      1.30209e+8 
           7690      1.28857e+8 
           7710      1.27587e+8 
           7730      1.26266e+8 
           7750      1.25151e+8 
           7770       1.2389e+8 
           7790      1.22733e+8 
           7810      1.21488e+8 
           7830      1.20364e+8 
           7850      1.19256e+8 
           7870      1.17945e+8 
           7890      1.16731e+8 
           7910      1.15768e+8 
           7930      1.14616e+8 
           7950      1.13581e+8 
           7970       1.1243e+8 
           7990      1.11414e+8 
           8010      1.10282e+8 
           8030      1.09208e+8 
           8050      1.08253e+8 
           8070      1.07231e+8 
           8090      1.06115e+8 
           8110      1.04704e+8 
           8130      1.04269e+8 
           8150       1.0318e+8 
           8170      1.02359e+8 
           8190      1.01029e+8 
           8210      9.98328e+7 
           8230      9.88365e+7 
           8250      9.82804e+7 
           8270      9.67039e+7 
           8290      9.63969e+7 
           8310      9.55952e+7 
           8330      9.46589e+7 
           8350      9.34333e+7 
           8370      9.28045e+7 
           8390      9.21325e+7 
           8410      9.12473e+7 
           8430      9.04014e+7 
           8450      8.91245e+7 
           8470      8.86989e+7 
           8490      8.78477e+7 
           8510       8.6733e+7 
           8530      8.63526e+7 
           8550      8.47174e+7 
           8570      8.55074e+7 
           8590      8.27356e+7 
