# Kurucz ODFNEW /NOVER (2003)
# teff = 7250 K (value for the effective temperature for the model. Temperatures are given in K)
# logg = 5 log(cm/s2) (value for Log(G) for the model.)
# meta = -2.5  (value for the Metallicity for the model.)
# lh = 1.25  (l/Hp where l is the  mixing length of the convective element and Hp is the pressure scale height)
# vtur = 2 km/s (Microturbulence velocity)
# alpha = 0.4  (Alpha)
#
# column 1: WAVELENGTH (ANGSTROM), Wavelength in Angstrom
# column 2: FLUX (ERG/CM2/S/A), Flux in erg/cm2/s/A
            318     3.66708e-23 
            328     5.05684e-22 
            338     1.16072e-22 
            348     9.30656e-22 
            357     5.44747e-21 
            366     2.91302e-20 
            375     1.42869e-19 
            385     7.62304e-19 
            395     3.71381e-18 
            405     1.66473e-17 
            414     6.01374e-17 
            422      1.7922e-16 
            430     5.11366e-16 
            441     2.02272e-15 
            451     6.62811e-15 
            460     1.83967e-14 
            470     5.44527e-14 
            480     1.53409e-13 
            490     4.13069e-13 
            500      1.0644e-12 
            506     2.43648e-12 
            512      4.6913e-12 
            520     9.34189e-12 
            530     2.15657e-11 
            540     4.73186e-11 
            550     1.01914e-10 
            560      2.1167e-10 
            570     4.27319e-10 
            580     8.30137e-10 
            590      1.60887e-9 
            600      3.00881e-9 
            610      5.49918e-9 
            620      9.83475e-9 
            630      1.72267e-8 
            640      2.96049e-8 
            650      4.99334e-8 
            658      7.48884e-8 
            665      1.05805e-7 
            675      1.70916e-7 
            685      2.71749e-7 
            695      4.25565e-7 
            705      6.56825e-7 
            716      1.04196e-6 
            726      1.56309e-6 
            735      2.22798e-6 
            745        3.266e-6 
            755      4.73184e-6 
            765      6.77917e-6 
            775      9.60915e-6 
            785      1.34797e-5 
            795      1.87201e-5 
            805      2.57596e-5 
            815      3.51181e-5 
            825      4.74631e-5 
            835      6.36181e-5 
            845      8.45765e-5 
            855     0.000111562 
            865     0.000146044 
            875      0.00018979 
            885     0.000244943 
            895     0.000313983 
            905     0.000399845 
            915        0.484172 
            925         2.73883 
            935          4.6424 
            945         7.93092 
            955         11.0116 
            965         14.7116 
            975         13.2573 
            985         24.3746 
            995         30.4409 
           1005         36.6101 
           1015         39.0799 
           1025         32.6695 
           1035         59.7576 
           1045         81.8643 
           1055         95.0806 
           1065          119.36 
           1075         142.897 
           1085         174.798 
           1095         201.802 
           1105         244.891 
           1115         294.223 
           1125         339.365 
           1135         406.697 
           1145         468.446 
           1155         519.193 
           1165         585.624 
           1175         638.295 
           1185         739.441 
           1195         632.224 
           1205         499.002 
           1215         258.745 
           1225         595.462 
           1235         1073.21 
           1245         735.121 
           1255         1739.89 
           1265         2101.83 
           1275         2502.14 
           1285         3073.88 
           1295         3595.61 
           1305         4192.85 
           1315         4865.69 
           1325         5577.47 
           1335          6318.4 
           1345         7260.43 
           1355         8142.05 
           1365         9305.89 
           1375         10349.7 
           1385         11435.7 
           1395         12738.4 
           1405         13917.1 
           1415         15807.7 
           1425         16994.7 
           1435           18699 
           1442         20427.5 
           1447         20718.4 
           1455         22763.7 
           1465         24089.9 
           1475         26543.6 
           1485         28770.3 
           1495         31670.2 
           1505         34578.9 
           1512           36728 
           1517         36952.8 
           1525         39564.6 
           1535         42424.4 
           1545         44908.8 
           1555         47617.3 
           1565         48622.7 
           1575         53305.9 
           1585         56664.8 
           1595         60598.9 
           1605         64467.5 
           1615         71043.8 
           1625         79021.7 
           1635         91051.5 
           1645          115368 
           1655          148902 
           1665          376644 
           1672          639107 
           1677      1.11635e+6 
           1685      1.94905e+6 
           1695      3.01617e+6 
           1705      4.69515e+6 
           1715      6.44285e+6 
           1725      7.55643e+6 
           1735      8.88602e+6 
           1745      9.13088e+6 
           1755       1.0135e+7 
           1765      9.40982e+6 
           1775      1.05368e+7 
           1785      1.09519e+7 
           1795      1.17005e+7 
           1805      1.12302e+7 
           1815      1.15836e+7 
           1825      1.13133e+7 
           1835      1.20888e+7 
           1845        1.119e+7 
           1855      1.19992e+7 
           1865      1.27211e+7 
           1875      1.27454e+7 
           1885      1.29488e+7 
           1895      1.33486e+7 
           1905      1.30282e+7 
           1915      1.38355e+7 
           1925      1.42899e+7 
           1935      1.37401e+7 
           1945       1.4597e+7 
           1955      1.47132e+7 
           1967      1.51993e+7 
           1976      1.47717e+7 
           1984      1.47897e+7 
           1995      1.51846e+7 
           2005      1.48929e+7 
           2015      1.52391e+7 
           2025      1.45901e+7 
           2035      1.58225e+7 
           2045      1.61663e+7 
           2055      1.58969e+7 
           2065      1.60402e+7 
           2074      1.68305e+7 
           2078      1.68077e+7 
           2085      1.66543e+7 
           2095      1.66433e+7 
           2105      1.65476e+7 
           2115      1.69364e+7 
           2125      1.69192e+7 
           2135      1.66859e+7 
           2145      1.73789e+7 
           2155      1.72042e+7 
           2165      1.67884e+7 
           2175      1.70597e+7 
           2185      1.75541e+7 
           2195      1.80412e+7 
           2205      1.77268e+7 
           2215      1.70834e+7 
           2225      1.78007e+7 
           2235      1.87097e+7 
           2245      1.83685e+7 
           2255      1.77318e+7 
           2265      1.72957e+7 
           2275       1.8126e+7 
           2285      1.84222e+7 
           2295      1.79416e+7 
           2305      1.84748e+7 
           2315      1.85454e+7 
           2325      1.85451e+7 
           2335      1.85704e+7 
           2345      1.74998e+7 
           2355      1.90191e+7 
           2365      1.80389e+7 
           2375      1.87562e+7 
           2385      1.73052e+7 
           2395      1.86229e+7 
           2405      1.85954e+7 
           2415      1.86891e+7 
           2425      1.96019e+7 
           2435      1.90899e+7 
           2445      1.93992e+7 
           2455       1.9464e+7 
           2465      1.91762e+7 
           2475       1.8976e+7 
           2485      1.88919e+7 
           2495      1.87456e+7 
           2505      1.98372e+7 
           2513      1.88664e+7 
           2518      1.83079e+7 
           2525      1.81001e+7 
           2535      1.82238e+7 
           2545      1.83019e+7 
           2555      1.94539e+7 
           2565      1.95396e+7 
           2575      2.01886e+7 
           2585      2.03998e+7 
           2595       2.0301e+7 
           2605      1.99351e+7 
           2615      1.98484e+7 
           2625      2.02306e+7 
           2635      2.03486e+7 
           2645      2.16462e+7 
           2655      2.16705e+7 
           2665      2.09868e+7 
           2675       2.1283e+7 
           2685       2.1768e+7 
           2695      2.13142e+7 
           2705      2.14277e+7 
           2715       2.0733e+7 
           2725      2.07826e+7 
           2735      2.09547e+7 
           2745      1.98468e+7 
           2755      2.01785e+7 
           2765      2.09612e+7 
           2775      2.13226e+7 
           2785      2.08759e+7 
           2795      1.62988e+7 
           2805      1.81632e+7 
           2815      2.20031e+7 
           2825      2.19713e+7 
           2835      2.16427e+7 
           2845      2.14168e+7 
           2855      1.97432e+7 
           2865      2.14254e+7 
           2875      2.15251e+7 
           2885        2.163e+7 
           2895      2.20535e+7 
           2910      2.22863e+7 
           2930      2.18993e+7 
           2950      2.17007e+7 
           2970      2.18156e+7 
           2990       2.1813e+7 
           3010      2.17885e+7 
           3030       2.1858e+7 
           3050      2.19254e+7 
           3070      2.18805e+7 
           3090       2.1859e+7 
           3110      2.19289e+7 
           3130      2.20226e+7 
           3150      2.20046e+7 
           3170      2.20165e+7 
           3190      2.16206e+7 
           3210       2.1729e+7 
           3230      2.14022e+7 
           3250        2.168e+7 
           3270      2.19346e+7 
           3290      2.19879e+7 
           3310      2.19609e+7 
           3330      2.16768e+7 
           3350      2.15037e+7 
           3370      2.14967e+7 
           3390      2.14084e+7 
           3410      2.15652e+7 
           3430      2.15338e+7 
           3450      2.13178e+7 
           3470      2.13124e+7 
           3490       2.1354e+7 
           3510      2.13618e+7 
           3530      2.13021e+7 
           3550      2.13336e+7 
           3570      2.10157e+7 
           3590      2.09561e+7 
           3610      2.09293e+7 
           3630      2.09631e+7 
           3640      2.09909e+7 
           3650      2.10188e+7 
           3670      2.11008e+7 
           3690      2.05567e+7 
           3710      2.03548e+7 
           3730      1.92869e+7 
           3750      2.13305e+7 
           3770       2.1615e+7 
           3790      2.39533e+7 
           3810      2.64716e+7 
           3830      2.23301e+7 
           3850      2.80568e+7 
           3870      2.96893e+7 
           3890      2.13939e+7 
           3910      2.96912e+7 
           3930      2.93458e+7 
           3950      2.98003e+7 
           3970      2.07952e+7 
           3990      2.92176e+7 
           4010      3.07356e+7 
           4030      3.07885e+7 
           4050      3.05541e+7 
           4070      2.97292e+7 
           4090      2.64011e+7 
           4110      2.20247e+7 
           4130      2.91742e+7 
           4150      2.97184e+7 
           4170      2.97546e+7 
           4190      2.95785e+7 
           4210      2.93874e+7 
           4230      2.90723e+7 
           4250      2.90371e+7 
           4270      2.87471e+7 
           4290      2.85207e+7 
           4310       2.7707e+7 
           4330      2.39735e+7 
           4350      2.13385e+7 
           4370       2.7271e+7 
           4390      2.76408e+7 
           4410      2.76328e+7 
           4430      2.76007e+7 
           4450      2.74369e+7 
           4470      2.73352e+7 
           4490      2.71857e+7 
           4510      2.70433e+7 
           4530       2.6838e+7 
           4550      2.66772e+7 
           4570      2.65489e+7 
           4590      2.63788e+7 
           4610      2.62355e+7 
           4630      2.60673e+7 
           4650      2.59098e+7 
           4670      2.57574e+7 
           4690      2.55879e+7 
           4710      2.53914e+7 
           4730      2.52647e+7 
           4750      2.50658e+7 
           4770      2.48825e+7 
           4790      2.46719e+7 
           4810      2.43857e+7 
           4830      2.37918e+7 
           4850      2.09918e+7 
           4870      1.80431e+7 
           4890      2.30713e+7 
           4910      2.35681e+7 
           4930      2.35354e+7 
           4950      2.34748e+7 
           4970      2.33808e+7 
           4990      2.32573e+7 
           5010       2.3087e+7 
           5030      2.29812e+7 
           5050      2.28276e+7 
           5070      2.26947e+7 
           5090      2.25487e+7 
           5110      2.24072e+7 
           5130      2.22614e+7 
           5150      2.21073e+7 
           5170      2.17478e+7 
           5190      2.16742e+7 
           5210      2.16691e+7 
           5230      2.15257e+7 
           5250       2.1429e+7 
           5270       2.1226e+7 
           5290      2.11519e+7 
           5310      2.10169e+7 
           5330      2.08423e+7 
           5350      2.07473e+7 
           5370      2.06022e+7 
           5390      2.04742e+7 
           5410      2.03257e+7 
           5430      2.02081e+7 
           5450      2.00779e+7 
           5470       1.9959e+7 
           5490      1.98351e+7 
           5510        1.971e+7 
           5530      1.95788e+7 
           5550      1.94611e+7 
           5570      1.93301e+7 
           5590      1.91933e+7 
           5610      1.90806e+7 
           5630      1.89679e+7 
           5650      1.88468e+7 
           5670      1.87223e+7 
           5690       1.8606e+7 
           5710       1.8484e+7 
           5730      1.83701e+7 
           5750      1.82505e+7 
           5770      1.81344e+7 
           5790      1.80194e+7 
           5810      1.79045e+7 
           5830      1.77897e+7 
           5850      1.76737e+7 
           5870      1.75612e+7 
           5890      1.73878e+7 
           5910      1.73383e+7 
           5930      1.72279e+7 
           5950      1.71176e+7 
           5970      1.70084e+7 
           5990      1.69003e+7 
           6010      1.67922e+7 
           6030      1.66841e+7 
           6050      1.65801e+7 
           6070      1.64741e+7 
           6090      1.63701e+7 
           6110      1.62641e+7 
           6130      1.61542e+7 
           6150      1.60553e+7 
           6170      1.59424e+7 
           6190      1.58563e+7 
           6210      1.57563e+7 
           6230      1.56543e+7 
           6250      1.55524e+7 
           6270       1.5459e+7 
           6290      1.53618e+7 
           6310      1.52637e+7 
           6330      1.51674e+7 
           6350       1.5071e+7 
           6370      1.49766e+7 
           6390       1.4883e+7 
           6410      1.47856e+7 
           6430      1.46929e+7 
           6450       1.4563e+7 
           6470      1.44587e+7 
           6490      1.43348e+7 
           6510      1.41775e+7 
           6530      1.38717e+7 
           6550      1.27123e+7 
           6570       1.0701e+7 
           6590      1.33592e+7 
           6610      1.36785e+7 
           6630      1.37041e+7 
           6650      1.36618e+7 
           6670      1.35961e+7 
           6690      1.35411e+7 
           6710      1.34604e+7 
           6730      1.33781e+7 
           6750      1.32939e+7 
           6770      1.32122e+7 
           6790      1.31304e+7 
           6810      1.30494e+7 
           6830       1.2969e+7 
           6850      1.28886e+7 
           6870      1.28088e+7 
           6890      1.27298e+7 
           6910      1.26515e+7 
           6930      1.25739e+7 
           6950      1.24962e+7 
           6970      1.24191e+7 
           6990      1.23428e+7 
           7010      1.22663e+7 
           7030       1.2192e+7 
           7050      1.21169e+7 
           7070      1.20432e+7 
           7090      1.19693e+7 
           7110      1.18954e+7 
           7130      1.18228e+7 
           7150      1.17501e+7 
           7170      1.16788e+7 
           7190      1.16073e+7 
           7210      1.15365e+7 
           7230      1.14677e+7 
           7250      1.13981e+7 
           7270      1.13283e+7 
           7290      1.12585e+7 
           7310       1.1192e+7 
           7330      1.11226e+7 
           7350      1.10566e+7 
           7370      1.09897e+7 
           7390      1.09227e+7 
           7410      1.08549e+7 
           7430      1.07911e+7 
           7450      1.07271e+7 
           7470      1.06624e+7 
           7490      1.05981e+7 
           7510      1.05344e+7 
           7530      1.04718e+7 
           7550      1.04092e+7 
           7570       1.0347e+7 
           7590      1.02854e+7 
           7610      1.02236e+7 
           7630      1.01629e+7 
           7650      1.01021e+7 
           7670      1.00412e+7 
           7690      9.98201e+6 
           7710      9.92269e+6 
           7730      9.86447e+6 
           7750      9.80547e+6 
           7770      9.74071e+6 
           7790      9.69075e+6 
           7810      9.63377e+6 
           7830      9.57663e+6 
           7850      9.51995e+6 
           7870      9.46433e+6 
           7890      9.40854e+6 
           7910      9.35379e+6 
           7930      9.29709e+6 
           7950      9.24262e+6 
           7970      9.19036e+6 
           7990      9.13674e+6 
           8010      9.08295e+6 
           8030      9.03016e+6 
           8050      8.97721e+6 
           8070      8.92525e+6 
           8090      8.87311e+6 
           8110      8.82196e+6 
           8130      8.77063e+6 
           8150      8.72026e+6 
           8170      8.66972e+6 
           8190      8.61619e+6 
           8210      8.57035e+6 
           8230      8.52096e+6 
           8250      8.47361e+6 
           8270      8.42717e+6 
           8290      8.37998e+6 
           8310      8.33205e+6 
           8330      8.28286e+6 
           8350       8.2389e+6 
           8370      8.19151e+6 
           8390      8.14287e+6 
           8410       8.0962e+6 
           8430      8.05041e+6 
           8450      8.00285e+6 
           8470      7.94462e+6 
           8490      7.91821e+6 
           8510      7.78688e+6 
           8530      7.83428e+6 
           8550      7.61524e+6 
           8570      7.76132e+6 
           8590      7.64302e+6 
           8610      7.57401e+6 
           8630      7.65124e+6 
           8650      7.56102e+6 
           8670      7.20793e+6 
           8690      7.50953e+6 
           8710      7.50886e+6 
           8730      7.41764e+6 
           8750      6.95815e+6 
           8770      7.27715e+6 
           8790      7.35719e+6 
           8810      7.32334e+6 
           8830      7.26556e+6 
           8850      7.02978e+6 
           8870      6.58488e+6 
           8890      7.08965e+6 
           8910      7.13663e+6 
           8930      7.11981e+6 
           8950       7.0838e+6 
           8970      7.02321e+6 
           8990      6.89877e+6 
           9010      6.27046e+6 
           9030      6.55134e+6 
           9050      6.82186e+6 
           9070       6.8431e+6 
           9090      6.82168e+6 
           9110      6.79857e+6 
           9130      6.76475e+6 
           9150      6.72396e+6 
           9170      6.67316e+6 
           9190      6.59686e+6 
           9210      6.41413e+6 
           9230      5.67662e+6 
           9250      6.29405e+6 
           9270      6.44447e+6 
           9290      6.45822e+6 
           9310      6.44094e+6 
           9330      6.41638e+6 
