# Kurucz ODFNEW /NOVER (2003)
# teff = 22000 K (value for the effective temperature for the model. Temperatures are given in K)
# logg = 4 log(cm/s2) (value for Log(G) for the model.)
# meta = -2.5  (value for the Metallicity for the model.)
# lh = 1.25  (l/Hp where l is the  mixing length of the convective element and Hp is the pressure scale height)
# vtur = 2 km/s (Microturbulence velocity)
# alpha = 0  (Alpha)
#
# column 1: WAVELENGTH (ANGSTROM), Wavelength in Angstrom
# column 2: FLUX (ERG/CM2/S/A), Flux in erg/cm2/s/A
          147.2     8.09171e-18 
            151     4.96765e-17 
          155.2     3.32795e-16 
          158.8     1.56698e-15 
            162     5.85851e-15 
            166     2.83258e-14 
          170.3     1.41666e-13 
          173.4     4.29797e-13 
          176.8     1.38672e-12 
          180.2     4.27544e-12 
          181.7     6.92961e-12 
          186.1     2.72802e-11 
            191     1.16207e-10 
          193.9     2.64361e-10 
          198.4     9.00943e-10 
          201.8        2.191e-9 
            205      4.91698e-9 
          210.5      1.85822e-8 
          216.2      6.84058e-8 
          219.8      1.50225e-7 
            223      2.95602e-7 
          226.8      6.43391e-7 
            230      1.67584e-6 
            234      3.76661e-6 
            240       1.1018e-5 
          246.5      3.31554e-5 
          252.4       8.5954e-5 
          256.8     0.000168135 
            260     0.000273146 
            264     0.000488198 
          268.5     0.000917573 
          273.5      0.00180326 
          278.5      0.00345749 
            284      0.00687871 
            290       0.0141164 
            296       0.0280767 
            301       0.0487373 
            308        0.101688 
            318        0.276937 
            328        0.703601 
            338         1.68517 
            348         3.82534 
            357         7.66737 
            366         14.8182 
            375         27.6657 
            385         53.3534 
            395         99.2185 
            405         178.448 
            414         294.731 
            422         451.354 
            430         679.213 
            441         1160.21 
            451         1840.67 
            460         2735.74 
            470         4166.02 
            480         6219.96 
            490          9118.7 
            500         13138.2 
            506         78775.4 
            512          232912 
            520          296549 
            530          429611 
            540          474258 
            550          680616 
            560          833718 
            570      1.02359e+6 
            580       1.0478e+6 
            590      1.39523e+6 
            600      1.77304e+6 
            610      2.11155e+6 
            620      2.48236e+6 
            630      2.91066e+6 
            640      3.36067e+6 
            650      3.91736e+6 
            658      4.39905e+6 
            665      4.84226e+6 
            675      5.49361e+6 
            685      6.23104e+6 
            695      7.15601e+6 
            705      8.06327e+6 
            716      9.16001e+6 
            726      1.02403e+7 
            735      1.13467e+7 
            745      1.26406e+7 
            755      1.40203e+7 
            765      1.54863e+7 
            775      1.70794e+7 
            785       1.8766e+7 
            795      2.05423e+7 
            805      2.24401e+7 
            815      2.44275e+7 
            825      2.65716e+7 
            835      2.85093e+7 
            845      3.11139e+7 
            855      3.34783e+7 
            865      3.61602e+7 
            875      3.88846e+7 
            885      4.17203e+7 
            895      4.46432e+7 
            905       4.7253e+7 
            915      8.21157e+7 
            925      5.66046e+8 
            935      2.03808e+9 
            945      7.61242e+9 
            955     1.17477e+10 
            965     1.56271e+10 
            975      5.99002e+9 
            985     1.86135e+10 
            995     1.83592e+10 
           1005      1.8836e+10 
           1015     1.64079e+10 
           1025       4.3732e+9 
           1035     1.45645e+10 
           1045     1.81247e+10 
           1055     1.78277e+10 
           1065      1.6708e+10 
           1075     1.70463e+10 
           1085     1.59655e+10 
           1095     1.65968e+10 
           1105      1.5926e+10 
           1115     1.57001e+10 
           1125     1.49391e+10 
           1135      1.5125e+10 
           1145     1.45617e+10 
           1155     1.46382e+10 
           1165     1.43625e+10 
           1175     1.29132e+10 
           1185     1.36894e+10 
           1195     1.27442e+10 
           1205     1.07519e+10 
           1215      2.97561e+9 
           1225     1.02189e+10 
           1235     1.21005e+10 
           1245     1.20566e+10 
           1255     1.18973e+10 
           1265     1.16115e+10 
           1275     1.15893e+10 
           1285     1.13658e+10 
           1295     1.07015e+10 
           1305     1.06423e+10 
           1315     1.07292e+10 
           1325     1.03919e+10 
           1335     1.00231e+10 
           1345     1.01093e+10 
           1355      9.96801e+9 
           1365      9.75072e+9 
           1375      9.57593e+9 
           1385      9.41458e+9 
           1395      9.08379e+9 
           1405      8.97841e+9 
           1415        8.899e+9 
           1425      8.76081e+9 
           1435      8.61681e+9 
           1442      8.52267e+9 
           1447      8.44336e+9 
           1455      8.32283e+9 
           1465      8.16799e+9 
           1475      8.03026e+9 
           1485      7.88625e+9 
           1495      7.75228e+9 
           1505      7.58607e+9 
           1512       7.4916e+9 
           1517      7.44246e+9 
           1525      7.33413e+9 
           1535      7.13159e+9 
           1545      7.05346e+9 
           1555      6.90118e+9 
           1565      6.85957e+9 
           1575      6.76332e+9 
           1585      6.65291e+9 
           1595      6.55094e+9 
           1605      6.39001e+9 
           1615      6.28512e+9 
           1625      6.22954e+9 
           1635      6.14047e+9 
           1645      5.98961e+9 
           1655      5.94413e+9 
           1665      5.86316e+9 
           1672      5.74517e+9 
           1677      5.75932e+9 
           1685      5.68512e+9 
           1695       5.5852e+9 
           1705       5.4902e+9 
           1715      5.39075e+9 
           1725      5.31552e+9 
           1735      5.24391e+9 
           1745      5.15936e+9 
           1755      5.09608e+9 
           1765      4.95759e+9 
           1775      4.92365e+9 
           1785      4.86391e+9 
           1795      4.79923e+9 
           1805      4.73383e+9 
           1815       4.6531e+9 
           1825      4.58958e+9 
           1835      4.52224e+9 
           1845      4.42089e+9 
           1855      4.30362e+9 
           1865      4.26528e+9 
           1875      4.25709e+9 
           1885      4.14599e+9 
           1895      4.04926e+9 
           1905      4.05918e+9 
           1915       3.9529e+9 
           1925       3.8974e+9 
           1935      3.87251e+9 
           1945      3.84514e+9 
           1955      3.73888e+9 
           1967      3.72992e+9 
           1976      3.70209e+9 
           1984      3.63411e+9 
           1995      3.54691e+9 
           2005       3.5477e+9 
           2015      3.51285e+9 
           2025      3.47301e+9 
           2035      3.41431e+9 
           2045      3.36838e+9 
           2055      3.29884e+9 
           2065      3.25795e+9 
           2074      3.25724e+9 
           2078      3.19856e+9 
           2085      3.19566e+9 
           2095      3.13553e+9 
           2105      3.11652e+9 
           2115      3.08283e+9 
           2125      3.04888e+9 
           2135      3.00815e+9 
           2145      2.96559e+9 
           2155      2.93213e+9 
           2165      2.89562e+9 
           2175      2.85783e+9 
           2185      2.82344e+9 
           2195      2.78941e+9 
           2205      2.75409e+9 
           2215      2.71984e+9 
           2225      2.68502e+9 
           2235      2.65207e+9 
           2245      2.62102e+9 
           2255      2.58775e+9 
           2265      2.55754e+9 
           2275      2.52622e+9 
           2285      2.49629e+9 
           2295      2.45406e+9 
           2305      2.43614e+9 
           2315      2.40607e+9 
           2325      2.37783e+9 
           2335      2.34769e+9 
           2345       2.3188e+9 
           2355      2.29433e+9 
           2365      2.26594e+9 
           2375      2.23989e+9 
           2385      2.21181e+9 
           2395      2.18681e+9 
           2405      2.16182e+9 
           2415      2.13614e+9 
           2425      2.11362e+9 
           2435      2.08848e+9 
           2445      2.06469e+9 
           2455      2.04191e+9 
           2465      2.01799e+9 
           2475      1.99532e+9 
           2485      1.97271e+9 
           2495      1.93762e+9 
           2505      1.92825e+9 
           2513      1.90698e+9 
           2518      1.90031e+9 
           2525      1.88512e+9 
           2535      1.86365e+9 
           2545      1.84199e+9 
           2555      1.82385e+9 
           2565      1.80313e+9 
           2575      1.78421e+9 
           2585      1.76463e+9 
           2595      1.74523e+9 
           2605       1.7403e+9 
           2615      1.72189e+9 
           2625      1.70262e+9 
           2635      1.68039e+9 
           2645      1.66324e+9 
           2655      1.64282e+9 
           2665      1.62245e+9 
           2675      1.60403e+9 
           2685      1.59743e+9 
           2695      1.56843e+9 
           2705       1.5636e+9 
           2715      1.54699e+9 
           2725      1.51821e+9 
           2735      1.51463e+9 
           2745      1.49696e+9 
           2755      1.48175e+9 
           2765      1.45494e+9 
           2775      1.45254e+9 
           2785      1.43737e+9 
           2795      1.41394e+9 
           2805      1.40512e+9 
           2815      1.39358e+9 
           2825      1.36466e+9 
           2835      1.35735e+9 
           2845      1.35132e+9 
           2855      1.33761e+9 
           2865      1.32416e+9 
           2875      1.31077e+9 
           2885      1.29763e+9 
           2895      1.28463e+9 
           2910      1.26542e+9 
           2930      1.24026e+9 
           2950      1.20757e+9 
           2970      1.19226e+9 
           2990      1.16894e+9 
           3010      1.14639e+9 
           3030      1.12446e+9 
           3050      1.10291e+9 
           3070      1.08195e+9 
           3090      1.06137e+9 
           3110      1.04149e+9 
           3130      1.02322e+9 
           3150      1.00412e+9 
           3170      9.85077e+8 
           3190      9.59177e+8 
           3210       9.4898e+8 
           3230      9.31523e+8 
           3250      9.14423e+8 
           3270      8.98973e+8 
           3290      8.81533e+8 
           3310      8.67061e+8 
           3330      8.51649e+8 
           3350      8.35065e+8 
           3370      8.21833e+8 
           3390      8.07444e+8 
           3410      7.93399e+8 
           3430      7.76361e+8 
           3450      7.60296e+8 
           3470       7.4946e+8 
           3490      7.36596e+8 
           3510      7.26635e+8 
           3530      7.15583e+8 
           3550      7.03717e+8 
           3570      6.95233e+8 
           3590       6.7985e+8 
           3610      6.69881e+8 
           3630      6.57487e+8 
           3640      6.56041e+8 
           3650      6.49849e+8 
           3670      6.41975e+8 
           3690      6.26872e+8 
           3710      6.07131e+8 
           3730       5.8672e+8 
           3750      6.33039e+8 
           3770      6.39912e+8 
           3790      6.80411e+8 
           3810      7.14395e+8 
           3830      6.16886e+8 
           3850      7.39124e+8 
           3870      7.46597e+8 
           3890       5.8426e+8 
           3910      7.35268e+8 
           3930      7.26169e+8 
           3950      7.12315e+8 
           3970      5.43788e+8 
           3990      6.83622e+8 
           4010      6.80077e+8 
           4030      6.39848e+8 
           4050      6.65262e+8 
           4070      6.51804e+8 
           4090      5.96642e+8 
           4110      5.14956e+8 
           4130      6.11336e+8 
           4150      6.06376e+8 
           4170      6.01527e+8 
           4190      5.93566e+8 
           4210      5.83944e+8 
           4230      5.74498e+8 
           4250      5.65204e+8 
           4270      5.55686e+8 
           4290      5.46627e+8 
           4310      5.34853e+8 
           4330      4.80634e+8 
           4350       4.3579e+8 
           4370      5.08608e+8 
           4390      4.89969e+8 
           4410      4.97428e+8 
           4430      4.87303e+8 
           4450      4.82229e+8 
           4470      4.52922e+8 
           4490      4.67079e+8 
           4510      4.60389e+8 
           4530      4.53377e+8 
           4550      4.46471e+8 
           4570      4.39721e+8 
           4590      4.33108e+8 
           4610      4.26628e+8 
           4630      4.20227e+8 
           4650      4.13919e+8 
           4670      4.07842e+8 
           4690      4.01785e+8 
           4710      3.90755e+8 
           4730      3.90034e+8 
           4750      3.84268e+8 
           4770      3.78817e+8 
           4790      3.73313e+8 
           4810      3.67365e+8 
           4830      3.59969e+8 
           4850      3.29811e+8 
           4870      2.92321e+8 
           4890      3.43344e+8 
           4910      3.41068e+8 
           4930      3.28898e+8 
           4950       3.3278e+8 
           4970      3.28124e+8 
           4990      3.23532e+8 
           5010      3.15026e+8 
           5030      3.14595e+8 
           5050      3.08267e+8 
           5070      3.05972e+8 
           5090      3.01769e+8 
           5110      2.97637e+8 
           5130      2.93574e+8 
           5150       2.8958e+8 
           5170      2.85667e+8 
           5190      2.81819e+8 
           5210      2.78008e+8 
           5230      2.74302e+8 
           5250       2.7063e+8 
           5270      2.67034e+8 
           5290      2.63497e+8 
           5310      2.60006e+8 
           5330      2.56586e+8 
           5350      2.53211e+8 
           5370      2.49891e+8 
           5390      2.46639e+8 
           5410      2.43429e+8 
           5430      2.40272e+8 
           5450      2.37167e+8 
           5470      2.34114e+8 
           5490      2.31112e+8 
           5510      2.28159e+8 
           5530      2.25243e+8 
           5550      2.22387e+8 
           5570      2.19566e+8 
           5590      2.16792e+8 
           5610      2.14064e+8 
           5630      2.11381e+8 
           5650      2.08731e+8 
           5670      2.06136e+8 
           5690      2.03572e+8 
           5710      2.01051e+8 
           5730      1.98572e+8 
           5750      1.96133e+8 
           5770      1.93723e+8 
           5790      1.91353e+8 
           5810      1.89023e+8 
           5830      1.86719e+8 
           5850      1.84465e+8 
           5870      1.76639e+8 
           5890      1.79818e+8 
           5910       1.7788e+8 
           5930       1.7575e+8 
           5950      1.73656e+8 
           5970      1.71596e+8 
           5990      1.69559e+8 
           6010      1.67557e+8 
           6030      1.65577e+8 
           6050      1.63629e+8 
           6070      1.61714e+8 
           6090      1.59831e+8 
           6110      1.57969e+8 
           6130      1.56138e+8 
           6150      1.54327e+8 
           6170      1.52557e+8 
           6190      1.50796e+8 
           6210      1.49064e+8 
           6230      1.47361e+8 
           6250      1.45686e+8 
           6270       1.4403e+8 
           6290      1.42392e+8 
           6310      1.40781e+8 
           6330      1.39197e+8 
           6350      1.37621e+8 
           6370       1.3609e+8 
           6390      1.34566e+8 
           6410      1.33067e+8 
           6430      1.31594e+8 
           6450      1.30136e+8 
           6470      1.28694e+8 
           6490      1.27276e+8 
           6510      1.25766e+8 
           6530      1.23848e+8 
           6550       1.1793e+8 
           6570      1.04217e+8 
           6590      1.19096e+8 
           6610      1.18894e+8 
           6630      1.17878e+8 
           6650      1.16701e+8 
           6670      1.14275e+8 
           6690      1.13079e+8 
           6710      1.12983e+8 
           6730      1.11781e+8 
           6750       1.1059e+8 
           6770       1.0942e+8 
           6790      1.08261e+8 
           6810      1.07123e+8 
           6830      1.05996e+8 
           6850       1.0488e+8 
           6870      1.03783e+8 
           6890      1.02705e+8 
           6910      1.01638e+8 
           6930      1.00582e+8 
           6950      9.95435e+7 
           6970      9.85155e+7 
           6990      9.74899e+7 
           7010      9.64974e+7 
           7030       9.5507e+7 
           7050      9.45339e+7 
           7070      9.20553e+7 
           7090      9.26233e+7 
           7110      9.16856e+7 
           7130       9.0757e+7 
           7150      8.98447e+7 
           7170      8.89191e+7 
           7190      8.80462e+7 
           7210      8.71671e+7 
           7230      8.62675e+7 
           7250      8.54338e+7 
           7270      8.45866e+7 
           7290       8.3074e+7 
           7310      8.29091e+7 
           7330      8.21067e+7 
           7350      8.12978e+7 
           7370      8.05035e+7 
           7390      7.97165e+7 
           7410      7.89368e+7 
           7430      7.81712e+7 
           7450      7.74195e+7 
           7470      7.66747e+7 
           7490        7.593e+7 
           7510      7.51721e+7 
           7530      7.44743e+7 
           7550       7.3763e+7 
           7570      7.30582e+7 
           7590      7.23598e+7 
           7610      7.16742e+7 
           7630      7.09884e+7 
           7650      7.03151e+7 
           7670      6.96543e+7 
           7690      6.89994e+7 
           7710      6.83504e+7 
           7730      6.77071e+7 
           7750      6.70696e+7 
           7770       6.6444e+7 
           7790      6.58301e+7 
           7810       6.5166e+7 
           7830      6.46123e+7 
           7850      6.40879e+7 
           7870      6.34888e+7 
           7890      6.28769e+7 
           7910      6.23305e+7 
           7930      6.17589e+7 
           7950      6.11207e+7 
           7970      6.04704e+7 
           7990      5.99379e+7 
           8010      5.93747e+7 
           8030      5.88398e+7 
           8050      5.83385e+7 
           8070      5.78472e+7 
           8090      5.72093e+7 
           8110      5.67929e+7 
           8130      5.63314e+7 
           8150      5.57388e+7 
           8170      5.53477e+7 
           8190      5.47778e+7 
           8210      5.42223e+7 
           8230      5.39107e+7 
           8250      5.34509e+7 
           8270      5.27079e+7 
           8290      5.24649e+7 
           8310      5.20272e+7 
           8330      5.15534e+7 
           8350      5.08448e+7 
           8370      5.05607e+7 
           8390      5.01947e+7 
           8410        4.974e+7 
           8430      4.92349e+7 
           8450       4.8502e+7 
           8470      4.82506e+7 
           8490      4.78871e+7 
           8510      4.72149e+7 
           8530      4.71698e+7 
           8550      4.57435e+7 
           8570      4.70316e+7 
           8590      4.47977e+7 
