# Kurucz ODFNEW /NOVER (2003)
# teff = 10000 K (value for the effective temperature for the model. Temperatures are given in K)
# logg = 3.5 log(cm/s2) (value for Log(G) for the model.)
# meta = 0.2  (value for the Metallicity for the model.)
# lh = 1.25  (l/Hp where l is the  mixing length of the convective element and Hp is the pressure scale height)
# vtur = 2 km/s (Microturbulence velocity)
# alpha = 0  (Alpha)
#
# column 1: WAVELENGTH (ANGSTROM), Wavelength in Angstrom
# column 2: FLUX (ERG/CM2/S/A), Flux in erg/cm2/s/A
          273.5     6.58652e-24 
          278.5     6.52797e-23 
            284     2.96914e-22 
            290     1.35609e-21 
            296     5.74407e-21 
            301     1.83959e-20 
            308     8.83883e-20 
            318     7.44004e-19 
            328     5.54498e-18 
            338     3.68901e-17 
            348     2.21955e-16 
            357     1.03466e-15 
            366     4.47274e-15 
            375     1.80509e-14 
            385      7.9265e-14 
            395     3.23332e-13 
            405     1.23631e-12 
            414     3.91926e-12 
            422     1.05047e-11 
            430     2.70903e-11 
            441     9.50729e-11 
            451     2.81712e-10 
            460     7.19827e-10 
            470        1.958e-9 
            480      5.11332e-9 
            490       1.2853e-8 
            500      3.11254e-8 
            506      7.13861e-8 
            512      1.30464e-7 
            520      2.44442e-7 
            530      5.24323e-7 
            540      1.08214e-6 
            550       2.2062e-6 
            560      4.35834e-6 
            570      8.40493e-6 
            580      1.57377e-5 
            590      2.92498e-5 
            600      5.28761e-5 
            610      9.38776e-5 
            620     0.000163393 
            630     0.000279429 
            640     0.000469238 
            650     0.000777614 
            658       0.0011509 
            665      0.00160787 
            675      0.00256312 
            685      0.00402955 
            695      0.00625128 
            705      0.00955192 
            716       0.0150653 
            726       0.0225012 
            735       0.0319682 
            745         0.04673 
            755        0.067577 
            765        0.096734 
            775        0.137169 
            785        0.192826 
            795        0.268141 
            805        0.370396 
            815        0.507227 
            825        0.688505 
            835        0.926715 
            845         1.24031 
            855         1.64683 
            865         2.17128 
            875         2.84088 
            885         3.69652 
            895         4.77693 
            905         6.13144 
            915         240.628 
            925         1731.91 
            935         2622.03 
            945         3952.09 
            955         5781.73 
            965          7455.9 
            975         6890.01 
            985         9930.15 
            995           10676 
           1005         13435.1 
           1015         15601.6 
           1025         13396.1 
           1035         20090.5 
           1045         24100.5 
           1055         27761.3 
           1065         29989.6 
           1075         35536.9 
           1085         40373.1 
           1095         42985.2 
           1105         75119.1 
           1115          896169 
           1125      1.55222e+6 
           1135      2.58556e+6 
           1145      2.38766e+6 
           1155      3.11064e+6 
           1165      3.32116e+6 
           1175      2.50556e+6 
           1185      1.98883e+6 
           1195          161389 
           1205          167590 
           1215         35028.5 
           1225          170130 
           1235          429334 
           1245      3.10128e+6 
           1255       2.2175e+7 
           1265      1.88804e+7 
           1275      4.77046e+7 
           1285      7.17673e+7 
           1295      6.14237e+7 
           1305      2.40126e+7 
           1315      6.76369e+7 
           1325      8.59453e+7 
           1335      7.02907e+7 
           1345      1.01295e+8 
           1355      9.59744e+7 
           1365      8.03491e+7 
           1375      9.16565e+7 
           1385       8.9122e+7 
           1395      9.37901e+7 
           1405      9.67098e+7 
           1415      9.02487e+7 
           1425      1.05038e+8 
           1435      9.25219e+7 
           1442      1.07241e+8 
           1447      1.18999e+8 
           1455      1.18071e+8 
           1465       1.0611e+8 
           1475      1.00306e+8 
           1485      1.11758e+8 
           1495      1.23087e+8 
           1505      1.23817e+8 
           1512      1.05469e+8 
           1517       1.2045e+8 
           1525      1.10547e+8 
           1535      1.04756e+8 
           1545      1.33341e+8 
           1555      1.08619e+8 
           1565      9.57134e+7 
           1575      1.13165e+8 
           1585      1.30063e+8 
           1595        1.408e+8 
           1605      1.29542e+8 
           1615      1.28077e+8 
           1625      1.13049e+8 
           1635       1.1914e+8 
           1645      1.28386e+8 
           1655      1.05552e+8 
           1665      1.25141e+8 
           1672      7.55916e+7 
           1677      1.19312e+8 
           1685      1.36509e+8 
           1695      1.24868e+8 
           1705      1.15224e+8 
           1715      1.11988e+8 
           1725        1.103e+8 
           1735      1.20601e+8 
           1745      1.18316e+8 
           1755      1.34973e+8 
           1765      1.09015e+8 
           1775      1.23734e+8 
           1785      1.22789e+8 
           1795      1.40717e+8 
           1805      1.31739e+8 
           1815      1.30497e+8 
           1825      1.24037e+8 
           1835      1.18337e+8 
           1845       1.0741e+8 
           1855      1.14627e+8 
           1865      1.15676e+8 
           1875      1.22975e+8 
           1885       1.1932e+8 
           1895      1.19134e+8 
           1905      1.12323e+8 
           1915      1.18477e+8 
           1925      1.20269e+8 
           1935      1.16624e+8 
           1945      1.22708e+8 
           1955      1.20263e+8 
           1967      1.27748e+8 
           1976        1.276e+8 
           1984      1.21596e+8 
           1995      1.16672e+8 
           2005      1.16064e+8 
           2015      1.08188e+8 
           2025      1.11201e+8 
           2035      1.12321e+8 
           2045      1.18126e+8 
           2055      1.10627e+8 
           2065      1.08569e+8 
           2074      1.17088e+8 
           2078      1.19447e+8 
           2085      1.17251e+8 
           2095       1.1204e+8 
           2105      1.08002e+8 
           2115      1.07733e+8 
           2125      1.10075e+8 
           2135      9.10205e+7 
           2145      1.02865e+8 
           2155      1.05928e+8 
           2165         9.98e+7 
           2175      9.77058e+7 
           2185       9.7279e+7 
           2195      1.03893e+8 
           2205      9.87767e+7 
           2215      8.92177e+7 
           2225      8.61041e+7 
           2235      9.72363e+7 
           2245      8.65427e+7 
           2255      8.35542e+7 
           2265      8.59831e+7 
           2275      9.12776e+7 
           2285      9.44705e+7 
           2295       8.8728e+7 
           2305       8.5237e+7 
           2315       8.0889e+7 
           2325      8.02226e+7 
           2335      7.35048e+7 
           2345      6.76945e+7 
           2355      7.98288e+7 
           2365      6.76981e+7 
           2375      7.32804e+7 
           2385      6.25539e+7 
           2395      7.10174e+7 
           2405      6.65201e+7 
           2415      6.96587e+7 
           2425      7.61002e+7 
           2435      7.24266e+7 
           2445      7.82192e+7 
           2455       7.4833e+7 
           2465      7.44937e+7 
           2475      7.12423e+7 
           2485      7.59288e+7 
           2495      7.27978e+7 
           2505      8.17815e+7 
           2513      7.13291e+7 
           2518      7.36902e+7 
           2525      6.76215e+7 
           2535      6.70304e+7 
           2545      6.67082e+7 
           2555       7.1883e+7 
           2565      7.07224e+7 
           2575      7.66853e+7 
           2585      7.59184e+7 
           2595      7.34659e+7 
           2605      6.98163e+7 
           2615      6.90519e+7 
           2625      7.45299e+7 
           2635      7.49528e+7 
           2645      8.48877e+7 
           2655      8.33088e+7 
           2665      7.47123e+7 
           2675      7.89457e+7 
           2685      7.71412e+7 
           2695      7.45105e+7 
           2705       7.6952e+7 
           2715      7.26297e+7 
           2725      7.36806e+7 
           2735      7.99368e+7 
           2745      6.57062e+7 
           2755      6.65007e+7 
           2765      6.86815e+7 
           2775       7.5056e+7 
           2785      7.31434e+7 
           2795      5.33023e+7 
           2805      6.12159e+7 
           2815      7.63088e+7 
           2825      7.83187e+7 
           2835      7.42891e+7 
           2845      7.13754e+7 
           2855      6.90091e+7 
           2865      7.43938e+7 
           2875      7.16757e+7 
           2885      7.31803e+7 
           2895      6.95021e+7 
           2910      7.79742e+7 
           2930      7.44252e+7 
           2950      7.41684e+7 
           2970      7.54407e+7 
           2990      7.58086e+7 
           3010      7.71621e+7 
           3030      7.58227e+7 
           3050      7.46817e+7 
           3070      7.36639e+7 
           3090      7.47454e+7 
           3110      7.24316e+7 
           3130       7.1855e+7 
           3150      7.29008e+7 
           3170      7.21638e+7 
           3190      6.92811e+7 
           3210      7.06544e+7 
           3230      6.90274e+7 
           3250      6.95215e+7 
           3270      6.93713e+7 
           3290      6.97625e+7 
           3310       6.9847e+7 
           3330       6.8151e+7 
           3350      6.69905e+7 
           3370      6.68346e+7 
           3390      6.61992e+7 
           3410      6.71971e+7 
           3430      6.68352e+7 
           3450      6.62398e+7 
           3470      6.51906e+7 
           3490      6.47023e+7 
           3510      6.52024e+7 
           3530      6.52124e+7 
           3550      6.50088e+7 
           3570      6.37415e+7 
           3590      6.33227e+7 
           3610      6.29583e+7 
           3630      6.25552e+7 
           3640      6.21494e+7 
           3650      6.35004e+7 
           3670      6.28717e+7 
           3690      6.01778e+7 
           3710       6.4211e+7 
           3730      6.90211e+7 
           3750      9.41844e+7 
           3770      1.01224e+8 
           3790      1.26069e+8 
           3810      1.44223e+8 
           3830      1.12853e+8 
           3850      1.53879e+8 
           3870      1.69362e+8 
           3890      9.98356e+7 
           3910      1.65437e+8 
           3930      1.65686e+8 
           3950       1.6444e+8 
           3970      9.39308e+7 
           3990      1.58254e+8 
           4010      1.64656e+8 
           4030      1.62124e+8 
           4050      1.61046e+8 
           4070      1.55698e+8 
           4090      1.30433e+8 
           4110      9.94406e+7 
           4130      1.47205e+8 
           4150      1.50611e+8 
           4170       1.4772e+8 
           4190      1.46311e+8 
           4210      1.44708e+8 
           4230       1.4189e+8 
           4250      1.39537e+8 
           4270      1.36704e+8 
           4290      1.35977e+8 
           4310       1.3005e+8 
           4330      1.04379e+8 
           4350      8.85814e+7 
           4370      1.26499e+8 
           4390       1.2524e+8 
           4410      1.24697e+8 
           4430      1.23439e+8 
           4450      1.22914e+8 
           4470      1.20936e+8 
           4490      1.18002e+8 
           4510      1.17914e+8 
           4530      1.15825e+8 
           4550        1.129e+8 
           4570      1.13663e+8 
           4590      1.10962e+8 
           4610      1.11742e+8 
           4630      1.08225e+8 
           4650      1.08762e+8 
           4670      1.06953e+8 
           4690       1.0502e+8 
           4710      1.01865e+8 
           4730      1.03078e+8 
           4750      1.01798e+8 
           4770      1.00659e+8 
           4790      9.92227e+7 
           4810      9.72676e+7 
           4830      9.43354e+7 
           4850       7.7082e+7 
           4870      6.20636e+7 
           4890       8.9821e+7 
           4910      9.12207e+7 
           4930      8.96916e+7 
           4950      8.95541e+7 
           4970      8.88973e+7 
           4990      8.74115e+7 
           5010      8.50234e+7 
           5030      8.47656e+7 
           5050      8.32269e+7 
           5070      8.31578e+7 
           5090      8.21813e+7 
           5110      8.10156e+7 
           5130      8.02019e+7 
           5150      7.87563e+7 
           5170      7.71827e+7 
           5190      7.64827e+7 
           5210      7.60548e+7 
           5230      7.45074e+7 
           5250      7.45613e+7 
           5270      7.25776e+7 
           5290      7.29897e+7 
           5310      7.13159e+7 
           5330      7.07486e+7 
           5350      7.06589e+7 
           5370       6.9645e+7 
           5390       6.8871e+7 
           5410      6.77912e+7 
           5430      6.71803e+7 
           5450      6.67402e+7 
           5470      6.58954e+7 
           5490      6.52262e+7 
           5510      6.44198e+7 
           5530       6.3707e+7 
           5550      6.31594e+7 
           5570      6.24189e+7 
           5590      6.17922e+7 
           5610      6.12327e+7 
           5630      6.05488e+7 
           5650      5.97091e+7 
           5670      5.91058e+7 
           5690      5.85688e+7 
           5710      5.79593e+7 
           5730      5.73592e+7 
           5750       5.6684e+7 
           5770       5.6096e+7 
           5790      5.54113e+7 
           5810      5.48687e+7 
           5830      5.42856e+7 
           5850      5.37455e+7 
           5870      5.30486e+7 
           5890      5.22405e+7 
           5910      5.20234e+7 
           5930      5.15124e+7 
           5950      5.07761e+7 
           5970      5.03657e+7 
           5990      4.97118e+7 
           6010      4.93137e+7 
           6030      4.88659e+7 
           6050      4.83035e+7 
           6070      4.78436e+7 
           6090       4.7348e+7 
           6110       4.6862e+7 
           6130      4.63562e+7 
           6150        4.533e+7 
           6170      4.54028e+7 
           6190      4.49978e+7 
           6210      4.45472e+7 
           6230      4.40481e+7 
           6250      4.32739e+7 
           6270      4.32225e+7 
           6290      4.27833e+7 
           6310      4.22523e+7 
           6330      4.19152e+7 
           6350      4.10593e+7 
           6370      4.08009e+7 
           6390      4.06493e+7 
           6410      4.01943e+7 
           6430      3.98553e+7 
           6450      3.91703e+7 
           6470      3.90824e+7 
           6490       3.8485e+7 
           6510       3.8032e+7 
           6530      3.71977e+7 
           6550      3.29843e+7 
           6570      2.64737e+7 
           6590      3.54087e+7 
           6610      3.61665e+7 
           6630      3.60215e+7 
           6650      3.57719e+7 
           6670      3.54578e+7 
           6690       3.5146e+7 
           6710       3.4838e+7 
           6730      3.44474e+7 
           6750      3.41667e+7 
           6770      3.38731e+7 
           6790      3.35398e+7 
           6810      3.32367e+7 
           6830      3.28937e+7 
           6850      3.26032e+7 
           6870      3.23091e+7 
           6890      3.20194e+7 
           6910      3.17128e+7 
           6930      3.14037e+7 
           6950      3.11359e+7 
           6970      3.08481e+7 
           6990      3.05832e+7 
           7010      3.02096e+7 
           7030      3.00197e+7 
           7050      2.97116e+7 
           7070      2.94714e+7 
           7090      2.92252e+7 
           7110      2.87905e+7 
           7130      2.86566e+7 
           7150      2.84022e+7 
           7170      2.81721e+7 
           7190       2.7918e+7 
           7210      2.76771e+7 
           7230      2.74045e+7 
           7250      2.71446e+7 
           7270      2.69484e+7 
           7290       2.6693e+7 
           7310      2.64463e+7 
           7330       2.6237e+7 
           7350      2.60233e+7 
           7370      2.58018e+7 
           7390       2.5565e+7 
           7410      2.53263e+7 
           7430      2.50237e+7 
           7450      2.48488e+7 
           7470       2.4564e+7 
           7490      2.44236e+7 
           7510      2.42215e+7 
           7530      2.40558e+7 
           7550      2.38624e+7 
           7570       2.3653e+7 
           7590       2.3452e+7 
           7610      2.32652e+7 
           7630      2.30599e+7 
           7650      2.28461e+7 
           7670      2.26541e+7 
           7690      2.24696e+7 
           7710       2.2265e+7 
           7730      2.21052e+7 
           7750      2.19179e+7 
           7770       2.1306e+7 
           7790      2.15574e+7 
           7810      2.13842e+7 
           7830      2.11909e+7 
           7850      2.09767e+7 
           7870      2.07473e+7 
           7890      2.05279e+7 
           7910       2.0476e+7 
           7930      2.03345e+7 
           7950      2.00571e+7 
           7970       2.0017e+7 
           7990      1.96089e+7 
           8010      1.96884e+7 
           8030      1.95233e+7 
           8050        1.937e+7 
           8070      1.92076e+7 
           8090      1.90563e+7 
           8110      1.88983e+7 
           8130      1.87598e+7 
           8150      1.86106e+7 
           8170      1.84637e+7 
           8190      1.82209e+7 
           8210      1.81322e+7 
           8230      1.79635e+7 
           8250      1.79197e+7 
           8270      1.78877e+7 
           8290       1.7722e+7 
           8310      1.76188e+7 
           8330      1.74127e+7 
           8350      1.73321e+7 
           8370       1.7181e+7 
           8390      1.70077e+7 
           8410      1.68012e+7 
           8430      1.66638e+7 
           8450      1.63492e+7 
           8470      1.60016e+7 
           8490      1.65221e+7 
           8510      1.54203e+7 
           8530         1.66e+7 
           8550      1.45435e+7 
           8570      1.68117e+7 
           8590      1.53606e+7 
           8610      1.49051e+7 
           8630      1.70168e+7 
           8650      1.62474e+7 
           8670      1.31474e+7 
           8690      1.66115e+7 
           8710      1.72896e+7 
           8730      1.65679e+7 
           8750      1.26852e+7 
           8770      1.56819e+7 
           8790      1.70977e+7 
           8810      1.71066e+7 
           8830      1.66436e+7 
           8850       1.4794e+7 
           8870      1.22767e+7 
           8890      1.58806e+7 
           8910      1.64054e+7 
           8930      1.63839e+7 
           8950       1.6379e+7 
           8970      1.61351e+7 
           8990      1.54458e+7 
           9010      1.20759e+7 
           9030      1.33286e+7 
           9050      1.53337e+7 
           9070      1.53403e+7 
           9090      1.52405e+7 
           9110       1.5353e+7 
           9130      1.52957e+7 
           9150      1.52199e+7 
           9170      1.50196e+7 
           9190      1.46653e+7 
