# Kurucz ODFNEW /NOVER (2003)
# teff = 7250 K (value for the effective temperature for the model. Temperatures are given in K)
# logg = 1 log(cm/s2) (value for Log(G) for the model.)
# meta = -1  (value for the Metallicity for the model.)
# lh = 1.25  (l/Hp where l is the  mixing length of the convective element and Hp is the pressure scale height)
# vtur = 2 km/s (Microturbulence velocity)
# alpha = 0  (Alpha)
#
# column 1: WAVELENGTH (ANGSTROM), Wavelength in Angstrom
# column 2: FLUX (ERG/CM2/S/A), Flux in erg/cm2/s/A
            395     3.51703e-23 
            405      2.5701e-23 
            414     1.29421e-22 
            422     5.12047e-22 
            430     1.91938e-21 
            441     1.08708e-20 
            451     4.86282e-20 
            460     1.76539e-19 
            470     6.95696e-19 
            480      2.5789e-18 
            490     9.03397e-18 
            500     2.99696e-17 
            506     7.98892e-17 
            512     1.77095e-16 
            520     4.24712e-16 
            530     1.22634e-15 
            540     3.34108e-15 
            550     8.86093e-15 
            560     2.25005e-14 
            570     5.51481e-14 
            580     1.29246e-13 
            590     3.00009e-13 
            600     6.68234e-13 
            610     1.44658e-12 
            620     3.04676e-12 
            630     6.25367e-12 
            640     1.25288e-11 
            650     2.45253e-11 
            658     4.12958e-11 
            665     6.44093e-11 
            675     1.19437e-10 
            685     2.17098e-10 
            695     3.87223e-10 
            705     6.77821e-10 
            716      1.23111e-9 
            726      2.08036e-9 
            735      3.29166e-9 
            745      5.40212e-9 
            755       8.7371e-9 
            765      1.39336e-8 
            775      2.19235e-8 
            785      3.40528e-8 
            795      5.21452e-8 
            805      7.91218e-8 
            815      1.18584e-7 
            825      1.75738e-7 
            835      2.57693e-7 
            845      3.74025e-7 
            855      5.37452e-7 
            865      7.65064e-7 
            875      1.07858e-6 
            885      1.50841e-6 
            895      2.09076e-6 
            905      2.87189e-6 
            915      0.00995747 
            925       0.0337189 
            935       0.0434894 
            945       0.0607517 
            955       0.0867817 
            965        0.112668 
            975        0.132906 
            985        0.191381 
            995        0.237174 
           1005        0.321991 
           1015        0.393688 
           1025        0.475257 
           1035        0.653494 
           1045        0.836858 
           1055         1.05005 
           1065         1.27475 
           1075         1.60328 
           1085          1.9864 
           1095         2.38195 
           1105         7.13457 
           1115         22.2536 
           1125         30.5878 
           1135         39.3567 
           1145         44.7958 
           1155          43.453 
           1165         48.6419 
           1175          45.007 
           1185         78.8027 
           1195         16.9826 
           1205         11.3847 
           1215         3.03762 
           1225         13.7974 
           1235         34.7948 
           1245         71.8083 
           1255         140.385 
           1265         196.908 
           1275         315.543 
           1285         502.002 
           1295         706.363 
           1305         743.604 
           1315         1148.23 
           1325         1512.41 
           1335         1830.75 
           1345         2431.53 
           1355         2761.82 
           1365          3264.8 
           1375         3855.12 
           1385         4609.78 
           1395         5526.78 
           1405         6458.33 
           1415         7107.19 
           1425          8366.2 
           1435         8862.14 
           1442         10600.6 
           1447         11661.5 
           1455           13933 
           1465         14879.1 
           1475         17220.9 
           1485         20074.8 
           1495         24041.3 
           1505         27678.1 
           1512           28360 
           1517         31624.3 
           1525         37497.6 
           1535          153872 
           1545          336764 
           1555          313954 
           1565          261471 
           1575          405763 
           1585          452515 
           1595          580593 
           1605          523833 
           1615          574983 
           1625          602054 
           1635          796674 
           1645      1.12316e+6 
           1655          619968 
           1665      1.17167e+6 
           1672          455592 
           1677      1.44445e+6 
           1685      1.94347e+6 
           1695      2.00309e+6 
           1705      1.83827e+6 
           1715       2.2675e+6 
           1725      2.38739e+6 
           1735       2.7961e+6 
           1745      2.60813e+6 
           1755      3.17979e+6 
           1765      2.59362e+6 
           1775       3.1187e+6 
           1785       2.9759e+6 
           1795      3.85379e+6 
           1805      3.32567e+6 
           1815       3.6855e+6 
           1825      3.22207e+6 
           1835      3.22878e+6 
           1845      2.96888e+6 
           1855      3.26059e+6 
           1865       3.4927e+6 
           1875      3.52723e+6 
           1885       3.6693e+6 
           1895       3.9069e+6 
           1905      3.60117e+6 
           1915      3.96276e+6 
           1925      4.09493e+6 
           1935      3.39318e+6 
           1945      4.39126e+6 
           1955       4.4741e+6 
           1967      4.77595e+6 
           1976      4.69453e+6 
           1984      4.58879e+6 
           1995      4.47397e+6 
           2005      4.33911e+6 
           2015      4.20809e+6 
           2025      3.96415e+6 
           2035      4.51196e+6 
           2045      4.93772e+6 
           2055      4.56497e+6 
           2065      4.38464e+6 
           2074      5.29841e+6 
           2078      5.47887e+6 
           2085      5.29569e+6 
           2095      5.08363e+6 
           2105      4.80393e+6 
           2115      4.90936e+6 
           2125      5.06808e+6 
           2135      4.01133e+6 
           2145      4.81656e+6 
           2155      4.93185e+6 
           2165      4.59569e+6 
           2175       4.6107e+6 
           2185      4.81676e+6 
           2195      5.33502e+6 
           2205      5.12022e+6 
           2215      4.52623e+6 
           2225      4.49789e+6 
           2235       5.4141e+6 
           2245      4.82047e+6 
           2255      4.48258e+6 
           2265      4.49118e+6 
           2275      5.07326e+6 
           2285      5.28546e+6 
           2295      4.89946e+6 
           2305      5.13578e+6 
           2315      5.00321e+6 
           2325      4.84158e+6 
           2335      3.97063e+6 
           2345      3.27395e+6 
           2355      4.77315e+6 
           2365      3.38531e+6 
           2375      4.31735e+6 
           2385      2.80403e+6 
           2395      3.55415e+6 
           2405      3.40651e+6 
           2415      3.88697e+6 
           2425       5.1445e+6 
           2435      5.05716e+6 
           2445      5.40691e+6 
           2455      5.30176e+6 
           2465      5.26906e+6 
           2475      4.96838e+6 
           2485      5.19715e+6 
           2495      5.04234e+6 
           2505      6.03785e+6 
           2513      5.06075e+6 
           2518      5.32956e+6 
           2525       4.7335e+6 
           2535      4.57037e+6 
           2545      4.67278e+6 
           2555      5.19675e+6 
           2565      4.97931e+6 
           2575      5.54524e+6 
           2585      5.32139e+6 
           2595      5.02065e+6 
           2605      4.59918e+6 
           2615      4.37852e+6 
           2625      5.30577e+6 
           2635      5.79861e+6 
           2645      7.36063e+6 
           2655      7.36675e+6 
           2665        6.474e+6 
           2675      6.89478e+6 
           2685      6.89682e+6 
           2695      6.51325e+6 
           2705      6.73858e+6 
           2715      6.15188e+6 
           2725      6.27982e+6 
           2735      6.83784e+6 
           2745      4.88337e+6 
           2755      5.51592e+6 
           2765      5.99596e+6 
           2775      6.87793e+6 
           2785      6.33272e+6 
           2795      2.99704e+6 
           2805      3.74085e+6 
           2815      7.10127e+6 
           2825      7.63785e+6 
           2835      7.34501e+6 
           2845      7.12172e+6 
           2855      6.69431e+6 
           2865      7.45406e+6 
           2875      7.25827e+6 
           2885      7.48188e+6 
           2895      7.14395e+6 
           2910      8.23875e+6 
           2930      7.98447e+6 
           2950      7.95493e+6 
           2970      8.28806e+6 
           2990      8.44977e+6 
           3010      8.66801e+6 
           3030      8.67501e+6 
           3050      8.69282e+6 
           3070      8.72263e+6 
           3090        9.022e+6 
           3110      8.78598e+6 
           3130       8.7775e+6 
           3150      9.14478e+6 
           3170      9.19358e+6 
           3190      8.73362e+6 
           3210       9.0986e+6 
           3230      8.86819e+6 
           3250      9.19523e+6 
           3270      9.32831e+6 
           3290      9.53335e+6 
           3310      9.70767e+6 
           3330      9.53502e+6 
           3350      9.42822e+6 
           3370        9.449e+6 
           3390      9.53977e+6 
           3410      9.81406e+6 
           3430      9.96604e+6 
           3450      9.92869e+6 
           3470      9.81207e+6 
           3490      9.79241e+6 
           3510      1.00881e+7 
           3530      1.02148e+7 
           3550      1.03783e+7 
           3570      1.00971e+7 
           3590      1.01159e+7 
           3610       1.0205e+7 
           3630      1.03459e+7 
           3640      1.02169e+7 
           3650       1.0536e+7 
           3670      1.05182e+7 
           3690      1.16773e+7 
           3710      1.56655e+7 
           3730      2.26716e+7 
           3750      3.40523e+7 
           3770       3.5399e+7 
           3790      4.23175e+7 
           3810      4.71687e+7 
           3830      3.76295e+7 
           3850      4.91928e+7 
           3870      5.15985e+7 
           3890      3.53524e+7 
           3910       4.9937e+7 
           3930      4.07758e+7 
           3950       4.9474e+7 
           3970      3.12625e+7 
           3990      4.93863e+7 
           4010       5.0003e+7 
           4030      4.91994e+7 
           4050      4.88755e+7 
           4070      4.77527e+7 
           4090      4.42758e+7 
           4110       3.4963e+7 
           4130      4.64283e+7 
           4150      4.67322e+7 
           4170      4.55462e+7 
           4190      4.52111e+7 
           4210      4.48697e+7 
           4230      4.40822e+7 
           4250      4.37809e+7 
           4270      4.30432e+7 
           4290      4.27104e+7 
           4310      4.06458e+7 
           4330      3.67167e+7 
           4350      3.18286e+7 
           4370      4.11984e+7 
           4390      4.03567e+7 
           4410      3.94723e+7 
           4430      3.99537e+7 
           4450       3.9603e+7 
           4470      3.91626e+7 
           4490      3.88033e+7 
           4510       3.8873e+7 
           4530      3.78163e+7 
           4550      3.68877e+7 
           4570      3.76677e+7 
           4590      3.66821e+7 
           4610      3.73235e+7 
           4630      3.63006e+7 
           4650      3.64716e+7 
           4670      3.60424e+7 
           4690       3.5513e+7 
           4710      3.44445e+7 
           4730      3.50564e+7 
           4750      3.49104e+7 
           4770      3.43947e+7 
           4790       3.4026e+7 
           4810      3.36101e+7 
           4830      3.30045e+7 
           4850      2.92479e+7 
           4870      2.38854e+7 
           4890      3.17474e+7 
           4910      3.19003e+7 
           4930      3.12436e+7 
           4950      3.13407e+7 
           4970      3.13071e+7 
           4990      3.06572e+7 
           5010      2.98591e+7 
           5030      3.01298e+7 
           5050      2.97853e+7 
           5070      2.97134e+7 
           5090      2.93844e+7 
           5110      2.91246e+7 
           5130      2.86188e+7 
           5150      2.82705e+7 
           5170       2.7549e+7 
           5190      2.72994e+7 
           5210      2.73511e+7 
           5230      2.69068e+7 
           5250      2.71587e+7 
           5270      2.62299e+7 
           5290      2.66257e+7 
           5310      2.61275e+7 
           5330      2.57448e+7 
           5350      2.60147e+7 
           5370      2.56044e+7 
           5390      2.53823e+7 
           5410      2.50483e+7 
           5430      2.48219e+7 
           5450      2.47783e+7 
           5470      2.45887e+7 
           5490      2.44311e+7 
           5510      2.41796e+7 
           5530      2.38535e+7 
           5550      2.38433e+7 
           5570      2.35655e+7 
           5590      2.33369e+7 
           5610      2.31661e+7 
           5630      2.30136e+7 
           5650      2.27188e+7 
           5670       2.2519e+7 
           5690      2.24063e+7 
           5710      2.22115e+7 
           5730      2.20602e+7 
           5750      2.18489e+7 
           5770      2.16705e+7 
           5790      2.14694e+7 
           5810      2.12917e+7 
           5830      2.11126e+7 
           5850      2.09212e+7 
           5870      2.07515e+7 
           5890      2.03545e+7 
           5910      2.03982e+7 
           5930      2.02234e+7 
           5950      2.00493e+7 
           5970       1.9892e+7 
           5990      1.96932e+7 
           6010      1.95279e+7 
           6030      1.93789e+7 
           6050      1.92232e+7 
           6070      1.90783e+7 
           6090      1.89035e+7 
           6110      1.87305e+7 
           6130      1.85353e+7 
           6150      1.82585e+7 
           6170      1.82284e+7 
           6190      1.81403e+7 
           6210      1.80012e+7 
           6230      1.78208e+7 
           6250      1.74918e+7 
           6270      1.75673e+7 
           6290      1.74243e+7 
           6310      1.72298e+7 
           6330      1.71268e+7 
           6350      1.69331e+7 
           6370      1.68019e+7 
           6390      1.67171e+7 
           6410      1.65332e+7 
           6430      1.64323e+7 
           6450      1.62056e+7 
           6470      1.61929e+7 
           6490      1.59475e+7 
           6510      1.58541e+7 
           6530      1.56573e+7 
           6550      1.44387e+7 
           6570      1.14952e+7 
           6590      1.51063e+7 
           6610      1.52375e+7 
           6630      1.51885e+7 
           6650      1.50998e+7 
           6670      1.49781e+7 
           6690      1.48744e+7 
           6710      1.47582e+7 
           6730      1.46465e+7 
           6750      1.45243e+7 
           6770      1.44304e+7 
           6790      1.43153e+7 
           6810      1.42102e+7 
           6830      1.40891e+7 
           6850      1.39877e+7 
           6870      1.38896e+7 
           6890      1.37861e+7 
           6910      1.36811e+7 
           6930      1.35756e+7 
           6950      1.34765e+7 
           6970      1.33737e+7 
           6990      1.32765e+7 
           7010      1.31548e+7 
           7030      1.30717e+7 
           7050      1.29802e+7 
           7070      1.28865e+7 
           7090      1.27922e+7 
           7110      1.26175e+7 
           7130      1.25861e+7 
           7150      1.25003e+7 
           7170      1.24116e+7 
           7190      1.23106e+7 
           7210      1.22214e+7 
           7230       1.2125e+7 
           7250       1.2051e+7 
           7270      1.19706e+7 
           7290      1.18681e+7 
           7310      1.17687e+7 
           7330      1.16962e+7 
           7350      1.16214e+7 
           7370      1.15494e+7 
           7390       1.1456e+7 
           7410      1.13592e+7 
           7430       1.1277e+7 
           7450      1.12009e+7 
           7470      1.10958e+7 
           7490      1.10312e+7 
           7510      1.09619e+7 
           7530      1.08977e+7 
           7550      1.08321e+7 
           7570       1.0748e+7 
           7590      1.06777e+7 
           7610      1.06035e+7 
           7630      1.05292e+7 
           7650      1.04465e+7 
           7670      1.03691e+7 
           7690      1.03056e+7 
           7710      1.02117e+7 
           7730      1.01658e+7 
           7750      1.00934e+7 
           7770      9.87611e+6 
           7790      9.95956e+6 
           7810      9.89009e+6 
           7830      9.81259e+6 
           7850      9.73637e+6 
           7870      9.66626e+6 
           7890       9.5919e+6 
           7910      9.54346e+6 
           7930      9.47621e+6 
           7950      9.40773e+6 
           7970      9.36354e+6 
           7990      9.27423e+6 
           8010       9.2315e+6 
           8030      9.16746e+6 
           8050      9.10859e+6 
           8070      9.04615e+6 
           8090      8.98421e+6 
           8110      8.92964e+6 
           8130      8.87094e+6 
           8150      8.81157e+6 
           8170      8.75268e+6 
           8190      8.64877e+6 
           8210      8.63463e+6 
           8230      8.57658e+6 
           8250      8.50682e+6 
           8270      8.49492e+6 
           8290      8.42712e+6 
           8310      8.34023e+6 
           8330      8.20251e+6 
           8350      8.24053e+6 
           8370      8.03073e+6 
           8390      8.06313e+6 
           8410       8.0195e+6 
           8430      8.21845e+6 
           8450      8.10468e+6 
           8470      7.82751e+6 
           8490      8.50985e+6 
           8510      7.66723e+6 
           8530      8.64147e+6 
           8550      7.34056e+6 
           8570      8.81285e+6 
           8590      8.31032e+6 
           8610      8.05781e+6 
           8630      9.02357e+6 
           8650      8.85048e+6 
           8670      7.20593e+6 
           8690      8.88243e+6 
           8710      9.02592e+6 
           8730      8.85214e+6 
           8750      7.26322e+6 
           8770      8.57761e+6 
           8790      8.80338e+6 
           8810      8.72753e+6 
           8830      8.62523e+6 
           8850      8.21544e+6 
           8870      7.05605e+6 
           8890      8.42673e+6 
           8910      8.42169e+6 
           8930      8.37834e+6 
           8950       8.3842e+6 
           8970      8.30565e+6 
           8990      8.17458e+6 
           9010      6.91784e+6 
           9030      7.57932e+6 
           9050      8.05689e+6 
           9070      7.91744e+6 
           9090      7.80559e+6 
           9110       7.8921e+6 
           9130      7.89643e+6 
           9150      7.85519e+6 
           9170      7.79274e+6 
           9190      7.70846e+6 
           9210      7.47915e+6 
           9230      6.16924e+6 
           9250      7.28428e+6 
           9270      7.40588e+6 
           9290      7.49494e+6 
           9310      7.45322e+6 
           9330      7.40269e+6 
           9350      7.35812e+6 
           9370      7.31301e+6 
           9390      7.25199e+6 
           9410      7.10589e+6 
           9430      7.15162e+6 
           9450      7.11758e+6 
           9470      7.07747e+6 
           9490      7.02884e+6 
           9510      6.95391e+6 
