# Kurucz ODFNEW /NOVER (2003)
# teff = 21000 K (value for the effective temperature for the model. Temperatures are given in K)
# logg = 4 log(cm/s2) (value for Log(G) for the model.)
# meta = 0  (value for the Metallicity for the model.)
# lh = 1.25  (l/Hp where l is the  mixing length of the convective element and Hp is the pressure scale height)
# vtur = 2 km/s (Microturbulence velocity)
# alpha = 0.4  (Alpha)
#
# column 1: WAVELENGTH (ANGSTROM), Wavelength in Angstrom
# column 2: FLUX (ERG/CM2/S/A), Flux in erg/cm2/s/A
          147.2      1.3263e-18 
            151      7.1668e-18 
          155.2     4.21617e-17 
          158.8     1.79226e-16 
            162     6.16599e-16 
            166     2.71049e-15 
          170.3     1.23275e-14 
          173.4     3.53167e-14 
          176.8     1.07297e-13 
          180.2     3.13651e-13 
          181.7     4.96944e-13 
          186.1     1.84399e-12 
            191     7.43215e-12 
          193.9      1.6417e-11 
          198.4     5.37896e-11 
          201.8     1.27599e-10 
            205     2.80738e-10 
          210.5      1.03215e-9 
          216.2      3.72358e-9 
          219.8      8.10429e-9 
            223      1.58528e-8 
          226.8      3.43536e-8 
            230      4.75719e-7 
            234      1.19027e-6 
            240       3.4145e-6 
          246.5      1.00342e-5 
          252.4      2.56951e-5 
          256.8      4.89645e-5 
            260      8.07795e-5 
            264     0.000142955 
          268.5     0.000266174 
          273.5     0.000516124 
          278.5     0.000986433 
            284      0.00199505 
            290      0.00406044 
            296      0.00802468 
            301       0.0138731 
            308       0.0291415 
            318       0.0805995 
            328        0.200834 
            338        0.492626 
            348         1.12359 
            357         2.67458 
            366         5.29929 
            375         9.71285 
            385         18.7492 
            395         34.9892 
            405          62.748 
            414         104.575 
            422         158.391 
            430         239.729 
            441         411.692 
            451         658.736 
            460         976.915 
            470         1500.08 
            480         2246.15 
            490         3327.18 
            500         4844.44 
            506         39062.5 
            512          273295 
            520          339697 
            530          471857 
            540          531749 
            550          802540 
            560          973442 
            570      1.25785e+6 
            580      1.27432e+6 
            590      1.77239e+6 
            600      2.18357e+6 
            610       2.7259e+6 
            620      3.12095e+6 
            630      3.62482e+6 
            640      3.83278e+6 
            650       3.4833e+6 
            658      5.09088e+6 
            665      5.79348e+6 
            675      6.39198e+6 
            685      7.07743e+6 
            695       8.7548e+6 
            705      9.52539e+6 
            716      1.10229e+7 
            726      1.19979e+7 
            735       1.3118e+7 
            745      1.51248e+7 
            755      1.68272e+7 
            765       1.8658e+7 
            775      2.07581e+7 
            785      2.28339e+7 
            795      2.44477e+7 
            805      2.64805e+7 
            815       2.8434e+7 
            825      3.14579e+7 
            835      3.09651e+7 
            845      3.52267e+7 
            855      3.77629e+7 
            865      4.10159e+7 
            875      4.44911e+7 
            885      4.88934e+7 
            895      5.23454e+7 
            905      5.30671e+7 
            915      8.53781e+7 
            925      5.15808e+8 
            935       1.6664e+9 
            945      4.80411e+9 
            955      7.66946e+9 
            965      9.77399e+9 
            975      1.38002e+9 
            985      9.54496e+9 
            995      9.29204e+9 
           1005     1.15168e+10 
           1015     1.10255e+10 
           1025      3.40318e+9 
           1035      7.42609e+9 
           1045     1.43375e+10 
           1055     1.33044e+10 
           1065     1.00129e+10 
           1075     1.24553e+10 
           1085     1.10482e+10 
           1095     1.28082e+10 
           1105     1.04837e+10 
           1115      9.25956e+9 
           1125      8.39349e+9 
           1135     1.18319e+10 
           1145      1.0031e+10 
           1155     1.08817e+10 
           1165     1.11598e+10 
           1175      7.37974e+9 
           1185     1.10412e+10 
           1195      7.64842e+9 
           1205      3.26234e+9 
           1215      2.60429e+9 
           1225      7.18601e+9 
           1235     1.03636e+10 
           1245     1.06066e+10 
           1255     1.02761e+10 
           1265      9.72037e+9 
           1275     1.02392e+10 
           1285     1.03615e+10 
           1295      5.50484e+9 
           1305       5.3697e+9 
           1315      9.74968e+9 
           1325      9.14236e+9 
           1335      8.34703e+9 
           1345      9.09573e+9 
           1355      8.94453e+9 
           1365      7.82382e+9 
           1375       7.8027e+9 
           1385      7.74404e+9 
           1395      5.75947e+9 
           1405      6.34344e+9 
           1415      6.84923e+9 
           1425      7.06772e+9 
           1435      7.18214e+9 
           1442      7.50772e+9 
           1447      7.36147e+9 
           1455      7.14905e+9 
           1465      6.60225e+9 
           1475      6.62923e+9 
           1485       6.4673e+9 
           1495      6.41461e+9 
           1505      5.77778e+9 
           1512      5.20582e+9 
           1517      5.45379e+9 
           1525      5.64926e+9 
           1535      4.90805e+9 
           1545       4.9634e+9 
           1555       4.7474e+9 
           1565      4.96394e+9 
           1575      5.27668e+9 
           1585      5.26399e+9 
           1595      5.29134e+9 
           1605      5.30809e+9 
           1615      5.27419e+9 
           1625       5.0748e+9 
           1635      5.36283e+9 
           1645      5.33124e+9 
           1655      5.08298e+9 
           1665      5.36293e+9 
           1672      5.15452e+9 
           1677       5.3675e+9 
           1685      5.35672e+9 
           1695      5.04325e+9 
           1705      4.81087e+9 
           1715       4.5263e+9 
           1725      4.48258e+9 
           1735      4.69963e+9 
           1745      4.54484e+9 
           1755       4.6237e+9 
           1765       4.4059e+9 
           1775      4.26816e+9 
           1785      4.29507e+9 
           1795      4.51359e+9 
           1805      4.52823e+9 
           1815      4.01474e+9 
           1825      4.22355e+9 
           1835      4.01508e+9 
           1845      3.68293e+9 
           1855      3.60337e+9 
           1865      3.66372e+9 
           1875      3.94622e+9 
           1885      3.52118e+9 
           1895      3.27902e+9 
           1905      3.57761e+9 
           1915      3.33458e+9 
           1925      3.20822e+9 
           1935      3.38181e+9 
           1945      3.40289e+9 
           1955       3.1252e+9 
           1967      3.41765e+9 
           1976      3.55332e+9 
           1984      3.28124e+9 
           1995      3.21004e+9 
           2005      3.32879e+9 
           2015      3.21659e+9 
           2025      3.39069e+9 
           2035      3.08927e+9 
           2045      3.15552e+9 
           2055      3.03621e+9 
           2065      3.07075e+9 
           2074      3.20373e+9 
           2078      2.91885e+9 
           2085      3.07642e+9 
           2095      2.89185e+9 
           2105      2.96833e+9 
           2115      2.97545e+9 
           2125      3.01267e+9 
           2135      2.93071e+9 
           2145      2.80011e+9 
           2155      2.92175e+9 
           2165      2.89265e+9 
           2175      2.85289e+9 
           2185      2.75716e+9 
           2195      2.80137e+9 
           2205      2.76091e+9 
           2215       2.7031e+9 
           2225      2.61394e+9 
           2235      2.63374e+9 
           2245      2.63806e+9 
           2255      2.53263e+9 
           2265      2.58838e+9 
           2275      2.56087e+9 
           2285      2.56607e+9 
           2295      2.41987e+9 
           2305      2.45968e+9 
           2315       2.3826e+9 
           2325      2.35009e+9 
           2335      2.24543e+9 
           2345      2.24461e+9 
           2355      2.25602e+9 
           2365      2.20539e+9 
           2375      2.19594e+9 
           2385      2.15697e+9 
           2395      2.18175e+9 
           2405      2.10861e+9 
           2415      2.10739e+9 
           2425      2.11901e+9 
           2435      2.04128e+9 
           2445      2.06173e+9 
           2455      2.05866e+9 
           2465      2.01403e+9 
           2475      1.98229e+9 
           2485      1.98546e+9 
           2495      1.85834e+9 
           2505      1.94218e+9 
           2513      1.84924e+9 
           2518      1.91368e+9 
           2525      1.86119e+9 
           2535      1.83879e+9 
           2545      1.76807e+9 
           2555      1.82195e+9 
           2565      1.79208e+9 
           2575      1.81682e+9 
           2585      1.80358e+9 
           2595      1.78954e+9 
           2605      1.77017e+9 
           2615      1.75175e+9 
           2625      1.73515e+9 
           2635      1.72217e+9 
           2645      1.72904e+9 
           2655      1.71791e+9 
           2665       1.6564e+9 
           2675      1.67157e+9 
           2685      1.66024e+9 
           2695      1.61304e+9 
           2705      1.60381e+9 
           2715      1.58767e+9 
           2725      1.56437e+9 
           2735      1.57189e+9 
           2745      1.50916e+9 
           2755      1.50741e+9 
           2765      1.50081e+9 
           2775      1.51575e+9 
           2785      1.49235e+9 
           2795      1.42479e+9 
           2805      1.45415e+9 
           2815      1.45705e+9 
           2825       1.4334e+9 
           2835      1.37915e+9 
           2845      1.39013e+9 
           2855      1.38208e+9 
           2865      1.38672e+9 
           2875      1.36706e+9 
           2885      1.35602e+9 
           2895       1.3406e+9 
           2910       1.3192e+9 
           2930      1.29165e+9 
           2950      1.25865e+9 
           2970      1.24564e+9 
           2990      1.21639e+9 
           3010      1.19063e+9 
           3030      1.18026e+9 
           3050      1.15706e+9 
           3070      1.13676e+9 
           3090      1.10354e+9 
           3110      1.09025e+9 
           3130      1.07113e+9 
           3150      1.05165e+9 
           3170       1.0286e+9 
           3190      1.00123e+9 
           3210      9.92415e+8 
           3230      9.73952e+8 
           3250      9.58614e+8 
           3270      9.41427e+8 
           3290      9.23577e+8 
           3310      9.09183e+8 
           3330       8.9184e+8 
           3350      8.74476e+8 
           3370      8.59914e+8 
           3390      8.46126e+8 
           3410      8.31856e+8 
           3430      8.13441e+8 
           3450      7.96536e+8 
           3470      7.84346e+8 
           3490      7.70495e+8 
           3510      7.59935e+8 
           3530      7.49353e+8 
           3550      7.36868e+8 
           3570      7.27837e+8 
           3590       7.0873e+8 
           3610       6.9769e+8 
           3630      6.87536e+8 
           3640      6.86862e+8 
           3650       6.7858e+8 
           3670      6.71064e+8 
           3690      6.56007e+8 
           3710      6.33653e+8 
           3730      6.11442e+8 
           3750      6.59106e+8 
           3770        6.639e+8 
           3790      7.05904e+8 
           3810      7.38687e+8 
           3830      6.39563e+8 
           3850      7.56763e+8 
           3870      7.61639e+8 
           3890      6.05173e+8 
           3910      7.59861e+8 
           3930      7.33804e+8 
           3950      7.32114e+8 
           3970      5.63006e+8 
           3990      7.01181e+8 
           4010      7.02193e+8 
           4030      6.58358e+8 
           4050      6.84303e+8 
           4070      6.57035e+8 
           4090      6.08961e+8 
           4110      5.31303e+8 
           4130      6.19972e+8 
           4150      6.17488e+8 
           4170      6.15263e+8 
           4190      6.09918e+8 
           4210      6.03945e+8 
           4230      5.91742e+8 
           4250      5.78344e+8 
           4270      5.60066e+8 
           4290      5.57394e+8 
           4310      5.43695e+8 
           4330      4.91224e+8 
           4350      4.45963e+8 
           4370      5.15986e+8 
           4390      5.03359e+8 
           4410      5.07501e+8 
           4430      4.99608e+8 
           4450      4.95375e+8 
           4470      4.66629e+8 
           4490      4.76142e+8 
           4510      4.75336e+8 
           4530      4.65677e+8 
           4550      4.59427e+8 
           4570      4.52492e+8 
           4590      4.45482e+8 
           4610      4.37052e+8 
           4630      4.30208e+8 
           4650      4.20679e+8 
           4670      4.18224e+8 
           4690      4.14664e+8 
           4710      3.97412e+8 
           4730      3.98234e+8 
           4750      3.92383e+8 
           4770      3.91997e+8 
           4790      3.85003e+8 
           4810      3.75881e+8 
           4830      3.68915e+8 
           4850      3.40526e+8 
           4870      3.02265e+8 
           4890      3.53962e+8 
           4910      3.51006e+8 
           4930      3.37686e+8 
           4950      3.42082e+8 
           4970      3.39029e+8 
           4990      3.33472e+8 
           5010      3.19708e+8 
           5030      3.23067e+8 
           5050        3.136e+8 
           5070      3.15396e+8 
           5090      3.10465e+8 
           5110      3.05399e+8 
           5130      2.99644e+8 
           5150      2.96014e+8 
           5170      2.93982e+8 
           5190      2.89889e+8 
           5210      2.82865e+8 
           5230      2.82414e+8 
           5250      2.78735e+8 
           5270      2.74413e+8 
           5290      2.71601e+8 
           5310      2.67729e+8 
           5330      2.63509e+8 
           5350      2.59291e+8 
           5370      2.57507e+8 
           5390      2.54018e+8 
           5410      2.50483e+8 
           5430      2.46303e+8 
           5450      2.43357e+8 
           5470      2.39919e+8 
           5490      2.37874e+8 
           5510      2.34735e+8 
           5530      2.31464e+8 
           5550       2.2893e+8 
           5570      2.25735e+8 
           5590      2.23254e+8 
           5610      2.19858e+8 
           5630      2.17883e+8 
           5650      2.12649e+8 
           5670      2.10062e+8 
           5690      2.08227e+8 
           5710      2.06609e+8 
           5730      2.04332e+8 
           5750      2.01443e+8 
           5770      1.99517e+8 
           5790       1.9704e+8 
           5810      1.94458e+8 
           5830      1.91929e+8 
           5850      1.89782e+8 
           5870      1.81625e+8 
           5890       1.8364e+8 
           5910      1.82648e+8 
           5930      1.80529e+8 
           5950      1.77625e+8 
           5970      1.76564e+8 
           5990      1.73906e+8 
           6010      1.72469e+8 
           6030      1.70239e+8 
           6050      1.68343e+8 
           6070      1.66387e+8 
           6090       1.6427e+8 
           6110       1.6253e+8 
           6130       1.6071e+8 
           6150      1.57754e+8 
           6170      1.56733e+8 
           6190      1.55151e+8 
           6210      1.53352e+8 
           6230      1.51612e+8 
           6250      1.49399e+8 
           6270      1.47988e+8 
           6290      1.46315e+8 
           6310      1.44405e+8 
           6330      1.43127e+8 
           6350      1.40583e+8 
           6370      1.39395e+8 
           6390      1.38155e+8 
           6410      1.36588e+8 
           6430      1.35366e+8 
           6450      1.33695e+8 
           6470      1.31996e+8 
           6490      1.30656e+8 
           6510      1.29073e+8 
           6530      1.27117e+8 
           6550      1.21029e+8 
           6570      1.06539e+8 
           6590      1.21499e+8 
           6610      1.22041e+8 
           6630        1.211e+8 
           6650      1.19819e+8 
           6670      1.17332e+8 
           6690       1.1616e+8 
           6710      1.16046e+8 
           6730      1.14717e+8 
           6750      1.13658e+8 
           6770      1.12469e+8 
           6790      1.10566e+8 
           6810      1.09958e+8 
           6830      1.08733e+8 
           6850      1.07762e+8 
           6870      1.06625e+8 
           6890      1.05483e+8 
           6910      1.04352e+8 
           6930      1.03178e+8 
           6950      1.02265e+8 
           6970      1.01214e+8 
           6990      1.00119e+8 
           7010       9.9058e+7 
           7030      9.80531e+7 
           7050      9.70048e+7 
           7070       9.4452e+7 
           7090       9.5134e+7 
           7110      9.38096e+7 
           7130      9.28987e+7 
           7150      9.21586e+7 
           7170      9.12861e+7 
           7190      9.04146e+7 
           7210      8.95151e+7 
           7230      8.74422e+7 
           7250       8.7584e+7 
           7270      8.68533e+7 
           7290      8.52928e+7 
           7310      8.51158e+7 
           7330      8.42873e+7 
           7350      8.34805e+7 
           7370      8.26605e+7 
           7390      8.18412e+7 
           7410      8.10432e+7 
           7430      8.01161e+7 
           7450      7.94286e+7 
           7470      7.84773e+7 
           7490      7.78506e+7 
           7510      7.71225e+7 
           7530      7.63812e+7 
           7550      7.56929e+7 
           7570      7.49844e+7 
           7590       7.4217e+7 
           7610      7.35347e+7 
           7630       7.2852e+7 
           7650      7.21626e+7 
           7670      7.14794e+7 
           7690      7.08023e+7 
           7710      7.01312e+7 
           7730      6.94472e+7 
           7750      6.88133e+7 
           7770      6.75422e+7 
           7790      6.75373e+7 
           7810      6.68645e+7 
           7830      6.62898e+7 
           7850      6.55062e+7 
           7870      6.49365e+7 
           7890      6.41538e+7 
           7910       6.3884e+7 
           7930      6.33105e+7 
           7950      6.24082e+7 
           7970      6.19946e+7 
           7990      6.11476e+7 
           8010      6.08955e+7 
           8030      6.03355e+7 
           8050      5.97744e+7 
           8070       5.9305e+7 
           8090       5.8661e+7 
           8110      5.81372e+7 
           8130      5.77261e+7 
           8150      5.71539e+7 
           8170      5.67502e+7 
           8190      5.61055e+7 
           8210      5.54765e+7 
           8230      5.49685e+7 
           8250       5.4761e+7 
           8270      5.39225e+7 
           8290      5.37504e+7 
           8310      5.32666e+7 
           8330      5.28363e+7 
           8350       5.2101e+7 
           8370      5.17566e+7 
           8390      5.14438e+7 
           8410      5.09778e+7 
           8430      5.04526e+7 
           8450      4.94353e+7 
           8470      4.94715e+7 
           8490      4.90317e+7 
           8510      4.83817e+7 
           8530      4.83337e+7 
           8550      4.68633e+7 
           8570       4.8177e+7 
           8590      4.59041e+7 
