# Kurucz ODFNEW /NOVER (2003)
# teff = 9250 K (value for the effective temperature for the model. Temperatures are given in K)
# logg = 4.5 log(cm/s2) (value for Log(G) for the model.)
# meta = -1.5  (value for the Metallicity for the model.)
# lh = 1.25  (l/Hp where l is the  mixing length of the convective element and Hp is the pressure scale height)
# vtur = 2 km/s (Microturbulence velocity)
# alpha = 0  (Alpha)
#
# column 1: WAVELENGTH (ANGSTROM), Wavelength in Angstrom
# column 2: FLUX (ERG/CM2/S/A), Flux in erg/cm2/s/A
          268.5     5.52195e-23 
          273.5      2.7373e-22 
          278.5      1.1592e-21 
            284     5.25934e-21 
            290     2.55571e-20 
            296     1.16232e-19 
            301     3.91902e-19 
            308     2.00731e-18 
            318     1.82218e-17 
            328     1.44085e-16 
            338     1.00441e-15 
            348     6.24274e-15 
            357     2.95258e-14 
            366     1.29058e-13 
            375     5.24193e-13 
            385     2.29738e-12 
            395     9.31483e-12 
            405     3.51545e-11 
            414     1.09718e-10 
            422     2.89183e-10 
            430     7.34001e-10 
            441      2.49382e-9 
            451      7.18061e-9 
            460      1.78519e-8 
            470      4.70443e-8 
            480       1.1881e-7 
            490      2.88345e-7 
            500      6.74089e-7 
            506      1.11932e-6 
            512      1.81995e-6 
            520      3.38611e-6 
            530      7.15866e-6 
            540      1.46855e-5 
            550      2.93239e-5 
            560        5.702e-5 
            570     0.000108155 
            580     0.000200314 
            590     0.000363082 
            600     0.000644176 
            610      0.00112017 
            620      0.00191089 
            630      0.00320111 
            640      0.00527035 
            650      0.00853522 
            658       0.0124105 
            665       0.0170839 
            675       0.0266375 
            685       0.0409547 
            695       0.0621291 
            705       0.0930482 
            716        0.143062 
            726        0.208951 
            735        0.291028 
            745        0.416264 
            755        0.589252 
            765        0.825911 
            775         1.14657 
            785         1.57728 
            795         2.15073 
            805         2.90791 
            815         3.89976 
            825           5.189 
            835         6.85243 
            845         8.98421 
            855         11.6957 
            865         15.1236 
            875         19.4288 
            885         24.8022 
            895         31.4703 
            905          39.698 
            915          95.687 
            925         501.675 
            935         910.382 
            945         1765.77 
            955         2758.93 
            965         3785.68 
            975         2690.46 
            985         6488.34 
            995         8025.28 
           1005          9473.2 
           1015          8767.1 
           1025         4816.76 
           1035         11214.8 
           1045         16689.2 
           1055         20204.2 
           1065         24174.3 
           1075         31793.1 
           1085         42203.6 
           1095         48555.9 
           1105          272801 
           1115      3.65237e+6 
           1125      4.37534e+6 
           1135      4.84487e+6 
           1145      3.01924e+6 
           1155      1.44253e+6 
           1165          469043 
           1175          154613 
           1185          127783 
           1195         66807.6 
           1205         47212.3 
           1215         15708.4 
           1225         51429.8 
           1235         99496.2 
           1245          141733 
           1255          242275 
           1265          540130 
           1275      1.95523e+6 
           1285      7.31727e+6 
           1295      1.21693e+7 
           1305      1.58113e+7 
           1315      2.27098e+7 
           1325      2.94796e+7 
           1335      3.45651e+7 
           1345      4.15979e+7 
           1355      4.12817e+7 
           1365      4.31256e+7 
           1375      4.02668e+7 
           1385       3.3664e+7 
           1395      3.14718e+7 
           1405      4.68005e+7 
           1415      6.47386e+7 
           1425       6.9783e+7 
           1435       6.6033e+7 
           1442      7.45446e+7 
           1447      7.36021e+7 
           1455      7.73932e+7 
           1465      7.26313e+7 
           1475      7.39165e+7 
           1485      7.43935e+7 
           1495      7.63952e+7 
           1505      7.84004e+7 
           1512      7.66578e+7 
           1517      7.68982e+7 
           1525      7.60838e+7 
           1535      7.50141e+7 
           1545      7.48795e+7 
           1555      6.80786e+7 
           1565      5.75286e+7 
           1575      6.40856e+7 
           1585      6.49335e+7 
           1595      6.60736e+7 
           1605       6.3337e+7 
           1615      6.89884e+7 
           1625      6.97883e+7 
           1635      7.61766e+7 
           1645      8.40937e+7 
           1655      7.35076e+7 
           1665      8.66625e+7 
           1672      7.73354e+7 
           1677      8.31132e+7 
           1685      8.79691e+7 
           1695      8.26437e+7 
           1705      8.26828e+7 
           1715      8.58675e+7 
           1725      8.41848e+7 
           1735       8.6804e+7 
           1745      8.45537e+7 
           1755      8.69871e+7 
           1765      8.05272e+7 
           1775      8.52411e+7 
           1785      8.40286e+7 
           1795      8.69908e+7 
           1805      8.42246e+7 
           1815        8.337e+7 
           1825      8.11083e+7 
           1835      8.14473e+7 
           1845      7.76462e+7 
           1855      7.96458e+7 
           1865      8.02767e+7 
           1875      8.08147e+7 
           1885      8.05851e+7 
           1895      8.00295e+7 
           1905      7.80122e+7 
           1915      7.86111e+7 
           1925      7.92269e+7 
           1935      7.68466e+7 
           1945      7.96106e+7 
           1955      7.89796e+7 
           1967      7.90636e+7 
           1976      7.70512e+7 
           1984      7.64177e+7 
           1995      7.60847e+7 
           2005      7.43839e+7 
           2015      7.28968e+7 
           2025      7.22126e+7 
           2035      7.41137e+7 
           2045      7.41518e+7 
           2055       7.1869e+7 
           2065      7.16305e+7 
           2074      7.32496e+7 
           2078      7.36414e+7 
           2085      7.31911e+7 
           2095       7.1779e+7 
           2105      7.13461e+7 
           2115      7.11168e+7 
           2125      7.08771e+7 
           2135      6.73699e+7 
           2145       7.0282e+7 
           2155      6.94991e+7 
           2165      6.72985e+7 
           2175      6.70737e+7 
           2185      6.72163e+7 
           2195      6.91293e+7 
           2205      6.70315e+7 
           2215      6.40011e+7 
           2225      6.42992e+7 
           2235      6.74983e+7 
           2245      6.48554e+7 
           2255      6.31065e+7 
           2265      6.24036e+7 
           2275      6.46724e+7 
           2285      6.52347e+7 
           2295      6.29973e+7 
           2305       6.3212e+7 
           2315      6.24098e+7 
           2325      6.25096e+7 
           2335      6.18579e+7 
           2345      5.82568e+7 
           2355      6.13932e+7 
           2365      5.84395e+7 
           2375      6.01324e+7 
           2385      5.60899e+7 
           2395      5.91192e+7 
           2405      5.79681e+7 
           2415      5.83198e+7 
           2425      5.94022e+7 
           2435      5.75563e+7 
           2445      5.89108e+7 
           2455      5.82594e+7 
           2465      5.71279e+7 
           2475      5.59132e+7 
           2485      5.73053e+7 
           2495      5.61043e+7 
           2505      5.84159e+7 
           2513      5.63385e+7 
           2518      5.60829e+7 
           2525       5.3976e+7 
           2535      5.38137e+7 
           2545      5.37825e+7 
           2555      5.59569e+7 
           2565      5.56045e+7 
           2575      5.70552e+7 
           2585      5.72235e+7 
           2595      5.69344e+7 
           2605      5.56598e+7 
           2615       5.5257e+7 
           2625      5.56022e+7 
           2635      5.59135e+7 
           2645      5.84962e+7 
           2655      5.80511e+7 
           2665      5.62901e+7 
           2675      5.69809e+7 
           2685      5.73673e+7 
           2695      5.61384e+7 
           2705      5.60948e+7 
           2715      5.47879e+7 
           2725      5.47214e+7 
           2735      5.58681e+7 
           2745       5.2492e+7 
           2755      5.26526e+7 
           2765       5.3938e+7 
           2775      5.51546e+7 
           2785      5.45989e+7 
           2795      4.96421e+7 
           2805      5.21856e+7 
           2815      5.54048e+7 
           2825      5.49944e+7 
           2835      5.40072e+7 
           2845      5.32744e+7 
           2855      5.22964e+7 
           2865      5.31345e+7 
           2875      5.27792e+7 
           2885      5.33056e+7 
           2895      5.33785e+7 
           2910      5.42265e+7 
           2930      5.29709e+7 
           2950      5.26317e+7 
           2970      5.25317e+7 
           2990      5.23075e+7 
           3010      5.24422e+7 
           3030      5.21994e+7 
           3050       5.1837e+7 
           3070      5.13796e+7 
           3090      5.13125e+7 
           3110      5.09351e+7 
           3130        5.049e+7 
           3150      5.03331e+7 
           3170      5.01274e+7 
           3190      4.91528e+7 
           3210      4.93356e+7 
           3230      4.87951e+7 
           3250      4.88348e+7 
           3270      4.88312e+7 
           3290       4.8657e+7 
           3310      4.84593e+7 
           3330      4.79333e+7 
           3350       4.7366e+7 
           3370      4.72135e+7 
           3390      4.69203e+7 
           3410      4.69579e+7 
           3430      4.66713e+7 
           3450      4.64198e+7 
           3470      4.61271e+7 
           3490      4.59031e+7 
           3510      4.57392e+7 
           3530      4.55187e+7 
           3550      4.52763e+7 
           3570      4.48827e+7 
           3590      4.46471e+7 
           3610      4.43966e+7 
           3630      4.41718e+7 
           3640      4.40431e+7 
           3650      4.41924e+7 
           3670      4.40924e+7 
           3690      4.28383e+7 
           3710      4.26377e+7 
           3730      4.21383e+7 
           3750      5.07369e+7 
           3770      5.33702e+7 
           3790      6.44191e+7 
           3810      7.63523e+7 
           3830      6.11827e+7 
           3850      8.63587e+7 
           3870      1.00033e+8 
           3890      5.30037e+7 
           3910      1.00929e+8 
           3930      1.13722e+8 
           3950      1.00682e+8 
           3970      5.12619e+7 
           3990      9.47095e+7 
           4010      1.14656e+8 
           4030      1.16921e+8 
           4050      1.14736e+8 
           4070      1.06028e+8 
           4090      7.43973e+7 
           4110      5.63262e+7 
           4130      9.81419e+7 
           4150      1.07322e+8 
           4170      1.08496e+8 
           4190      1.07866e+8 
           4210      1.06697e+8 
           4230      1.05004e+8 
           4250       1.0363e+8 
           4270      1.01467e+8 
           4290      9.83618e+7 
           4310      8.98459e+7 
           4330      6.16787e+7 
           4350      5.24146e+7 
           4370      8.47956e+7 
           4390      9.17364e+7 
           4410      9.28879e+7 
           4430      9.26193e+7 
           4450      9.19104e+7 
           4470      9.08692e+7 
           4490      8.94037e+7 
           4510      8.88347e+7 
           4530      8.78354e+7 
           4550      8.66009e+7 
           4570      8.58356e+7 
           4590      8.46958e+7 
           4610      8.38402e+7 
           4630      8.27027e+7 
           4650      8.18116e+7 
           4670      8.07599e+7 
           4690      7.95931e+7 
           4710       7.8134e+7 
           4730      7.76666e+7 
           4750      7.65948e+7 
           4770      7.53793e+7 
           4790      7.38596e+7 
           4810      7.14099e+7 
           4830      6.57329e+7 
           4850      4.84091e+7 
           4870      3.94363e+7 
           4890      6.10812e+7 
           4910      6.67634e+7 
           4930      6.77403e+7 
           4950      6.78167e+7 
           4970      6.74016e+7 
           4990      6.67716e+7 
           5010      6.59859e+7 
           5030       6.5425e+7 
           5050      6.47601e+7 
           5070      6.41109e+7 
           5090      6.34002e+7 
           5110      6.27086e+7 
           5130      6.20059e+7 
           5150      6.13065e+7 
           5170      6.02735e+7 
           5190      5.97889e+7 
           5210        5.931e+7 
           5230      5.85997e+7 
           5250       5.8057e+7 
           5270      5.73323e+7 
           5290       5.6804e+7 
           5310      5.61605e+7 
           5330      5.55489e+7 
           5350       5.5004e+7 
           5370      5.43939e+7 
           5390      5.38289e+7 
           5410      5.32334e+7 
           5430      5.26963e+7 
           5450      5.21479e+7 
           5470      5.16036e+7 
           5490      5.10733e+7 
           5510      5.05419e+7 
           5530      4.99996e+7 
           5550      4.95004e+7 
           5570      4.89792e+7 
           5590      4.84714e+7 
           5610      4.79792e+7 
           5630      4.74939e+7 
           5650      4.70084e+7 
           5670      4.65274e+7 
           5690      4.60578e+7 
           5710      4.55912e+7 
           5730      4.51347e+7 
           5750      4.46777e+7 
           5770      4.42316e+7 
           5790      4.37883e+7 
           5810      4.33512e+7 
           5830      4.29202e+7 
           5850      4.24929e+7 
           5870       4.2053e+7 
           5890      4.15778e+7 
           5910      4.12473e+7 
           5930      4.08431e+7 
           5950      4.04413e+7 
           5970      4.00482e+7 
           5990      3.96552e+7 
           6010      3.92707e+7 
           6030      3.88915e+7 
           6050      3.85185e+7 
           6070      3.81485e+7 
           6090      3.77815e+7 
           6110      3.74185e+7 
           6130      3.70585e+7 
           6150      3.66864e+7 
           6170      3.63549e+7 
           6190      3.60171e+7 
           6210      3.56771e+7 
           6230      3.53377e+7 
           6250      3.49942e+7 
           6270      3.46813e+7 
           6290      3.43563e+7 
           6310       3.4032e+7 
           6330      3.37176e+7 
           6350      3.33757e+7 
           6370      3.30782e+7 
           6390      3.27506e+7 
           6410      3.23999e+7 
           6430      3.20729e+7 
           6450      3.17104e+7 
           6470      3.13391e+7 
           6490       3.0861e+7 
           6510      3.01489e+7 
           6530      2.86473e+7 
           6550      2.41505e+7 
           6570      1.96382e+7 
           6590      2.66576e+7 
           6610      2.84659e+7 
           6630      2.88498e+7 
           6650      2.88375e+7 
           6670      2.86919e+7 
           6690      2.84971e+7 
           6710      2.82797e+7 
           6730      2.80695e+7 
           6750      2.78521e+7 
           6770       2.7613e+7 
           6790      2.73697e+7 
           6810      2.71304e+7 
           6830       2.6891e+7 
           6850      2.66579e+7 
           6870      2.64255e+7 
           6890      2.61961e+7 
           6910      2.59689e+7 
           6930      2.57439e+7 
           6950      2.55227e+7 
           6970      2.53028e+7 
           6990      2.50857e+7 
           7010      2.48684e+7 
           7030      2.46562e+7 
           7050      2.44475e+7 
           7070      2.42393e+7 
           7090      2.40338e+7 
           7110      2.38123e+7 
           7130      2.36263e+7 
           7150       2.3428e+7 
           7170      2.32315e+7 
           7190      2.30362e+7 
           7210      2.28433e+7 
           7230       2.2653e+7 
           7250      2.24629e+7 
           7270      2.22775e+7 
           7290      2.20909e+7 
           7310      2.19082e+7 
           7330      2.17271e+7 
           7350       2.1549e+7 
           7370      2.13719e+7 
           7390      2.11956e+7 
           7410      2.10203e+7 
           7430      2.08466e+7 
           7450      2.06778e+7 
           7470      2.05044e+7 
           7490        2.034e+7 
           7510      2.01777e+7 
           7530      2.00148e+7 
           7550      1.98548e+7 
           7570      1.96941e+7 
           7590      1.95362e+7 
           7610       1.9379e+7 
           7630      1.92238e+7 
           7650        1.907e+7 
           7670      1.89169e+7 
           7690       1.8767e+7 
           7710      1.86172e+7 
           7730      1.84711e+7 
           7750      1.83245e+7 
           7770       1.8078e+7 
           7790      1.80368e+7 
           7810      1.78952e+7 
           7830      1.77535e+7 
           7850      1.76136e+7 
           7870      1.74707e+7 
           7890      1.73308e+7 
           7910      1.72047e+7 
           7930      1.70713e+7 
           7950      1.69367e+7 
           7970      1.68097e+7 
           7990      1.66695e+7 
           8010      1.65506e+7 
           8030      1.64233e+7 
           8050      1.62976e+7 
           8070      1.61729e+7 
           8090      1.60493e+7 
           8110      1.59267e+7 
           8130      1.58057e+7 
           8150      1.56857e+7 
           8170      1.55667e+7 
           8190      1.54402e+7 
           8210      1.53645e+7 
           8230      1.52549e+7 
           8250      1.51467e+7 
           8270      1.50537e+7 
           8290      1.49499e+7 
           8310      1.48469e+7 
           8330       1.4729e+7 
           8350      1.46396e+7 
           8370      1.45326e+7 
           8390      1.44185e+7 
           8410       1.4302e+7 
           8430      1.41834e+7 
           8450      1.40519e+7 
           8470      1.38607e+7 
           8490      1.38775e+7 
           8510       1.3468e+7 
           8530      1.37254e+7 
           8550      1.29047e+7 
           8570      1.36894e+7 
           8590      1.29227e+7 
           8610      1.26762e+7 
           8630      1.36383e+7 
           8650      1.30517e+7 
           8670      1.13071e+7 
           8690      1.32615e+7 
           8710      1.36566e+7 
           8730      1.30271e+7 
           8750      1.05152e+7 
           8770      1.23433e+7 
           8790      1.34871e+7 
           8810      1.36454e+7 
           8830      1.32188e+7 
           8850       1.1593e+7 
           8870      9.94676e+6 
           8890      1.24018e+7 
           8910      1.32122e+7 
           8930      1.34115e+7 
           8950      1.33497e+7 
           8970      1.29897e+7 
           8990      1.20896e+7 
           9010       9.6419e+6 
           9030      1.04489e+7 
           9050      1.21456e+7 
           9070      1.26421e+7 
           9090      1.27465e+7 
           9110        1.282e+7 
           9130      1.27653e+7 
           9150      1.26191e+7 
           9170      1.23643e+7 
