# Kurucz ODFNEW /NOVER (2003)
# teff = 8000 K (value for the effective temperature for the model. Temperatures are given in K)
# logg = 3 log(cm/s2) (value for Log(G) for the model.)
# meta = 0  (value for the Metallicity for the model.)
# lh = 1.25  (l/Hp where l is the  mixing length of the convective element and Hp is the pressure scale height)
# vtur = 2 km/s (Microturbulence velocity)
# alpha = 0  (Alpha)
#
# column 1: WAVELENGTH (ANGSTROM), Wavelength in Angstrom
# column 2: FLUX (ERG/CM2/S/A), Flux in erg/cm2/s/A
            348     3.02269e-23 
            357     2.68593e-22 
            366     1.87788e-21 
            375     1.18266e-20 
            385     8.22794e-20 
            395     5.17075e-19 
            405     2.95825e-18 
            414     9.92312e-19 
            422     3.30752e-18 
            430     1.05103e-17 
            441     4.79084e-17 
            451     1.77542e-16 
            460     5.47913e-16 
            470     1.81577e-15 
            480     5.70179e-15 
            490     1.70352e-14 
            500     4.85017e-14 
            506     1.17973e-13 
            512     2.40198e-13 
            520     5.14799e-13 
            530     1.29806e-12 
            540     3.09742e-12 
            550     7.25201e-12 
            560     1.63149e-11 
            570     3.55638e-11 
            580     7.43716e-11 
            590     1.54815e-10 
            600     3.10142e-10 
            610     6.06574e-10 
            620      1.15704e-9 
            630      2.15787e-9 
            640      3.93874e-9 
            650      7.04818e-9 
            658      1.10653e-8 
            665       1.6238e-8 
            675      2.77107e-8 
            685      4.64672e-8 
            695      7.66367e-8 
            705      1.23898e-7 
            716      2.08024e-7 
            726      3.27128e-7 
            735      4.85848e-7 
            745      7.44194e-7 
            755      1.12604e-6 
            765      1.68311e-6 
            775      2.48621e-6 
            785      3.63381e-6 
            795      5.20152e-6 
            805      7.47442e-6 
            815      1.06112e-5 
            825      1.48766e-5 
            835      2.06594e-5 
            845      2.84415e-5 
            855      3.88106e-5 
            865      5.25198e-5 
            875        7.029e-5 
            885      9.38908e-5 
            895     0.000124138 
            905     0.000162127 
            915       0.0969829 
            925        0.304928 
            935        0.398084 
            945        0.521796 
            955        0.720806 
            965        0.935487 
            975         1.15909 
            985         1.48207 
            995         1.80704 
           1005         2.40698 
           1015         3.00773 
           1025          3.5456 
           1035         4.58451 
           1045         5.70187 
           1055         7.01012 
           1065         8.39103 
           1075         10.3771 
           1085          12.654 
           1095         14.9856 
           1105         42.8031 
           1115         132.007 
           1125         189.912 
           1135         262.214 
           1145         324.768 
           1155         354.469 
           1165         471.764 
           1175         542.054 
           1185         570.289 
           1195         289.111 
           1205         260.541 
           1215         63.9168 
           1225         298.697 
           1235         731.266 
           1245         1664.83 
           1255         3892.33 
           1265         3883.53 
           1275         6513.18 
           1285         9482.43 
           1295         11761.1 
           1305          9404.6 
           1315         15104.9 
           1325         18229.8 
           1335         19720.6 
           1345         25108.7 
           1355         25697.7 
           1365         27930.8 
           1375         30636.5 
           1385         33444.1 
           1395         38458.4 
           1405         42953.1 
           1415         43591.8 
           1425         49460.7 
           1435         49498.2 
           1442         57365.5 
           1447         62162.4 
           1455         70132.8 
           1465         70570.6 
           1475         77175.3 
           1485         85654.9 
           1495           96922 
           1505          106162 
           1512          106038 
           1517          115797 
           1525          124474 
           1535          402515 
           1545      1.49401e+6 
           1555      1.32192e+6 
           1565      1.12239e+6 
           1575      2.09883e+6 
           1585       2.7144e+6 
           1595      3.39009e+6 
           1605      3.03443e+6 
           1615      3.01069e+6 
           1625      2.65374e+6 
           1635      3.35618e+6 
           1645      5.36967e+6 
           1655       2.7401e+6 
           1665      5.17648e+6 
           1672      1.93716e+6 
           1677      6.71095e+6 
           1685      9.30749e+6 
           1695      8.37098e+6 
           1705      8.78846e+6 
           1715      1.16854e+7 
           1725      1.20552e+7 
           1735      1.47552e+7 
           1745      1.35659e+7 
           1755      1.69723e+7 
           1765      1.18282e+7 
           1775      1.58111e+7 
           1785      1.45254e+7 
           1795      1.95484e+7 
           1805      1.61861e+7 
           1815      1.79031e+7 
           1825      1.52383e+7 
           1835      1.40948e+7 
           1845      1.25059e+7 
           1855      1.44056e+7 
           1865      1.61296e+7 
           1875      1.53858e+7 
           1885      1.58814e+7 
           1895      1.73351e+7 
           1905      1.54895e+7 
           1915       1.6752e+7 
           1925       1.6492e+7 
           1935      1.19592e+7 
           1945      1.79092e+7 
           1955      1.81316e+7 
           1967      1.99499e+7 
           1976      1.94618e+7 
           1984      1.85223e+7 
           1995      1.80119e+7 
           2005      1.68346e+7 
           2015      1.58366e+7 
           2025      1.49033e+7 
           2035      1.71489e+7 
           2045      1.89553e+7 
           2055      1.73573e+7 
           2065      1.64916e+7 
           2074      2.00448e+7 
           2078      2.13208e+7 
           2085      2.02455e+7 
           2095      1.88758e+7 
           2105      1.73077e+7 
           2115      1.77659e+7 
           2125      1.84042e+7 
           2135      1.40362e+7 
           2145      1.72479e+7 
           2155      1.75198e+7 
           2165      1.58497e+7 
           2175      1.57815e+7 
           2185       1.6604e+7 
           2195      1.82695e+7 
           2205      1.73285e+7 
           2215      1.47736e+7 
           2225      1.43208e+7 
           2235        1.769e+7 
           2245      1.56992e+7 
           2255      1.40467e+7 
           2265       1.4238e+7 
           2275      1.58877e+7 
           2285      1.67887e+7 
           2295      1.50662e+7 
           2305      1.57363e+7 
           2315      1.48492e+7 
           2325      1.42513e+7 
           2335      1.14051e+7 
           2345      9.13491e+6 
           2355       1.3805e+7 
           2365      9.36027e+6 
           2375      1.18657e+7 
           2385      7.72702e+6 
           2395      9.74067e+6 
           2405      9.32766e+6 
           2415      1.04268e+7 
           2425      1.40201e+7 
           2435      1.35418e+7 
           2445      1.47326e+7 
           2455      1.45497e+7 
           2465      1.43011e+7 
           2475      1.32183e+7 
           2485      1.36521e+7 
           2495      1.28959e+7 
           2505      1.64391e+7 
           2513      1.29689e+7 
           2518      1.36091e+7 
           2525      1.16695e+7 
           2535      1.09374e+7 
           2545      1.09657e+7 
           2555      1.29777e+7 
           2565      1.20831e+7 
           2575      1.39797e+7 
           2585      1.36722e+7 
           2595      1.28101e+7 
           2605      1.16771e+7 
           2615      1.09071e+7 
           2625      1.37589e+7 
           2635      1.49162e+7 
           2645      1.93146e+7 
           2655      1.96803e+7 
           2665       1.6119e+7 
           2675      1.77766e+7 
           2685      1.74171e+7 
           2695      1.62165e+7 
           2705      1.71981e+7 
           2715      1.53329e+7 
           2725      1.56559e+7 
           2735      1.72721e+7 
           2745      1.16048e+7 
           2755      1.30401e+7 
           2765      1.42507e+7 
           2775      1.69245e+7 
           2785      1.49143e+7 
           2795      6.57442e+6 
           2805      8.50655e+6 
           2815      1.72476e+7 
           2825      1.93533e+7 
           2835      1.82233e+7 
           2845      1.73065e+7 
           2855      1.57883e+7 
           2865      1.84844e+7 
           2875      1.78278e+7 
           2885      1.82358e+7 
           2895       1.7055e+7 
           2910      2.03893e+7 
           2930      1.92492e+7 
           2950      1.90735e+7 
           2970       2.0147e+7 
           2990      2.03613e+7 
           3010      2.09411e+7 
           3030       2.0668e+7 
           3050      2.05943e+7 
           3070      2.08109e+7 
           3090      2.13962e+7 
           3110      2.05945e+7 
           3130      2.04633e+7 
           3150      2.13622e+7 
           3170      2.12574e+7 
           3190      1.98273e+7 
           3210      2.06962e+7 
           3230      1.97618e+7 
           3250       2.0692e+7 
           3270      2.11313e+7 
           3290      2.13593e+7 
           3310      2.18072e+7 
           3330       2.1244e+7 
           3350       2.0982e+7 
           3370      2.07095e+7 
           3390      2.09252e+7 
           3410      2.12749e+7 
           3430      2.15232e+7 
           3450      2.13558e+7 
           3470      2.10336e+7 
           3490      2.09151e+7 
           3510      2.15248e+7 
           3530      2.15249e+7 
           3550      2.20908e+7 
           3570      2.10813e+7 
           3590      2.10035e+7 
           3610      2.11122e+7 
           3630      2.13574e+7 
           3640      2.10042e+7 
           3650      2.19424e+7 
           3670      2.16381e+7 
           3690      2.09532e+7 
           3710      2.39406e+7 
           3730       2.6599e+7 
           3750      3.54856e+7 
           3770      3.85161e+7 
           3790      4.84337e+7 
           3810      5.70462e+7 
           3830      4.43403e+7 
           3850      6.27344e+7 
           3870       7.0708e+7 
           3890      4.00403e+7 
           3910      6.92711e+7 
           3930      5.85184e+7 
           3950       6.8363e+7 
           3970      3.59833e+7 
           3990      6.80262e+7 
           4010      7.48768e+7 
           4030      7.40821e+7 
           4050      7.32949e+7 
           4070       7.0227e+7 
           4090       5.7018e+7 
           4110      4.31189e+7 
           4130      6.70373e+7 
           4150      7.02973e+7 
           4170      6.92195e+7 
           4190      6.85045e+7 
           4210       6.8174e+7 
           4230      6.63623e+7 
           4250      6.63148e+7 
           4270      6.37549e+7 
           4290      6.42529e+7 
           4310      5.92064e+7 
           4330      4.70306e+7 
           4350      3.99018e+7 
           4370      5.98939e+7 
           4390      6.05594e+7 
           4410      5.93799e+7 
           4430      5.89582e+7 
           4450       5.9569e+7 
           4470      5.90126e+7 
           4490      5.83162e+7 
           4510      5.93781e+7 
           4530      5.70375e+7 
           4550       5.5873e+7 
           4570      5.74558e+7 
           4590      5.52396e+7 
           4610      5.63815e+7 
           4630      5.45476e+7 
           4650      5.49191e+7 
           4670      5.44964e+7 
           4690      5.25802e+7 
           4710      5.07285e+7 
           4730      5.25753e+7 
           4750       5.2394e+7 
           4770      5.13793e+7 
           4790      5.08083e+7 
           4810      4.97354e+7 
           4830      4.77789e+7 
           4850      3.77891e+7 
           4870      3.00327e+7 
           4890      4.49121e+7 
           4910      4.67284e+7 
           4930      4.59424e+7 
           4950      4.65375e+7 
           4970       4.6667e+7 
           4990      4.50349e+7 
           5010      4.34693e+7 
           5030      4.43438e+7 
           5050      4.35324e+7 
           5070      4.39957e+7 
           5090      4.33641e+7 
           5110      4.31206e+7 
           5130      4.21752e+7 
           5150        4.129e+7 
           5170      4.03891e+7 
           5190      3.99763e+7 
           5210      3.99781e+7 
           5230      3.94388e+7 
           5250      3.99835e+7 
           5270       3.7764e+7 
           5290      3.90069e+7 
           5310       3.8258e+7 
           5330      3.71811e+7 
           5350      3.80211e+7 
           5370      3.74654e+7 
           5390      3.70141e+7 
           5410      3.62595e+7 
           5430      3.62114e+7 
           5450      3.63114e+7 
           5470      3.58449e+7 
           5490      3.56492e+7 
           5510      3.52755e+7 
           5530       3.4836e+7 
           5550      3.47957e+7 
           5570      3.42415e+7 
           5590      3.38619e+7 
           5610      3.37059e+7 
           5630      3.35762e+7 
           5650      3.31088e+7 
           5670      3.26494e+7 
           5690      3.25739e+7 
           5710      3.22641e+7 
           5730      3.22458e+7 
           5750      3.17598e+7 
           5770      3.15389e+7 
           5790      3.11798e+7 
           5810      3.09443e+7 
           5830      3.07024e+7 
           5850      3.03574e+7 
           5870      3.01083e+7 
           5890      2.94252e+7 
           5910      2.95511e+7 
           5930      2.92857e+7 
           5950      2.89848e+7 
           5970      2.87751e+7 
           5990      2.83901e+7 
           6010      2.80325e+7 
           6030      2.79162e+7 
           6050      2.76826e+7 
           6070      2.75301e+7 
           6090      2.72135e+7 
           6110      2.68994e+7 
           6130      2.64705e+7 
           6150       2.5947e+7 
           6170      2.59463e+7 
           6190      2.60444e+7 
           6210      2.58349e+7 
           6230      2.54781e+7 
           6250      2.48099e+7 
           6270      2.51818e+7 
           6290      2.49619e+7 
           6310      2.45419e+7 
           6330      2.44321e+7 
           6350      2.40449e+7 
           6370      2.38858e+7 
           6390      2.38076e+7 
           6410      2.34373e+7 
           6430      2.33528e+7 
           6450      2.28786e+7 
           6470      2.29156e+7 
           6490      2.24597e+7 
           6510      2.23326e+7 
           6530      2.18126e+7 
           6550      1.91726e+7 
           6570      1.51949e+7 
           6590      2.06729e+7 
           6610      2.13792e+7 
           6630      2.14209e+7 
           6650      2.12923e+7 
           6670      2.11004e+7 
           6690      2.10106e+7 
           6710      2.08354e+7 
           6730       2.0651e+7 
           6750      2.04131e+7 
           6770      2.03666e+7 
           6790       2.0179e+7 
           6810      2.00216e+7 
           6830      1.98052e+7 
           6850      1.96592e+7 
           6870      1.95369e+7 
           6890       1.9384e+7 
           6910      1.92199e+7 
           6930      1.90503e+7 
           6950      1.89065e+7 
           6970      1.87415e+7 
           6990      1.86128e+7 
           7010       1.8335e+7 
           7030      1.82621e+7 
           7050      1.81473e+7 
           7070      1.80184e+7 
           7090      1.78794e+7 
           7110      1.74063e+7 
           7130      1.74926e+7 
           7150      1.73853e+7 
           7170      1.72562e+7 
           7190      1.70904e+7 
           7210      1.69834e+7 
           7230      1.68377e+7 
           7250      1.66897e+7 
           7270      1.66308e+7 
           7290      1.64241e+7 
           7310       1.6309e+7 
           7330      1.62005e+7 
           7350       1.6118e+7 
           7370      1.60147e+7 
           7390      1.58357e+7 
           7410      1.56474e+7 
           7430      1.54944e+7 
           7450      1.54228e+7 
           7470      1.52222e+7 
           7490      1.51692e+7 
           7510      1.50999e+7 
           7530      1.50178e+7 
           7550      1.49529e+7 
           7570      1.48115e+7 
           7590      1.47178e+7 
           7610      1.46055e+7 
           7630      1.44986e+7 
           7650      1.43579e+7 
           7670      1.41998e+7 
           7690      1.41318e+7 
           7710      1.40041e+7 
           7730      1.39582e+7 
           7750      1.38329e+7 
           7770      1.34598e+7 
           7790       1.3667e+7 
           7810      1.35539e+7 
           7830      1.34011e+7 
           7850       1.3262e+7 
           7870      1.31783e+7 
           7890      1.30565e+7 
           7910      1.29761e+7 
           7930      1.28772e+7 
           7950      1.27552e+7 
           7970      1.27862e+7 
           7990      1.25612e+7 
           8010      1.25707e+7 
           8030      1.24603e+7 
           8050      1.23938e+7 
           8070      1.22966e+7 
           8090      1.22042e+7 
           8110      1.21492e+7 
           8130      1.20724e+7 
           8150      1.19838e+7 
           8170      1.18986e+7 
           8190      1.16513e+7 
           8210      1.16153e+7 
           8230        1.153e+7 
           8250      1.14736e+7 
           8270      1.15239e+7 
           8290      1.14322e+7 
           8310      1.13402e+7 
           8330       1.1149e+7 
           8350      1.11788e+7 
           8370      1.10771e+7 
           8390       1.0944e+7 
           8410      1.08553e+7 
           8430      1.08054e+7 
           8450      1.05934e+7 
           8470      1.03397e+7 
           8490      1.07881e+7 
           8510      9.84999e+6 
           8530      1.08321e+7 
           8550      9.10046e+6 
           8570      1.09857e+7 
           8590      1.01003e+7 
           8610       9.7643e+6 
           8630      1.10788e+7 
           8650      1.06606e+7 
           8670      8.46639e+6 
           8690      1.07018e+7 
           8710      1.12094e+7 
           8730      1.07928e+7 
           8750      8.44268e+6 
           8770      1.03248e+7 
           8790      1.11009e+7 
           8810      1.11034e+7 
           8830      1.07387e+7 
           8850      9.73155e+6 
           8870      8.17412e+6 
           8890      1.03663e+7 
           8910      1.07208e+7 
           8930      1.07229e+7 
           8950      1.07626e+7 
           8970      1.05718e+7 
           8990       1.0137e+7 
           9010      8.05944e+6 
           9030      8.92424e+6 
           9050      1.01028e+7 
           9070      1.00423e+7 
           9090      9.92613e+6 
           9110      1.01304e+7 
           9130      1.01467e+7 
           9150      1.01154e+7 
           9170      9.97367e+6 
           9190      9.72869e+6 
           9210      9.08335e+6 
           9230       7.0762e+6 
           9250      8.72273e+6 
           9270      9.23927e+6 
           9290      9.58235e+6 
           9310      9.58339e+6 
           9330      9.51984e+6 
           9350      9.48476e+6 
           9370       9.4353e+6 
           9390      9.30756e+6 
           9410      9.00681e+6 
