# Kurucz ODFNEW /NOVER (2003)
# teff = 22000 K (value for the effective temperature for the model. Temperatures are given in K)
# logg = 4 log(cm/s2) (value for Log(G) for the model.)
# meta = -2  (value for the Metallicity for the model.)
# lh = 1.25  (l/Hp where l is the  mixing length of the convective element and Hp is the pressure scale height)
# vtur = 2 km/s (Microturbulence velocity)
# alpha = 0.4  (Alpha)
#
# column 1: WAVELENGTH (ANGSTROM), Wavelength in Angstrom
# column 2: FLUX (ERG/CM2/S/A), Flux in erg/cm2/s/A
          147.2     6.81832e-18 
            151     4.03711e-17 
          155.2     2.61647e-16 
          158.8     1.20412e-15 
            162     4.42819e-15 
            166     2.10485e-14 
          170.3      1.0377e-13 
          173.4     3.12359e-13 
          176.8     1.00088e-12 
          180.2     3.06922e-12 
          181.7     4.96488e-12 
          186.1     1.94635e-11 
            191     8.27171e-11 
          193.9     1.88048e-10 
          198.4     6.40724e-10 
          201.8      1.55944e-9 
            205      3.50383e-9 
          210.5      1.32769e-8 
          216.2      4.90585e-8 
          219.8      1.08031e-7 
            223      2.13111e-7 
          226.8      4.65318e-7 
            230      2.00585e-6 
            234      4.71751e-6 
            240      1.35119e-5 
          246.5      3.97839e-5 
          252.4     0.000101601 
          256.8     0.000194711 
            260     0.000315996 
            264      0.00055891 
          268.5      0.00103823 
          273.5      0.00201519 
          278.5      0.00382236 
            284      0.00751955 
            290       0.0152515 
            296       0.0299901 
            301        0.051623 
            308         0.10585 
            318        0.286079 
            328        0.717363 
            338          1.7001 
            348         3.82223 
            357         7.60293 
            366         14.6028 
            375         27.0763 
            385         51.8945 
            395         95.9251 
            405         171.654 
            414         282.466 
            422         430.982 
            430         646.023 
            441         1100.43 
            451            1741 
            460          2581.2 
            470         3921.29 
            480         5841.92 
            490         8549.29 
            500         12297.4 
            506         89629.9 
            512          268438 
            520          340492 
            530          487455 
            540          539281 
            550          775490 
            560          945944 
            570       1.1666e+6 
            580      1.19234e+6 
            590      1.59306e+6 
            600      2.00828e+6 
            610      2.40161e+6 
            620       2.8044e+6 
            630      3.30087e+6 
            640       3.7729e+6 
            650      4.40564e+6 
            658       4.9749e+6 
            665      5.45273e+6 
            675      6.13127e+6 
            685      6.95009e+6 
            695      8.04272e+6 
            705      9.00694e+6 
            716      1.02366e+7 
            726      1.14103e+7 
            735      1.26758e+7 
            745      1.41474e+7 
            755      1.56904e+7 
            765      1.72765e+7 
            775       1.9101e+7 
            785      2.09785e+7 
            795       2.2889e+7 
            805      2.50132e+7 
            815      2.71715e+7 
            825      2.95804e+7 
            835      3.15908e+7 
            845      3.44996e+7 
            855      3.70558e+7 
            865      4.00658e+7 
            875      4.30622e+7 
            885      4.62734e+7 
            895      4.94765e+7 
            905      5.21379e+7 
            915      8.76414e+7 
            925      5.88545e+8 
            935      2.11065e+9 
            945      7.61622e+9 
            955     1.16502e+10 
            965     1.54503e+10 
            975      5.49861e+9 
            985     1.81813e+10 
            995     1.77553e+10 
           1005      1.8256e+10 
           1015     1.61399e+10 
           1025      4.38037e+9 
           1035     1.40194e+10 
           1045     1.81647e+10 
           1055     1.77651e+10 
           1065     1.62845e+10 
           1075      1.6971e+10 
           1085     1.58478e+10 
           1095     1.66543e+10 
           1105     1.56563e+10 
           1115     1.55558e+10 
           1125     1.46736e+10 
           1135     1.51689e+10 
           1145     1.42508e+10 
           1155     1.45871e+10 
           1165     1.44058e+10 
           1175     1.26838e+10 
           1185     1.38034e+10 
           1195      1.2583e+10 
           1205     1.00581e+10 
           1215      3.07233e+9 
           1225     1.01391e+10 
           1235      1.2161e+10 
           1245     1.21687e+10 
           1255     1.18784e+10 
           1265     1.16869e+10 
           1275     1.17288e+10 
           1285      1.1482e+10 
           1295     1.03623e+10 
           1305     1.03209e+10 
           1315      1.0827e+10 
           1325     1.04747e+10 
           1335      1.0044e+10 
           1345     1.01241e+10 
           1355     1.00802e+10 
           1365      9.74829e+9 
           1375      9.61159e+9 
           1385      9.50079e+9 
           1395      8.95718e+9 
           1405      8.94215e+9 
           1415      8.94077e+9 
           1425      8.81201e+9 
           1435      8.69402e+9 
           1442      8.64025e+9 
           1447      8.55131e+9 
           1455      8.41696e+9 
           1465       8.2461e+9 
           1475      8.10939e+9 
           1485      7.94878e+9 
           1495      7.81127e+9 
           1505       7.5691e+9 
           1512      7.48023e+9 
           1517       7.4644e+9 
           1525      7.34255e+9 
           1535      7.07084e+9 
           1545      7.05504e+9 
           1555      6.85787e+9 
           1565      6.86649e+9 
           1575      6.80205e+9 
           1585       6.6868e+9 
           1595       6.6001e+9 
           1605      6.40785e+9 
           1615      6.30418e+9 
           1625      6.26336e+9 
           1635      6.19754e+9 
           1645       6.0485e+9 
           1655      5.98883e+9 
           1665      5.92445e+9 
           1672      5.78371e+9 
           1677        5.833e+9 
           1685      5.75386e+9 
           1695      5.63699e+9 
           1705      5.52597e+9 
           1715      5.40215e+9 
           1725      5.33451e+9 
           1735       5.2767e+9 
           1745      5.18806e+9 
           1755      5.14342e+9 
           1765       4.9605e+9 
           1775      4.93932e+9 
           1785      4.88484e+9 
           1795      4.84448e+9 
           1805      4.78274e+9 
           1815      4.68032e+9 
           1825      4.63132e+9 
           1835      4.55927e+9 
           1845      4.40518e+9 
           1855      4.29902e+9 
           1865       4.2799e+9 
           1875      4.28409e+9 
           1885      4.12298e+9 
           1895      3.99943e+9 
           1905      4.05991e+9 
           1915      3.93513e+9 
           1925      3.87086e+9 
           1935      3.87231e+9 
           1945      3.86008e+9 
           1955      3.71276e+9 
           1967      3.74082e+9 
           1976       3.7377e+9 
           1984      3.63976e+9 
           1995      3.54048e+9 
           2005       3.5611e+9 
           2015      3.53883e+9 
           2025      3.51178e+9 
           2035      3.43195e+9 
           2045      3.38676e+9 
           2055      3.29215e+9 
           2065      3.27686e+9 
           2074      3.29394e+9 
           2078      3.22238e+9 
           2085      3.21863e+9 
           2095      3.14497e+9 
           2105      3.14143e+9 
           2115       3.1123e+9 
           2125      3.08809e+9 
           2135      3.04344e+9 
           2145      2.99261e+9 
           2155      2.96701e+9 
           2165      2.93091e+9 
           2175       2.8908e+9 
           2185      2.85761e+9 
           2195      2.82561e+9 
           2205      2.78873e+9 
           2215      2.75424e+9 
           2225      2.71637e+9 
           2235      2.68344e+9 
           2245      2.65458e+9 
           2255      2.61857e+9 
           2265      2.59051e+9 
           2275      2.55847e+9 
           2285      2.52963e+9 
           2295      2.47952e+9 
           2305      2.46763e+9 
           2315      2.43497e+9 
           2325      2.40724e+9 
           2335      2.37215e+9 
           2345      2.34196e+9 
           2355      2.32259e+9 
           2365      2.29194e+9 
           2375        2.266e+9 
           2385      2.23538e+9 
           2395      2.21131e+9 
           2405      2.18638e+9 
           2415      2.15862e+9 
           2425      2.14021e+9 
           2435      2.11288e+9 
           2445      2.08952e+9 
           2455      2.06766e+9 
           2465      2.04267e+9 
           2475      2.01986e+9 
           2485      1.99681e+9 
           2495      1.95124e+9 
           2505      1.95118e+9 
           2513      1.92345e+9 
           2518      1.92098e+9 
           2525      1.90639e+9 
           2535      1.88434e+9 
           2545      1.85624e+9 
           2555       1.8448e+9 
           2565      1.82214e+9 
           2575      1.80609e+9 
           2585      1.78616e+9 
           2595      1.76644e+9 
           2605      1.75967e+9 
           2615      1.74183e+9 
           2625      1.72312e+9 
           2635      1.70019e+9 
           2645      1.68467e+9 
           2655      1.66404e+9 
           2665       1.6424e+9 
           2675      1.62466e+9 
           2685      1.61797e+9 
           2695      1.58793e+9 
           2705      1.58342e+9 
           2715      1.56641e+9 
           2725      1.53703e+9 
           2735      1.53377e+9 
           2745      1.51271e+9 
           2755      1.49813e+9 
           2765      1.47268e+9 
           2775      1.47103e+9 
           2785      1.45529e+9 
           2795      1.41871e+9 
           2805      1.41637e+9 
           2815      1.41122e+9 
           2825      1.38204e+9 
           2835      1.37118e+9 
           2845      1.36812e+9 
           2855      1.35435e+9 
           2865      1.34087e+9 
           2875      1.32723e+9 
           2885      1.31397e+9 
           2895      1.30077e+9 
           2910      1.28117e+9 
           2930      1.25509e+9 
           2950      1.22242e+9 
           2970      1.20708e+9 
           2990      1.18319e+9 
           3010      1.16045e+9 
           3030      1.13841e+9 
           3050       1.1166e+9 
           3070      1.09534e+9 
           3090      1.07383e+9 
           3110      1.05422e+9 
           3130      1.03564e+9 
           3150      1.01627e+9 
           3170      9.97074e+8 
           3190      9.70617e+8 
           3210      9.60497e+8 
           3230      9.42753e+8 
           3250      9.25479e+8 
           3270      9.09789e+8 
           3290      8.92149e+8 
           3310       8.7748e+8 
           3330      8.61841e+8 
           3350      8.45035e+8 
           3370      8.31652e+8 
           3390      8.17081e+8 
           3410      8.02827e+8 
           3430      7.85551e+8 
           3450      7.69284e+8 
           3470      7.58283e+8 
           3490      7.45256e+8 
           3510      7.35167e+8 
           3530      7.23988e+8 
           3550      7.11997e+8 
           3570      7.03391e+8 
           3590      6.87742e+8 
           3610      6.77628e+8 
           3630      6.65121e+8 
           3640      6.63689e+8 
           3650      6.57343e+8 
           3670      6.49387e+8 
           3690      6.34232e+8 
           3710      6.14193e+8 
           3730      5.93462e+8 
           3750      6.39522e+8 
           3770      6.46194e+8 
           3790      6.86627e+8 
           3810      7.20312e+8 
           3830      6.22793e+8 
           3850      7.44817e+8 
           3870      7.52131e+8 
           3890      5.89912e+8 
           3910      7.40862e+8 
           3930      7.30535e+8 
           3950      7.17627e+8 
           3970      5.49023e+8 
           3990      6.88734e+8 
           4010      6.85208e+8 
           4030      6.44765e+8 
           4050      6.70246e+8 
           4070      6.55988e+8 
           4090      6.01169e+8 
           4110      5.19639e+8 
           4130      6.15179e+8 
           4150      6.10686e+8 
           4170      6.05795e+8 
           4190      5.97837e+8 
           4210      5.88323e+8 
           4230      5.78751e+8 
           4250      5.69271e+8 
           4270      5.58909e+8 
           4290      5.50414e+8 
           4310      5.38585e+8 
           4330      4.84412e+8 
           4350      4.39473e+8 
           4370      5.12179e+8 
           4390      4.93565e+8 
           4410      5.00721e+8 
           4430      4.90797e+8 
           4450      4.85691e+8 
           4470      4.56297e+8 
           4490      4.69994e+8 
           4510       4.6376e+8 
           4530      4.56645e+8 
           4550        4.496e+8 
           4570      4.42734e+8 
           4590      4.36184e+8 
           4610       4.2966e+8 
           4630      4.23249e+8 
           4650      4.16497e+8 
           4670      4.10692e+8 
           4690      4.04713e+8 
           4710      3.93336e+8 
           4730      3.92694e+8 
           4750      3.86773e+8 
           4770      3.81566e+8 
           4790      3.76005e+8 
           4810      3.69873e+8 
           4830      3.62488e+8 
           4850      3.32422e+8 
           4870      2.94942e+8 
           4890      3.45849e+8 
           4910      3.43506e+8 
           4930      3.31238e+8 
           4950      3.35101e+8 
           4970      3.30488e+8 
           4990      3.25847e+8 
           5010      3.17157e+8 
           5030      3.16829e+8 
           5050      3.10188e+8 
           5070      3.08156e+8 
           5090      3.03921e+8 
           5110      2.99743e+8 
           5130       2.9565e+8 
           5150      2.91625e+8 
           5170      2.87696e+8 
           5190      2.83819e+8 
           5210      2.79895e+8 
           5230      2.76244e+8 
           5250      2.72557e+8 
           5270      2.68919e+8 
           5290      2.65355e+8 
           5310       2.6185e+8 
           5330       2.5839e+8 
           5350      2.54961e+8 
           5370      2.51668e+8 
           5390      2.48377e+8 
           5410      2.45141e+8 
           5430       2.4192e+8 
           5450      2.38816e+8 
           5470      2.35751e+8 
           5490      2.32737e+8 
           5510       2.2976e+8 
           5530      2.26819e+8 
           5550      2.23952e+8 
           5570      2.21108e+8 
           5590      2.18311e+8 
           5610      2.15549e+8 
           5630      2.12867e+8 
           5650      2.10135e+8 
           5670      2.07531e+8 
           5690      2.04969e+8 
           5710      2.02461e+8 
           5730       1.9996e+8 
           5750      1.97477e+8 
           5770      1.95081e+8 
           5790      1.92691e+8 
           5810       1.9034e+8 
           5830      1.88027e+8 
           5850      1.85742e+8 
           5870      1.77886e+8 
           5890      1.81045e+8 
           5910       1.7911e+8 
           5930      1.76972e+8 
           5950      1.74848e+8 
           5970       1.7278e+8 
           5990      1.70714e+8 
           6010      1.68714e+8 
           6030      1.66727e+8 
           6050      1.64762e+8 
           6070      1.62839e+8 
           6090      1.60928e+8 
           6110      1.59059e+8 
           6130      1.57211e+8 
           6150      1.55383e+8 
           6170      1.53606e+8 
           6190      1.51838e+8 
           6210      1.50099e+8 
           6230       1.4838e+8 
           6250       1.4668e+8 
           6270      1.45017e+8 
           6290      1.43373e+8 
           6310      1.41746e+8 
           6330      1.40156e+8 
           6350      1.38518e+8 
           6370         1.37e+8 
           6390      1.35488e+8 
           6410      1.33975e+8 
           6430      1.32496e+8 
           6450      1.31023e+8 
           6470      1.29567e+8 
           6490      1.28143e+8 
           6510      1.26628e+8 
           6530      1.24696e+8 
           6550      1.18781e+8 
           6570      1.05038e+8 
           6590       1.1986e+8 
           6610      1.19704e+8 
           6630      1.18683e+8 
           6650      1.17493e+8 
           6670      1.15062e+8 
           6690      1.13854e+8 
           6710      1.13753e+8 
           6730      1.12537e+8 
           6750      1.11342e+8 
           6770      1.10168e+8 
           6790      1.08989e+8 
           6810      1.07846e+8 
           6830      1.06714e+8 
           6850      1.05594e+8 
           6870      1.04493e+8 
           6890      1.03396e+8 
           6910      1.02325e+8 
           6930      1.01256e+8 
           6950      1.00214e+8 
           6970      9.91824e+7 
           6990       9.8153e+7 
           7010      9.71491e+7 
           7030       9.6155e+7 
           7050      9.51706e+7 
           7070      9.26808e+7 
           7090      9.32454e+7 
           7110      9.23042e+7 
           7130      9.13647e+7 
           7150       9.0449e+7 
           7170        8.952e+7 
           7190      8.86365e+7 
           7210      8.77541e+7 
           7230      8.67864e+7 
           7250      8.60144e+7 
           7270      8.51568e+7 
           7290       8.3634e+7 
           7310       8.3466e+7 
           7330      8.26606e+7 
           7350      8.18487e+7 
           7370      8.10444e+7 
           7390      8.02477e+7 
           7410      7.94651e+7 
           7430      7.86899e+7 
           7450      7.79421e+7 
           7470      7.71878e+7 
           7490      7.64403e+7 
           7510      7.56731e+7 
           7530      7.49793e+7 
           7550      7.42587e+7 
           7570      7.35447e+7 
           7590      7.28437e+7 
           7610      7.21491e+7 
           7630      7.14672e+7 
           7650      7.07915e+7 
           7670      7.01218e+7 
           7690      6.94581e+7 
           7710      6.88067e+7 
           7730      6.81611e+7 
           7750      6.75212e+7 
           7770       6.6862e+7 
           7790      6.62646e+7 
           7810      6.56045e+7 
           7830      6.50424e+7 
           7850      6.45097e+7 
           7870      6.39085e+7 
           7890      6.32763e+7 
           7910       6.2746e+7 
           7930      6.21723e+7 
           7950      6.15261e+7 
           7970      6.08737e+7 
           7990      6.03333e+7 
           8010       5.9774e+7 
           8030      5.92312e+7 
           8050      5.87164e+7 
           8070       5.8229e+7 
           8090      5.75903e+7 
           8110      5.71594e+7 
           8130      5.67053e+7 
           8150       5.6108e+7 
           8170      5.57151e+7 
           8190        5.514e+7 
           8210      5.45794e+7 
           8230      5.42627e+7 
           8250      5.38029e+7 
           8270      5.30533e+7 
           8290      5.28102e+7 
           8310      5.23692e+7 
           8330      5.18927e+7 
           8350      5.11781e+7 
           8370      5.08919e+7 
           8390      5.05249e+7 
           8410      5.00686e+7 
           8430      4.95599e+7 
           8450      4.88138e+7 
           8470      4.85741e+7 
           8490      4.82007e+7 
           8510      4.75343e+7 
           8530      4.74758e+7 
           8550      4.60625e+7 
           8570      4.73317e+7 
           8590      4.51015e+7 
