# Kurucz ODFNEW /NOVER (2003)
# teff = 8000 K (value for the effective temperature for the model. Temperatures are given in K)
# logg = 3.5 log(cm/s2) (value for Log(G) for the model.)
# meta = 0.2  (value for the Metallicity for the model.)
# lh = 1.25  (l/Hp where l is the  mixing length of the convective element and Hp is the pressure scale height)
# vtur = 2 km/s (Microturbulence velocity)
# alpha = 0.4  (Alpha)
#
# column 1: WAVELENGTH (ANGSTROM), Wavelength in Angstrom
# column 2: FLUX (ERG/CM2/S/A), Flux in erg/cm2/s/A
            338     4.75611e-25 
            348     4.62233e-24 
            357     3.18737e-23 
            366     1.99184e-22 
            375     1.13307e-21 
            385     7.07151e-21 
            395     3.99728e-20 
            405     2.06407e-19 
            414     8.41902e-19 
            422     2.78267e-18 
            430     8.77134e-18 
            441     3.95614e-17 
            451     1.45266e-16 
            460     4.44758e-16 
            470     1.46143e-15 
            480     4.55198e-15 
            490     1.34938e-14 
            500     3.81341e-14 
            506     9.20694e-14 
            512     1.86551e-13 
            520     3.97656e-13 
            530      9.9614e-13 
            540     2.36128e-12 
            550     5.49626e-12 
            560     1.22942e-11 
            570     2.66493e-11 
            580     5.54052e-11 
            590      1.1475e-10 
            600     2.28685e-10 
            610     4.45515e-10 
            620     8.45603e-10 
            630      1.56975e-9 
            640      2.85104e-9 
            650      5.08134e-9 
            658      7.95026e-9 
            665      1.15977e-8 
            675      1.97326e-8 
            685      3.30167e-8 
            695      5.42486e-8 
            705      8.68329e-8 
            716      1.46104e-7 
            726      2.28957e-7 
            735      3.38943e-7 
            745      5.16544e-7 
            755      7.78738e-7 
            765      1.16072e-6 
            775       1.7092e-6 
            785      2.49535e-6 
            795      3.54177e-6 
            805       5.0667e-6 
            815      7.21499e-6 
            825       1.0097e-5 
            835      1.39842e-5 
            845       1.9203e-5 
            855      2.61419e-5 
            865      3.52906e-5 
            875      4.68722e-5 
            885       6.2775e-5 
            895      8.28167e-5 
            905     0.000107675 
            915       0.0541814 
            925        0.159084 
            935        0.208583 
            945        0.277317 
            955        0.381754 
            965        0.498287 
            975        0.622542 
            985        0.794404 
            995        0.981603 
           1005         1.30442 
           1015         1.64617 
           1025         1.98031 
           1035         2.53667 
           1045         3.15504 
           1055          3.9026 
           1065         4.72678 
           1075         5.85913 
           1085         7.18337 
           1095         8.58385 
           1105         26.6899 
           1115         86.5866 
           1125         124.962 
           1135         173.678 
           1145         217.959 
           1155         238.504 
           1165         323.789 
           1175         382.153 
           1185          397.38 
           1195         197.299 
           1205         250.941 
           1215         61.5435 
           1225         293.651 
           1235         636.739 
           1245            1394 
           1255         2901.61 
           1265         2438.04 
           1275         4084.96 
           1285         5487.27 
           1295         6453.05 
           1305         4620.45 
           1315         7725.11 
           1325         9078.41 
           1335         9932.61 
           1345         11814.9 
           1355         12145.9 
           1365         13157.7 
           1375         14282.9 
           1385         15623.2 
           1395         17738.8 
           1405         19593.9 
           1415         20354.6 
           1425         22526.3 
           1435           22744 
           1442         26051.2 
           1447           27597 
           1455         30424.5 
           1465         31084.8 
           1475         33677.7 
           1485           36967 
           1495         41304.9 
           1505           45069 
           1512         45939.6 
           1517         49533.5 
           1525           56512 
           1535         97302.3 
           1545          175879 
           1555          187070 
           1565          184748 
           1575          277221 
           1585          356361 
           1595          442623 
           1605          450725 
           1615          449191 
           1625          405901 
           1635          508380 
           1645          801886 
           1655          458343 
           1665          793323 
           1672          421148 
           1677      1.32783e+6 
           1685       2.4782e+6 
           1695      2.45075e+6 
           1705      4.63294e+6 
           1715        9.064e+6 
           1725       9.5973e+6 
           1735      1.30782e+7 
           1745      1.18666e+7 
           1755       1.5891e+7 
           1765      9.67792e+6 
           1775      1.46178e+7 
           1785      1.35701e+7 
           1795      1.90889e+7 
           1805      1.37196e+7 
           1815       1.5298e+7 
           1825      1.29014e+7 
           1835      1.20821e+7 
           1845      1.04733e+7 
           1855      1.32626e+7 
           1865      1.59011e+7 
           1875      1.46207e+7 
           1885      1.53259e+7 
           1895      1.67654e+7 
           1905      1.45843e+7 
           1915      1.63565e+7 
           1925      1.55119e+7 
           1935       1.0131e+7 
           1945      1.73834e+7 
           1955      1.77738e+7 
           1967      1.99227e+7 
           1976      1.88337e+7 
           1984       1.7682e+7 
           1995      1.76617e+7 
           2005      1.65029e+7 
           2015      1.52131e+7 
           2025       1.4421e+7 
           2035      1.75373e+7 
           2045        1.933e+7 
           2055      1.71637e+7 
           2065      1.69678e+7 
           2074      2.06456e+7 
           2078      2.26147e+7 
           2085      2.12949e+7 
           2095      1.95754e+7 
           2105      1.77592e+7 
           2115      1.83302e+7 
           2125       1.8526e+7 
           2135      1.43064e+7 
           2145      1.81142e+7 
           2155      1.83586e+7 
           2165      1.64131e+7 
           2175      1.65094e+7 
           2185      1.76969e+7 
           2195      1.92907e+7 
           2205      1.80615e+7 
           2215      1.50646e+7 
           2225      1.47644e+7 
           2235      1.84736e+7 
           2245      1.65768e+7 
           2255      1.43853e+7 
           2265      1.45728e+7 
           2275      1.63637e+7 
           2285      1.73984e+7 
           2295      1.52637e+7 
           2305      1.63305e+7 
           2315      1.53743e+7 
           2325       1.4689e+7 
           2335      1.14472e+7 
           2345      8.95336e+6 
           2355      1.39177e+7 
           2365      9.25115e+6 
           2375      1.17989e+7 
           2385      7.54621e+6 
           2395      9.58764e+6 
           2405      9.26578e+6 
           2415      1.03125e+7 
           2425      1.41816e+7 
           2435      1.35513e+7 
           2445      1.49645e+7 
           2455      1.48822e+7 
           2465      1.46222e+7 
           2475       1.3294e+7 
           2485      1.36331e+7 
           2495       1.2856e+7 
           2505      1.67447e+7 
           2513      1.23718e+7 
           2518      1.24546e+7 
           2525      1.04174e+7 
           2535      9.25552e+6 
           2545      9.48538e+6 
           2555       1.2523e+7 
           2565      1.16937e+7 
           2575      1.42166e+7 
           2585      1.41289e+7 
           2595      1.32935e+7 
           2605      1.20069e+7 
           2615      1.11379e+7 
           2625       1.4543e+7 
           2635      1.59124e+7 
           2645      2.07104e+7 
           2655      2.16748e+7 
           2665      1.69597e+7 
           2675      1.92007e+7 
           2685      1.88035e+7 
           2695      1.71631e+7 
           2705      1.85584e+7 
           2715       1.6305e+7 
           2725       1.6598e+7 
           2735      1.83292e+7 
           2745      1.19013e+7 
           2755      1.32957e+7 
           2765      1.44646e+7 
           2775      1.67303e+7 
           2785      1.21244e+7 
           2795      4.26298e+6 
           2805      5.69402e+6 
           2815      1.56074e+7 
           2825      1.98306e+7 
           2835      1.93061e+7 
           2845      1.83365e+7 
           2855      1.57148e+7 
           2865      1.98673e+7 
           2875       1.9273e+7 
           2885      1.95031e+7 
           2895      1.84143e+7 
           2910      2.22476e+7 
           2930      2.06798e+7 
           2950      2.07116e+7 
           2970      2.22149e+7 
           2990      2.22575e+7 
           3010      2.30093e+7 
           3030      2.27267e+7 
           3050      2.25495e+7 
           3070      2.26692e+7 
           3090      2.34826e+7 
           3110      2.25229e+7 
           3130      2.24744e+7 
           3150      2.33119e+7 
           3170       2.3064e+7 
           3190       2.1233e+7 
           3210      2.24255e+7 
           3230      2.09866e+7 
           3250      2.23969e+7 
           3270      2.31103e+7 
           3290      2.32976e+7 
           3310      2.38744e+7 
           3330      2.31221e+7 
           3350      2.26944e+7 
           3370       2.2332e+7 
           3390      2.27714e+7 
           3410      2.31679e+7 
           3430      2.35015e+7 
           3450      2.32814e+7 
           3470      2.29209e+7 
           3490      2.27947e+7 
           3510      2.34821e+7 
           3530      2.33574e+7 
           3550      2.42859e+7 
           3570      2.28289e+7 
           3590      2.27255e+7 
           3610      2.29288e+7 
           3630      2.30954e+7 
           3640       2.2617e+7 
           3650      2.39438e+7 
           3670      2.36682e+7 
           3690      2.26069e+7 
           3710       2.4407e+7 
           3730      2.55733e+7 
           3750      3.25173e+7 
           3770      3.53937e+7 
           3790      4.39698e+7 
           3810      5.15754e+7 
           3830      4.01438e+7 
           3850      5.66473e+7 
           3870       6.4344e+7 
           3890      3.71026e+7 
           3910      6.27385e+7 
           3930      4.46956e+7 
           3950      5.95886e+7 
           3970      3.10306e+7 
           3990      6.23114e+7 
           4010      7.17304e+7 
           4030      7.12823e+7 
           4050      7.04446e+7 
           4070      6.70999e+7 
           4090      5.33697e+7 
           4110      4.07415e+7 
           4130      6.36956e+7 
           4150      6.86305e+7 
           4170      6.75924e+7 
           4190      6.72513e+7 
           4210      6.71537e+7 
           4230      6.50042e+7 
           4250      6.53846e+7 
           4270      6.22548e+7 
           4290      6.23901e+7 
           4310      5.63976e+7 
           4330      4.45692e+7 
           4350      3.79069e+7 
           4370      5.78502e+7 
           4390      5.90523e+7 
           4410      5.82816e+7 
           4430      5.71749e+7 
           4450      5.82868e+7 
           4470      5.84017e+7 
           4490      5.73444e+7 
           4510      5.92336e+7 
           4530      5.61196e+7 
           4550      5.54817e+7 
           4570      5.74143e+7 
           4590      5.48676e+7 
           4610       5.6339e+7 
           4630      5.43595e+7 
           4650      5.47553e+7 
           4670      5.46432e+7 
           4690      5.22514e+7 
           4710      5.00866e+7 
           4730      5.25366e+7 
           4750      5.23522e+7 
           4770      5.12254e+7 
           4790      5.06244e+7 
           4810      4.92143e+7 
           4830      4.71782e+7 
           4850      3.65655e+7 
           4870       2.9078e+7 
           4890      4.40629e+7 
           4910      4.64065e+7 
           4930      4.58928e+7 
           4950      4.68127e+7 
           4970      4.70361e+7 
           4990      4.48896e+7 
           5010      4.28629e+7 
           5030      4.41755e+7 
           5050      4.33965e+7 
           5070      4.42551e+7 
           5090      4.36462e+7 
           5110      4.35447e+7 
           5130      4.24257e+7 
           5150      4.13809e+7 
           5170       4.0554e+7 
           5190      3.99232e+7 
           5210      4.01543e+7 
           5230      3.97886e+7 
           5250      4.03225e+7 
           5270      3.70111e+7 
           5290      3.92977e+7 
           5310      3.86522e+7 
           5330      3.66838e+7 
           5350      3.82409e+7 
           5370      3.79187e+7 
           5390      3.73214e+7 
           5410      3.62711e+7 
           5430       3.6527e+7 
           5450      3.68656e+7 
           5470      3.63183e+7 
           5490      3.58117e+7 
           5510      3.55609e+7 
           5530      3.53164e+7 
           5550       3.5307e+7 
           5570       3.4675e+7 
           5590      3.41307e+7 
           5610       3.4132e+7 
           5630      3.41574e+7 
           5650      3.36068e+7 
           5670      3.28955e+7 
           5690      3.29777e+7 
           5710      3.26107e+7 
           5730      3.29629e+7 
           5750      3.21768e+7 
           5770      3.21216e+7 
           5790      3.17113e+7 
           5810      3.15525e+7 
           5830      3.13597e+7 
           5850      3.09232e+7 
           5870      3.06899e+7 
           5890      2.99606e+7 
           5910      3.01605e+7 
           5930      2.98877e+7 
           5950      2.95371e+7 
           5970      2.93829e+7 
           5990       2.8935e+7 
           6010      2.85081e+7 
           6030      2.83897e+7 
           6050      2.81509e+7 
           6070      2.81722e+7 
           6090      2.77742e+7 
           6110      2.73928e+7 
           6130      2.68214e+7 
           6150      2.61223e+7 
           6170      2.61343e+7 
           6190      2.66392e+7 
           6210       2.6378e+7 
           6230      2.59585e+7 
           6250      2.51195e+7 
           6270      2.57894e+7 
           6290      2.55913e+7 
           6310      2.50405e+7 
           6330      2.49173e+7 
           6350      2.43551e+7 
           6370       2.4298e+7 
           6390      2.43667e+7 
           6410      2.38609e+7 
           6430      2.38795e+7 
           6450      2.31494e+7 
           6470      2.33322e+7 
           6490      2.28595e+7 
           6510      2.27291e+7 
           6530      2.20405e+7 
           6550      1.91568e+7 
           6570       1.5249e+7 
           6590      2.08342e+7 
           6610      2.17732e+7 
           6630      2.19009e+7 
           6650      2.18085e+7 
           6670      2.15941e+7 
           6690      2.15174e+7 
           6710      2.13424e+7 
           6730      2.11276e+7 
           6750      2.07256e+7 
           6770      2.08918e+7 
           6790      2.06742e+7 
           6810      2.05172e+7 
           6830      2.03003e+7 
           6850      2.01337e+7 
           6870       2.0055e+7 
           6890      1.98903e+7 
           6910      1.97209e+7 
           6930      1.95366e+7 
           6950      1.94056e+7 
           6970      1.92177e+7 
           6990      1.91132e+7 
           7010      1.85957e+7 
           7030      1.87325e+7 
           7050      1.86271e+7 
           7070      1.84902e+7 
           7090      1.83605e+7 
           7110       1.7814e+7 
           7130      1.79335e+7 
           7150        1.777e+7 
           7170      1.76131e+7 
           7190      1.74584e+7 
           7210      1.73914e+7 
           7230      1.72319e+7 
           7250      1.69979e+7 
           7270      1.70627e+7 
           7290      1.67764e+7 
           7310      1.67517e+7 
           7330      1.66156e+7 
           7350      1.65573e+7 
           7370      1.64586e+7 
           7390      1.62316e+7 
           7410      1.59795e+7 
           7430      1.58042e+7 
           7450      1.57561e+7 
           7470       1.5603e+7 
           7490      1.55668e+7 
           7510      1.55214e+7 
           7530       1.5437e+7 
           7550      1.53851e+7 
           7570      1.51889e+7 
           7590      1.51377e+7 
           7610      1.49977e+7 
           7630      1.49231e+7 
           7650       1.4737e+7 
           7670      1.45277e+7 
           7690      1.44331e+7 
           7710      1.44097e+7 
           7730       1.4339e+7 
           7750      1.41892e+7 
           7770      1.37543e+7 
           7790      1.40811e+7 
           7810      1.39189e+7 
           7830       1.3768e+7 
           7850      1.35977e+7 
           7870      1.35329e+7 
           7890      1.33748e+7 
           7910      1.33006e+7 
           7930      1.30922e+7 
           7950       1.3008e+7 
           7970      1.31533e+7 
           7990      1.28356e+7 
           8010      1.29307e+7 
           8030      1.27834e+7 
           8050      1.27234e+7 
           8070      1.26356e+7 
           8090      1.25478e+7 
           8110      1.24929e+7 
           8130      1.24372e+7 
           8150      1.23428e+7 
           8170      1.22536e+7 
           8190      1.19484e+7 
           8210      1.18316e+7 
           8230      1.17636e+7 
           8250      1.17515e+7 
           8270      1.18699e+7 
           8290      1.17633e+7 
           8310      1.16157e+7 
           8330      1.14687e+7 
           8350      1.14933e+7 
           8370      1.14513e+7 
           8390      1.13085e+7 
           8410       1.1242e+7 
           8430      1.11177e+7 
           8450       1.0833e+7 
           8470      1.07729e+7 
           8490       1.0912e+7 
           8510      1.01241e+7 
           8530      1.08554e+7 
           8550      9.03914e+6 
           8570      1.10329e+7 
           8590      1.02387e+7 
           8610      9.93403e+6 
           8630      1.10332e+7 
           8650      1.05745e+7 
           8670      8.35863e+6 
           8690      1.05003e+7 
           8710      1.11091e+7 
           8730       1.0643e+7 
           8750      8.47072e+6 
           8770       1.0242e+7 
           8790      1.10141e+7 
           8810      1.10481e+7 
           8830      1.06391e+7 
           8850      9.61755e+6 
           8870      8.14827e+6 
           8890      1.02143e+7 
           8910       1.0671e+7 
           8930      1.06748e+7 
           8950      1.07865e+7 
           8970      1.05344e+7 
           8990      1.00456e+7 
           9010      8.00746e+6 
           9030      8.81428e+6 
           9050       1.0049e+7 
           9070      1.00478e+7 
           9090      9.94072e+6 
           9110      1.01522e+7 
           9130      1.02081e+7 
           9150       1.0187e+7 
           9170      1.00203e+7 
           9190      9.72913e+6 
           9210       8.9812e+6 
           9230      7.02181e+6 
           9250      8.57303e+6 
           9270      9.14195e+6 
           9290      9.63735e+6 
           9310      9.66293e+6 
           9330      9.57697e+6 
           9350      9.57956e+6 
           9370      9.54558e+6 
