# Kurucz ODFNEW /NOVER (2003)
# teff = 24000 K (value for the effective temperature for the model. Temperatures are given in K)
# logg = 4.5 log(cm/s2) (value for Log(G) for the model.)
# meta = -2.5  (value for the Metallicity for the model.)
# lh = 1.25  (l/Hp where l is the  mixing length of the convective element and Hp is the pressure scale height)
# vtur = 2 km/s (Microturbulence velocity)
# alpha = 0.4  (Alpha)
#
# column 1: WAVELENGTH (ANGSTROM), Wavelength in Angstrom
# column 2: FLUX (ERG/CM2/S/A), Flux in erg/cm2/s/A
          147.2        1.92e-15 
            151     1.00832e-14 
          155.2     5.74782e-14 
          158.8     2.37683e-13 
            162     7.96753e-13 
            166      3.3849e-12 
          170.3     1.48512e-11 
          173.4     4.11968e-11 
          176.8     1.21016e-10 
          180.2     3.41042e-10 
          181.7      5.3193e-10 
          186.1      1.87869e-9 
            191      7.14145e-9 
          193.9      1.52326e-8 
          198.4      4.71656e-8 
          201.8      1.07034e-7 
            205      2.25598e-7 
          210.5      7.69047e-7 
          216.2       2.5596e-6 
          219.8      5.28974e-6 
            223       9.8794e-6 
          226.8      2.02499e-5 
            230      8.30799e-5 
            234     0.000184698 
            240     0.000484365 
          246.5      0.00130319 
          252.4      0.00307991 
          256.8      0.00556832 
            260        0.008701 
            264       0.0146592 
          268.5       0.0258299 
          273.5       0.0473668 
          278.5       0.0850288 
            284        0.157776 
            290        0.301003 
            296        0.558068 
            301         0.91595 
            308         1.75883 
            318         4.36731 
            328         10.0976 
            338         22.1492 
            348          46.301 
            357         86.5346 
            366         156.602 
            375         274.514 
            385         495.613 
            395         865.735 
            405         1467.85 
            414         2305.49 
            422         3381.77 
            430         4880.98 
            441         7903.76 
            451         11969.5 
            460         17089.6 
            470         24938.5 
            480         35750.1 
            490         50418.4 
            500         69991.8 
            506          415757 
            512       1.3178e+6 
            520      1.63287e+6 
            530      2.25689e+6 
            540      2.43582e+6 
            550      3.32854e+6 
            560       3.9338e+6 
            570      4.69619e+6 
            580      4.77497e+6 
            590      6.14867e+6 
            600      7.45704e+6 
            610      8.64929e+6 
            620      9.89356e+6 
            630      1.13465e+7 
            640      1.27744e+7 
            650      1.45957e+7 
            658      1.61041e+7 
            665      1.74579e+7 
            675      1.93605e+7 
            685      2.15098e+7 
            695      2.43216e+7 
            705      2.68253e+7 
            716      2.98911e+7 
            726      3.28515e+7 
            735      3.59627e+7 
            745      3.94265e+7 
            755      4.30504e+7 
            765      4.67969e+7 
            775      5.09009e+7 
            785      5.51316e+7 
            795      5.94678e+7 
            805      6.41287e+7 
            815      6.89057e+7 
            825      7.39926e+7 
            835      7.82772e+7 
            845      8.45343e+7 
            855      8.99121e+7 
            865      9.59717e+7 
            875      1.02008e+8 
            885      1.08273e+8 
            895      1.14619e+8 
            905      1.20104e+8 
            915      1.79904e+8 
            925      9.89788e+8 
            935      3.02254e+9 
            945     1.10784e+10 
            955     1.79408e+10 
            965     2.45167e+10 
            975      9.25115e+9 
            985     3.03686e+10 
            995     2.98518e+10 
           1005     3.06852e+10 
           1015     2.60629e+10 
           1025      6.39163e+9 
           1035     2.30027e+10 
           1045     2.90189e+10 
           1055     2.86027e+10 
           1065     2.68571e+10 
           1075     2.71235e+10 
           1085     2.52303e+10 
           1095     2.62797e+10 
           1105     2.50651e+10 
           1115     2.45957e+10 
           1125     2.33201e+10 
           1135     2.36374e+10 
           1145     2.25533e+10 
           1155     2.25785e+10 
           1165     2.21157e+10 
           1175      1.9831e+10 
           1185     2.09443e+10 
           1195     1.93466e+10 
           1205     1.59536e+10 
           1215      4.49888e+9 
           1225     1.51191e+10 
           1235     1.82194e+10 
           1245     1.81296e+10 
           1255     1.78703e+10 
           1265     1.74043e+10 
           1275     1.73315e+10 
           1285      1.6956e+10 
           1295     1.57977e+10 
           1305      1.5714e+10 
           1315     1.58814e+10 
           1325     1.53722e+10 
           1335     1.48576e+10 
           1345     1.48389e+10 
           1355     1.46268e+10 
           1365     1.42349e+10 
           1375     1.39906e+10 
           1385      1.3736e+10 
           1395     1.31244e+10 
           1405      1.2963e+10 
           1415     1.28779e+10 
           1425     1.26637e+10 
           1435     1.24289e+10 
           1442      1.2286e+10 
           1447     1.21615e+10 
           1455     1.19694e+10 
           1465     1.17302e+10 
           1475     1.15106e+10 
           1485     1.12855e+10 
           1495     1.10729e+10 
           1505      1.0786e+10 
           1512     1.06821e+10 
           1517     1.05982e+10 
           1525      1.0428e+10 
           1535     1.01349e+10 
           1545      9.98599e+9 
           1555      9.76838e+9 
           1565      9.68916e+9 
           1575       9.5366e+9 
           1585      9.36491e+9 
           1595      9.20816e+9 
           1605       8.9819e+9 
           1615      8.82103e+9 
           1625      8.71951e+9 
           1635      8.57808e+9 
           1645      8.32946e+9 
           1655      8.28838e+9 
           1665      8.15664e+9 
           1672      8.02313e+9 
           1677      8.00255e+9 
           1685      7.89119e+9 
           1695      7.74721e+9 
           1705      7.60852e+9 
           1715      7.46433e+9 
           1725      7.34702e+9 
           1735      7.23917e+9 
           1745      7.11722e+9 
           1755      7.01433e+9 
           1765      6.83724e+9 
           1775      6.76316e+9 
           1785      6.66667e+9 
           1795      6.57646e+9 
           1805       6.4772e+9 
           1815      6.36348e+9 
           1825      6.26916e+9 
           1835      6.17036e+9 
           1845      6.03095e+9 
           1855      5.87391e+9 
           1865      5.81001e+9 
           1875      5.78646e+9 
           1885      5.64401e+9 
           1895      5.50686e+9 
           1905      5.50609e+9 
           1915      5.36326e+9 
           1925      5.28339e+9 
           1935      5.23888e+9 
           1945      5.19282e+9 
           1955      5.05457e+9 
           1967      5.02716e+9 
           1976      4.98186e+9 
           1984      4.89267e+9 
           1995      4.77554e+9 
           2005      4.76541e+9 
           2015      4.71006e+9 
           2025      4.65089e+9 
           2035      4.57172e+9 
           2045      4.50649e+9 
           2055      4.40145e+9 
           2065      4.34506e+9 
           2074      4.33327e+9 
           2078      4.26382e+9 
           2085      4.25898e+9 
           2095      4.17919e+9 
           2105      4.14766e+9 
           2115      4.09876e+9 
           2125      4.04859e+9 
           2135      3.99158e+9 
           2145      3.93398e+9 
           2155       3.8849e+9 
           2165      3.83374e+9 
           2175      3.78121e+9 
           2185      3.73208e+9 
           2195      3.68392e+9 
           2205      3.63485e+9 
           2215      3.58729e+9 
           2225      3.53914e+9 
           2235      3.49298e+9 
           2245      3.44885e+9 
           2255      3.40307e+9 
           2265      3.36046e+9 
           2275      3.31715e+9 
           2285      3.27526e+9 
           2295      3.21603e+9 
           2305      3.19194e+9 
           2315      3.15093e+9 
           2325      3.11154e+9 
           2335      3.07065e+9 
           2345      3.03218e+9 
           2355      2.99643e+9 
           2365      2.95862e+9 
           2375      2.92193e+9 
           2385      2.88503e+9 
           2395      2.84989e+9 
           2405      2.81543e+9 
           2415      2.78021e+9 
           2425      2.74804e+9 
           2435      2.71414e+9 
           2445      2.68152e+9 
           2455      2.64991e+9 
           2465      2.61773e+9 
           2475      2.58653e+9 
           2485      2.55563e+9 
           2495      2.50256e+9 
           2505      2.49505e+9 
           2513      2.46702e+9 
           2518       2.4564e+9 
           2525      2.43659e+9 
           2535      2.40791e+9 
           2545      2.37606e+9 
           2555       2.3523e+9 
           2565      2.32483e+9 
           2575      2.29903e+9 
           2585      2.27265e+9 
           2595      2.24655e+9 
           2605      2.23811e+9 
           2615      2.21281e+9 
           2625      2.18757e+9 
           2635      2.15938e+9 
           2645      2.13463e+9 
           2655      2.10725e+9 
           2665      2.07884e+9 
           2675      2.05301e+9 
           2685      2.04438e+9 
           2695      2.00491e+9 
           2705      1.99902e+9 
           2715      1.97681e+9 
           2725      1.93752e+9 
           2735       1.9334e+9 
           2745      1.91109e+9 
           2755      1.89049e+9 
           2765      1.85309e+9 
           2775      1.85047e+9 
           2785      1.83026e+9 
           2795      1.79693e+9 
           2805      1.78639e+9 
           2815      1.77187e+9 
           2825      1.73183e+9 
           2835      1.72188e+9 
           2845      1.71571e+9 
           2855      1.69752e+9 
           2865      1.67954e+9 
           2875      1.66181e+9 
           2885      1.64438e+9 
           2895      1.62711e+9 
           2910      1.60161e+9 
           2930      1.56828e+9 
           2950      1.52376e+9 
           2970      1.50488e+9 
           2990      1.47416e+9 
           3010      1.44445e+9 
           3030      1.41551e+9 
           3050      1.38725e+9 
           3070      1.35968e+9 
           3090      1.33247e+9 
           3110      1.30662e+9 
           3130      1.28255e+9 
           3150      1.25763e+9 
           3170      1.23288e+9 
           3190      1.19804e+9 
           3210      1.18571e+9 
           3230      1.16288e+9 
           3250      1.14059e+9 
           3270      1.12051e+9 
           3290      1.09784e+9 
           3310      1.07908e+9 
           3330      1.05909e+9 
           3350      1.03752e+9 
           3370      1.02047e+9 
           3390      1.00187e+9 
           3410      9.83674e+8 
           3430      9.61541e+8 
           3450      9.40739e+8 
           3470      9.26766e+8 
           3490      9.10205e+8 
           3510      8.96193e+8 
           3530      8.82408e+8 
           3550      8.67083e+8 
           3570      8.57099e+8 
           3590      8.36322e+8 
           3610      8.24508e+8 
           3630      8.07872e+8 
           3640      8.06908e+8 
           3650      7.98647e+8 
           3670      7.88707e+8 
           3690      7.73762e+8 
           3710      7.46884e+8 
           3730      7.14906e+8 
           3750      7.36662e+8 
           3770       7.3385e+8 
           3790      7.80284e+8 
           3810      8.19425e+8 
           3830      7.05824e+8 
           3850      8.50904e+8 
           3870       8.6794e+8 
           3890      6.64849e+8 
           3910      8.55472e+8 
           3930      8.50714e+8 
           3950        8.293e+8 
           3970      6.19034e+8 
           3990       7.9328e+8 
           4010      7.95555e+8 
           4030      7.41726e+8 
           4050      7.79803e+8 
           4070      7.62106e+8 
           4090      6.84541e+8 
           4110      5.89088e+8 
           4130      7.12294e+8 
           4150      7.08704e+8 
           4170      7.04587e+8 
           4190      6.95216e+8 
           4210       6.8378e+8 
           4230      6.72466e+8 
           4250      6.61313e+8 
           4270      6.49801e+8 
           4290      6.37882e+8 
           4310      6.22606e+8 
           4330      5.49253e+8 
           4350      4.97627e+8 
           4370      5.90614e+8 
           4390      5.67554e+8 
           4410      5.79619e+8 
           4430      5.68197e+8 
           4450      5.62017e+8 
           4470      5.22363e+8 
           4490      5.43732e+8 
           4510      5.36383e+8 
           4530      5.28041e+8 
           4550      5.19806e+8 
           4570      5.11766e+8 
           4590      5.03955e+8 
           4610      4.96276e+8 
           4630      4.88729e+8 
           4650      4.81067e+8 
           4670      4.74002e+8 
           4690      4.66833e+8 
           4710      4.53214e+8 
           4730      4.52977e+8 
           4750      4.46181e+8 
           4770      4.39699e+8 
           4790       4.3303e+8 
           4810      4.25333e+8 
           4830      4.15762e+8 
           4850      3.75024e+8 
           4870      3.32064e+8 
           4890      3.95492e+8 
           4910      3.94214e+8 
           4930      3.78513e+8 
           4950       3.8527e+8 
           4970      3.79842e+8 
           4990      3.74443e+8 
           5010       3.6388e+8 
           5030      3.63896e+8 
           5050      3.56248e+8 
           5070      3.53765e+8 
           5090      3.48824e+8 
           5110      3.43963e+8 
           5130      3.39197e+8 
           5150      3.34493e+8 
           5170      3.29895e+8 
           5190      3.25371e+8 
           5210      3.20893e+8 
           5230      3.16543e+8 
           5250      3.12236e+8 
           5270      3.08012e+8 
           5290      3.03857e+8 
           5310      2.99782e+8 
           5330      2.95759e+8 
           5350      2.91802e+8 
           5370      2.87934e+8 
           5390      2.84115e+8 
           5410      2.80358e+8 
           5430      2.76661e+8 
           5450      2.73036e+8 
           5470      2.69469e+8 
           5490       2.6596e+8 
           5510      2.62494e+8 
           5530      2.59095e+8 
           5550      2.55752e+8 
           5570      2.52461e+8 
           5590      2.49223e+8 
           5610      2.46037e+8 
           5630      2.42901e+8 
           5650      2.39804e+8 
           5670      2.36779e+8 
           5690       2.3378e+8 
           5710      2.30851e+8 
           5730      2.27957e+8 
           5750      2.25109e+8 
           5770      2.22306e+8 
           5790      2.19548e+8 
           5810      2.16834e+8 
           5830      2.14152e+8 
           5850      2.11523e+8 
           5870      2.01534e+8 
           5890      2.05924e+8 
           5910      2.03863e+8 
           5930      2.01387e+8 
           5950       1.9895e+8 
           5970      1.96541e+8 
           5990      1.94181e+8 
           6010      1.91848e+8 
           6030      1.89562e+8 
           6050      1.87302e+8 
           6070      1.85078e+8 
           6090      1.82879e+8 
           6110      1.80725e+8 
           6130      1.78595e+8 
           6150      1.76499e+8 
           6170      1.74437e+8 
           6190      1.72397e+8 
           6210      1.70389e+8 
           6230      1.68414e+8 
           6250       1.6647e+8 
           6270      1.64547e+8 
           6290      1.62655e+8 
           6310      1.60793e+8 
           6330       1.5896e+8 
           6350      1.57129e+8 
           6370      1.55355e+8 
           6390        1.536e+8 
           6410      1.51863e+8 
           6430      1.50155e+8 
           6450      1.48464e+8 
           6470      1.46801e+8 
           6490      1.45164e+8 
           6510      1.43207e+8 
           6530      1.40864e+8 
           6550      1.32936e+8 
           6570       1.1716e+8 
           6590      1.35092e+8 
           6610      1.35259e+8 
           6630      1.34221e+8 
           6650      1.32938e+8 
           6670      1.29881e+8 
           6690      1.28508e+8 
           6710      1.28647e+8 
           6730       1.2726e+8 
           6750      1.25887e+8 
           6770      1.24536e+8 
           6790      1.23198e+8 
           6810      1.21883e+8 
           6830      1.20589e+8 
           6850      1.19307e+8 
           6870      1.18039e+8 
           6890      1.16791e+8 
           6910      1.15564e+8 
           6930      1.14349e+8 
           6950      1.13153e+8 
           6970       1.1197e+8 
           6990      1.10798e+8 
           7010      1.09645e+8 
           7030      1.08512e+8 
           7050      1.07389e+8 
           7070      1.04416e+8 
           7090      1.05184e+8 
           7110      1.04109e+8 
           7130      1.03044e+8 
           7150      1.01989e+8 
           7170       1.0093e+8 
           7190      9.99246e+7 
           7210      9.89145e+7 
           7230      9.78779e+7 
           7250      9.69229e+7 
           7270      9.59485e+7 
           7290      9.41467e+7 
           7310      9.40271e+7 
           7330       9.3101e+7 
           7350      9.21766e+7 
           7370      9.12608e+7 
           7390      9.03605e+7 
           7410      8.94686e+7 
           7430       8.8585e+7 
           7450      8.77299e+7 
           7470      8.68692e+7 
           7490      8.60164e+7 
           7510      8.51447e+7 
           7530      8.43475e+7 
           7550      8.35311e+7 
           7570      8.27222e+7 
           7590      8.19206e+7 
           7610      8.11328e+7 
           7630      8.03521e+7 
           7650      7.95849e+7 
           7670      7.88246e+7 
           7690      7.80711e+7 
           7710      7.73243e+7 
           7730      7.65906e+7 
           7750      7.58633e+7 
           7770      7.51426e+7 
           7790      7.44406e+7 
           7810      7.36955e+7 
           7830      7.30491e+7 
           7850       7.2445e+7 
           7870      7.17671e+7 
           7890      7.10527e+7 
           7910       7.0441e+7 
           7930      6.97866e+7 
           7950      6.91021e+7 
           7970      6.83287e+7 
           7990      6.77156e+7 
           8010      6.70725e+7 
           8030      6.64526e+7 
           8050      6.58437e+7 
           8070      6.52574e+7 
           8090      6.45898e+7 
           8110      6.40998e+7 
           8130      6.35511e+7 
           8150      6.29107e+7 
           8170      6.24337e+7 
           8190      6.17978e+7 
           8210      6.11729e+7 
           8230      6.08036e+7 
           8250      6.02767e+7 
           8270      5.94402e+7 
           8290      5.91702e+7 
           8310      5.86784e+7 
           8330      5.81255e+7 
           8350      5.73125e+7 
           8370       5.7012e+7 
           8390      5.66014e+7 
           8410      5.61035e+7 
           8430      5.55566e+7 
           8450      5.46766e+7 
           8470      5.45552e+7 
           8490      5.39536e+7 
           8510       5.3487e+7 
           8530      5.30138e+7 
           8550      5.21064e+7 
           8570      5.26124e+7 
