# Kurucz ODFNEW /NOVER (2003)
# teff = 19000 K (value for the effective temperature for the model. Temperatures are given in K)
# logg = 3.5 log(cm/s2) (value for Log(G) for the model.)
# meta = -0.5  (value for the Metallicity for the model.)
# lh = 1.25  (l/Hp where l is the  mixing length of the convective element and Hp is the pressure scale height)
# vtur = 2 km/s (Microturbulence velocity)
# alpha = 0  (Alpha)
#
# column 1: WAVELENGTH (ANGSTROM), Wavelength in Angstrom
# column 2: FLUX (ERG/CM2/S/A), Flux in erg/cm2/s/A
          147.2     2.00797e-21 
            151     1.34468e-20 
          155.2     9.86342e-20 
          158.8      5.0166e-19 
            162     2.01212e-18 
            166     1.06383e-17 
          170.3     5.86447e-17 
          173.4     1.91136e-16 
          176.8     6.67473e-16 
          180.2      2.2281e-15 
          181.7     3.73935e-15 
          186.1     1.63339e-14 
            191     7.81558e-14 
          193.9     1.90262e-13 
          198.4     7.19989e-13 
          201.8     1.89636e-12 
            205       4.587e-12 
          210.5     1.96398e-11 
          216.2     8.21766e-11 
          219.8     1.95461e-10 
            223     4.12343e-10 
          226.8     9.73422e-10 
            230      5.88481e-9 
            234      1.55601e-8 
            240      5.09448e-8 
          246.5      1.71308e-7 
          252.4      4.90378e-7 
          256.8      1.02034e-6 
            260      1.76121e-6 
            264      3.34892e-6 
          268.5      6.73117e-6 
          273.5      1.42191e-5 
          278.5      2.93006e-5 
            284      6.30093e-5 
            290      0.00014012 
            296     0.000300997 
            301     0.000556605 
            308      0.00125527 
            318      0.00387965 
            328       0.0109765 
            338       0.0293419 
            348       0.0736947 
            357         0.16199 
            366        0.341643 
            375        0.688708 
            385         1.44635 
            395         2.91387 
            405         5.66363 
            414         10.0117 
            422          16.207 
            430         25.7007 
            441         47.3931 
            451         80.2185 
            460         125.902 
            470         203.577 
            480         321.626 
            490         498.629 
            500         757.708 
            506         6442.64 
            512         26573.6 
            520         34844.7 
            530           51802 
            540         60235.4 
            550         93279.4 
            560          117902 
            570          155133 
            580          160424 
            590          226232 
            600          297784 
            610          377519 
            620          453085 
            630          551473 
            640          633432 
            650          720868 
            658          903443 
            665      1.00072e+6 
            675      1.14427e+6 
            685      1.32619e+6 
            695      1.60823e+6 
            705      1.83603e+6 
            716      2.15042e+6 
            726      2.43016e+6 
            735      2.72304e+6 
            745      3.16384e+6 
            755       3.5951e+6 
            765      4.06113e+6 
            775      4.59194e+6 
            785      5.16292e+6 
            795      5.69656e+6 
            805      6.31288e+6 
            815      6.91722e+6 
            825      7.74796e+6 
            835      8.26376e+6 
            845      9.16623e+6 
            855      1.00219e+7 
            865      1.10336e+7 
            875       1.2169e+7 
            885      1.34011e+7 
            895      1.45326e+7 
            905      1.52504e+7 
            915      2.76198e+7 
            925      1.86893e+8 
            935      7.49257e+8 
            945      2.51651e+9 
            955      4.12887e+9 
            965      5.27901e+9 
            975      9.50398e+8 
            985      5.83989e+9 
            995      5.69228e+9 
           1005      6.59969e+9 
           1015      6.14922e+9 
           1025      1.71188e+9 
           1035      4.15335e+9 
           1045      7.65067e+9 
           1055      7.24942e+9 
           1065       6.1208e+9 
           1075      7.14519e+9 
           1085      6.30173e+9 
           1095      7.18504e+9 
           1105      6.41538e+9 
           1115      6.22173e+9 
           1125      5.68238e+9 
           1135      6.88142e+9 
           1145      6.23043e+9 
           1155      6.49663e+9 
           1165      6.71033e+9 
           1175      5.11492e+9 
           1185      6.71002e+9 
           1195      5.26779e+9 
           1205      3.15752e+9 
           1215      1.30294e+9 
           1225      4.54874e+9 
           1235      6.15127e+9 
           1245      6.38194e+9 
           1255      6.20194e+9 
           1265      5.82601e+9 
           1275      6.17251e+9 
           1285       6.1569e+9 
           1295       4.4807e+9 
           1305      4.43441e+9 
           1315      5.90031e+9 
           1325      5.58713e+9 
           1335       5.0182e+9 
           1345       5.5811e+9 
           1355      5.46927e+9 
           1365       5.0449e+9 
           1375      5.03415e+9 
           1385        5.077e+9 
           1395      4.48159e+9 
           1405      4.70028e+9 
           1415      4.67566e+9 
           1425      4.70118e+9 
           1435      4.73577e+9 
           1442      4.83883e+9 
           1447      4.74859e+9 
           1455      4.65078e+9 
           1465      4.40759e+9 
           1475      4.38162e+9 
           1485      4.29479e+9 
           1495      4.24865e+9 
           1505      4.01125e+9 
           1512      3.65418e+9 
           1517       3.7899e+9 
           1525      3.85554e+9 
           1535      3.49896e+9 
           1545      3.58607e+9 
           1555      3.40362e+9 
           1565      3.49162e+9 
           1575        3.633e+9 
           1585       3.6164e+9 
           1595       3.6445e+9 
           1605      3.56573e+9 
           1615       3.5363e+9 
           1625      3.42999e+9 
           1635      3.54319e+9 
           1645      3.50748e+9 
           1655      3.35037e+9 
           1665      3.52401e+9 
           1672      3.38298e+9 
           1677      3.46545e+9 
           1685      3.46752e+9 
           1695      3.31133e+9 
           1705       3.1723e+9 
           1715      3.02795e+9 
           1725        2.997e+9 
           1735      3.09984e+9 
           1745      3.00119e+9 
           1755      3.07056e+9 
           1765      2.88555e+9 
           1775      2.88123e+9 
           1785      2.88805e+9 
           1795      2.96202e+9 
           1805      2.95322e+9 
           1815      2.72064e+9 
           1825      2.80368e+9 
           1835      2.70887e+9 
           1845      2.51823e+9 
           1855      2.44232e+9 
           1865      2.48476e+9 
           1875      2.63289e+9 
           1885      2.39372e+9 
           1895      2.25029e+9 
           1905      2.41566e+9 
           1915      2.28684e+9 
           1925      2.21821e+9 
           1935      2.30008e+9 
           1945      2.33405e+9 
           1955      2.15913e+9 
           1967      2.30492e+9 
           1976      2.37785e+9 
           1984      2.22625e+9 
           1995      2.16845e+9 
           2005      2.22138e+9 
           2015        2.185e+9 
           2025      2.25966e+9 
           2035      2.10251e+9 
           2045      2.12028e+9 
           2055      2.05269e+9 
           2065       2.0765e+9 
           2074      2.15599e+9 
           2078      2.00645e+9 
           2085      2.06961e+9 
           2095      1.96844e+9 
           2105       2.0059e+9 
           2115      1.99826e+9 
           2125      2.02788e+9 
           2135      1.97686e+9 
           2145       1.9019e+9 
           2155      1.95932e+9 
           2165      1.92945e+9 
           2175      1.90578e+9 
           2185      1.86312e+9 
           2195      1.88387e+9 
           2205      1.84745e+9 
           2215      1.81192e+9 
           2225      1.76219e+9 
           2235      1.78092e+9 
           2245      1.76883e+9 
           2255      1.71354e+9 
           2265      1.73332e+9 
           2275      1.71797e+9 
           2285      1.71978e+9 
           2295      1.65533e+9 
           2305      1.65787e+9 
           2315      1.61715e+9 
           2325      1.60097e+9 
           2335      1.54728e+9 
           2345      1.52226e+9 
           2355      1.54101e+9 
           2365        1.501e+9 
           2375       1.4984e+9 
           2385      1.46229e+9 
           2395      1.48077e+9 
           2405       1.4421e+9 
           2415      1.43413e+9 
           2425      1.44257e+9 
           2435      1.39656e+9 
           2445      1.40539e+9 
           2455      1.40271e+9 
           2465      1.37015e+9 
           2475      1.35326e+9 
           2485      1.35825e+9 
           2495      1.31331e+9 
           2505      1.33575e+9 
           2513      1.28323e+9 
           2518      1.31254e+9 
           2525      1.27875e+9 
           2535      1.25982e+9 
           2545      1.23802e+9 
           2555      1.26136e+9 
           2565      1.23992e+9 
           2575       1.2494e+9 
           2585      1.24189e+9 
           2595       1.2301e+9 
           2605      1.21851e+9 
           2615        1.207e+9 
           2625      1.19405e+9 
           2635      1.18327e+9 
           2645      1.19593e+9 
           2655      1.18523e+9 
           2665      1.15758e+9 
           2675      1.15936e+9 
           2685      1.15147e+9 
           2695      1.12635e+9 
           2705      1.12329e+9 
           2715      1.10695e+9 
           2725      1.08915e+9 
           2735      1.09414e+9 
           2745      1.05404e+9 
           2755      1.05007e+9 
           2765      1.04717e+9 
           2775      1.05495e+9 
           2785      1.04103e+9 
           2795      1.00596e+9 
           2805      1.01853e+9 
           2815      1.01834e+9 
           2825      1.00076e+9 
           2835      9.73038e+8 
           2845      9.75798e+8 
           2855      9.71978e+8 
           2865       9.7186e+8 
           2875      9.58548e+8 
           2885      9.52005e+8 
           2895      9.43416e+8 
           2910      9.31847e+8 
           2930      9.10261e+8 
           2950      8.89519e+8 
           2970      8.80483e+8 
           2990      8.61538e+8 
           3010      8.48131e+8 
           3030       8.3693e+8 
           3050      8.21333e+8 
           3070      8.06629e+8 
           3090      7.90776e+8 
           3110      7.77639e+8 
           3130      7.65157e+8 
           3150       7.5156e+8 
           3170      7.37458e+8 
           3190      7.18837e+8 
           3210      7.12357e+8 
           3230      7.00421e+8 
           3250      6.88759e+8 
           3270      6.77647e+8 
           3290       6.6557e+8 
           3310      6.55626e+8 
           3330      6.44444e+8 
           3350      6.32509e+8 
           3370      6.23001e+8 
           3390      6.12885e+8 
           3410      6.02995e+8 
           3430      5.90924e+8 
           3450      5.79662e+8 
           3470       5.7156e+8 
           3490      5.62491e+8 
           3510      5.55763e+8 
           3530      5.47518e+8 
           3550      5.38975e+8 
           3570      5.32243e+8 
           3590      5.21068e+8 
           3610      5.13171e+8 
           3630      5.05216e+8 
           3640      5.03837e+8 
           3650      4.96782e+8 
           3670      4.90851e+8 
           3690      4.75806e+8 
           3710      4.69458e+8 
           3730      4.65899e+8 
           3750      5.24166e+8 
           3770      5.32641e+8 
           3790      5.62572e+8 
           3810      5.90031e+8 
           3830      5.12899e+8 
           3850      6.05969e+8 
           3870       6.0674e+8 
           3890      4.87788e+8 
           3910      6.00156e+8 
           3930       5.8355e+8 
           3950       5.8094e+8 
           3970      4.54057e+8 
           3990      5.58559e+8 
           4010      5.54337e+8 
           4030       5.2549e+8 
           4050      5.41788e+8 
           4070      5.28334e+8 
           4090      4.92867e+8 
           4110      4.28245e+8 
           4130       4.9653e+8 
           4150      4.93549e+8 
           4170      4.89498e+8 
           4190      4.84385e+8 
           4210      4.77605e+8 
           4230      4.69435e+8 
           4250      4.61524e+8 
           4270      4.50123e+8 
           4290      4.46939e+8 
           4310      4.37791e+8 
           4330      3.99698e+8 
           4350      3.62743e+8 
           4370      4.16758e+8 
           4390      4.04251e+8 
           4410      4.07314e+8 
           4430      3.99614e+8 
           4450      3.96125e+8 
           4470      3.75845e+8 
           4490      3.81866e+8 
           4510      3.78987e+8 
           4530      3.72564e+8 
           4550      3.67203e+8 
           4570      3.61958e+8 
           4590      3.56843e+8 
           4610      3.51237e+8 
           4630      3.45748e+8 
           4650      3.40167e+8 
           4670      3.36379e+8 
           4690      3.32112e+8 
           4710      3.21995e+8 
           4730      3.20541e+8 
           4750       3.1576e+8 
           4770      3.13747e+8 
           4790      3.08998e+8 
           4810      3.03681e+8 
           4830      2.98426e+8 
           4850       2.7752e+8 
           4870      2.46526e+8 
           4890      2.85807e+8 
           4910      2.83249e+8 
           4930      2.73857e+8 
           4950      2.76184e+8 
           4970      2.72699e+8 
           4990      2.68763e+8 
           5010      2.60438e+8 
           5030      2.61125e+8 
           5050      2.54792e+8 
           5070        2.545e+8 
           5090      2.51036e+8 
           5110      2.47444e+8 
           5130        2.437e+8 
           5150      2.40462e+8 
           5170      2.37985e+8 
           5190      2.34854e+8 
           5210      2.30625e+8 
           5230      2.28699e+8 
           5250      2.25757e+8 
           5270      2.22731e+8 
           5290      2.20054e+8 
           5310      2.17117e+8 
           5330      2.14204e+8 
           5350      2.11132e+8 
           5370      2.08948e+8 
           5390      2.06285e+8 
           5410      2.03617e+8 
           5430      2.00587e+8 
           5450      1.98293e+8 
           5470      1.95788e+8 
           5490      1.93539e+8 
           5510      1.91057e+8 
           5530      1.88679e+8 
           5550      1.86441e+8 
           5570      1.84061e+8 
           5590      1.81854e+8 
           5610      1.79446e+8 
           5630      1.77484e+8 
           5650      1.74507e+8 
           5670      1.72516e+8 
           5690      1.70619e+8 
           5710      1.68906e+8 
           5730       1.6688e+8 
           5750      1.64832e+8 
           5770      1.62956e+8 
           5790      1.60989e+8 
           5810      1.59057e+8 
           5830      1.57125e+8 
           5850      1.55304e+8 
           5870      1.49426e+8 
           5890      1.51074e+8 
           5910      1.49816e+8 
           5930      1.48067e+8 
           5950      1.46137e+8 
           5970      1.44684e+8 
           5990      1.42869e+8 
           6010      1.41367e+8 
           6030      1.39706e+8 
           6050      1.38125e+8 
           6070      1.36541e+8 
           6090      1.34945e+8 
           6110      1.33447e+8 
           6130      1.31936e+8 
           6150      1.30203e+8 
           6170      1.28925e+8 
           6190      1.27503e+8 
           6210      1.26068e+8 
           6230      1.24639e+8 
           6250      1.23138e+8 
           6270      1.21865e+8 
           6290      1.20501e+8 
           6310      1.19104e+8 
           6330      1.17873e+8 
           6350      1.16151e+8 
           6370      1.15033e+8 
           6390      1.13991e+8 
           6410      1.12731e+8 
           6430      1.11575e+8 
           6450      1.10332e+8 
           6470      1.09075e+8 
           6490      1.07929e+8 
           6510      1.06734e+8 
           6530      1.05224e+8 
           6550      1.00859e+8 
           6570      8.91707e+7 
           6590      1.00966e+8 
           6610       1.0108e+8 
           6630      1.00145e+8 
           6650      9.91521e+7 
           6670      9.72967e+7 
           6690      9.63117e+7 
           6710      9.60564e+7 
           6730      9.50455e+7 
           6750       9.4078e+7 
           6770      9.31037e+7 
           6790      9.19596e+7 
           6810      9.11521e+7 
           6830      9.02072e+7 
           6850      8.93039e+7 
           6870      8.83856e+7 
           6890      8.74764e+7 
           6910      8.65841e+7 
           6930      8.56615e+7 
           6950      8.48338e+7 
           6970      8.39832e+7 
           6990      8.31178e+7 
           7010      8.22839e+7 
           7030      8.14581e+7 
           7050      8.06024e+7 
           7070      7.86623e+7 
           7090      7.90435e+7 
           7110      7.82268e+7 
           7130      7.74625e+7 
           7150      7.66981e+7 
           7170      7.59411e+7 
           7190      7.52058e+7 
           7210      7.44703e+7 
           7230      7.31796e+7 
           7250      7.29986e+7 
           7270      7.23053e+7 
           7290      7.10939e+7 
           7310      7.08957e+7 
           7330      7.02219e+7 
           7350      6.95446e+7 
           7370      6.88743e+7 
           7390      6.82122e+7 
           7410      6.75584e+7 
           7430      6.68908e+7 
           7450      6.62749e+7 
           7470      6.56228e+7 
           7490      6.50129e+7 
           7510      6.43805e+7 
           7530      6.37958e+7 
           7550      6.31992e+7 
           7570       6.2608e+7 
           7590      6.20149e+7 
           7610      6.14403e+7 
           7630      6.08675e+7 
           7650      6.02986e+7 
           7670      5.97406e+7 
           7690      5.91843e+7 
           7710      5.86368e+7 
           7730      5.80948e+7 
           7750      5.75596e+7 
           7770      5.67975e+7 
           7790      5.65137e+7 
           7810      5.59652e+7 
           7830      5.54879e+7 
           7850        5.498e+7 
           7870      5.44813e+7 
           7890      5.39144e+7 
           7910      5.35439e+7 
           7930      5.30633e+7 
           7950      5.25105e+7 
           7970       5.2019e+7 
           7990      5.15063e+7 
           8010      5.10968e+7 
           8030      5.06498e+7 
           8050       5.0213e+7 
           8070      4.97868e+7 
           8090       4.9271e+7 
           8110      4.88679e+7 
           8130      4.84915e+7 
           8150      4.79923e+7 
           8170      4.76606e+7 
           8190      4.71933e+7 
           8210      4.66328e+7 
           8230      4.63269e+7 
           8250       4.5988e+7 
           8270      4.53912e+7 
           8290      4.51467e+7 
           8310      4.47726e+7 
           8330      4.43879e+7 
           8350      4.38238e+7 
           8370      4.35151e+7 
           8390      4.31955e+7 
           8410      4.27778e+7 
           8430      4.23497e+7 
           8450      4.17379e+7 
           8470      4.13336e+7 
           8490      4.13984e+7 
           8510      4.03826e+7 
           8530      4.09603e+7 
           8550      3.89513e+7 
           8570      4.09681e+7 
