# Kurucz ODFNEW /NOVER (2003)
# teff = 29000 K (value for the effective temperature for the model. Temperatures are given in K)
# logg = 3.5 log(cm/s2) (value for Log(G) for the model.)
# meta = 0  (value for the Metallicity for the model.)
# lh = 1.25  (l/Hp where l is the  mixing length of the convective element and Hp is the pressure scale height)
# vtur = 2 km/s (Microturbulence velocity)
# alpha = 0.4  (Alpha)
#
# column 1: WAVELENGTH (ANGSTROM), Wavelength in Angstrom
# column 2: FLUX (ERG/CM2/S/A), Flux in erg/cm2/s/A
          147.2     7.82778e-10 
            151       2.6013e-9 
          155.2      9.19167e-9 
          158.8       2.5809e-8 
            162      6.23705e-8 
            166      1.79588e-7 
          170.3      5.28877e-7 
          173.4       1.1224e-6 
          176.8      2.48528e-6 
          180.2      5.33815e-6 
          181.7        7.431e-6 
          186.1      1.89348e-5 
            191      5.11834e-5 
          193.9      9.00821e-5 
          198.4     0.000210155 
          201.8     0.000388605 
            205     0.000680623 
          210.5       0.0017181 
          216.2      0.00426067 
          219.8       0.0074159 
            223       0.0119354 
          226.8       0.0212533 
            230         4.43002 
            234         9.67211 
            240         18.1471 
          246.5         35.8394 
          252.4          65.966 
          256.8           96.39 
            260         160.227 
            264         234.164 
          268.5         370.442 
          273.5         566.437 
          278.5         812.548 
            284         1989.81 
            290          3130.8 
            296         4637.74 
            301         6381.04 
            308         19312.2 
            318           43051 
            328         70342.6 
            338          131448 
            348          219242 
            357          750864 
            366       1.7394e+6 
            375      2.26871e+6 
            385      3.66372e+6 
            395      8.40721e+6 
            405      1.09827e+7 
            414      1.69556e+7 
            422      1.97654e+7 
            430      2.43458e+7 
            441      3.16658e+7 
            451      3.78839e+7 
            460      4.22574e+7 
            470      5.36579e+7 
            480      6.51461e+7 
            490       7.5906e+7 
            500      9.53216e+7 
            506      1.96166e+8 
            512      1.74939e+9 
            520      1.68804e+9 
            530      1.56901e+9 
            540      1.55717e+9 
            550      1.92873e+9 
            560      2.57452e+9 
            570      2.80732e+9 
            580      2.49432e+9 
            590      2.79695e+9 
            600      2.03549e+9 
            610      2.86825e+9 
            620      3.44907e+9 
            630       3.3844e+9 
            640       3.1449e+9 
            650      2.70933e+9 
            658      2.37542e+9 
            665      3.17476e+9 
            675      3.69565e+9 
            685      2.90786e+9 
            695      4.10037e+9 
            705      2.96798e+9 
            716      4.53283e+9 
            726       4.3477e+9 
            735      4.48275e+9 
            745      4.23771e+9 
            755      4.32361e+9 
            765      4.66115e+9 
            775      4.95768e+9 
            785      5.15735e+9 
            795      5.17911e+9 
            805      4.93055e+9 
            815      4.88249e+9 
            825      5.36922e+9 
            835      3.96151e+9 
            845      5.17468e+9 
            855       5.1622e+9 
            865      5.37685e+9 
            875      5.48247e+9 
            885      5.69116e+9 
            895       5.7881e+9 
            905      5.61903e+9 
            915      8.15398e+9 
            925     3.10322e+10 
            935     4.53683e+10 
            945     5.23525e+10 
            955     5.46408e+10 
            965     5.74545e+10 
            975     2.10089e+10 
            985     4.39468e+10 
            995      4.2889e+10 
           1005      4.5971e+10 
           1015     4.86423e+10 
           1025     4.23802e+10 
           1035     4.58135e+10 
           1045     5.46142e+10 
           1055     5.15495e+10 
           1065     4.34946e+10 
           1075     4.63469e+10 
           1085     4.37908e+10 
           1095     4.64854e+10 
           1105     4.40928e+10 
           1115     4.28024e+10 
           1125     3.14897e+10 
           1135     4.17342e+10 
           1145     3.97728e+10 
           1155     3.84037e+10 
           1165     3.82329e+10 
           1175     2.36471e+10 
           1185     3.47963e+10 
           1195     3.37811e+10 
           1205     3.05426e+10 
           1215     2.78931e+10 
           1225     3.22949e+10 
           1235     3.44021e+10 
           1245     3.27579e+10 
           1255     3.29579e+10 
           1265      3.3616e+10 
           1275       3.456e+10 
           1285     3.43436e+10 
           1295     3.01873e+10 
           1305     3.10382e+10 
           1315     3.35897e+10 
           1325     3.22477e+10 
           1335     3.12633e+10 
           1345     3.11292e+10 
           1355     3.07412e+10 
           1365     2.93846e+10 
           1375     2.84127e+10 
           1385     2.69729e+10 
           1395     1.69085e+10 
           1405     1.92771e+10 
           1415     2.58789e+10 
           1425     2.38268e+10 
           1435     2.52723e+10 
           1442     2.53029e+10 
           1447      2.5105e+10 
           1455     2.39292e+10 
           1465     2.30999e+10 
           1475     2.34821e+10 
           1485     2.33104e+10 
           1495     2.26322e+10 
           1505     2.16704e+10 
           1512     2.09512e+10 
           1517     2.12684e+10 
           1525     2.06797e+10 
           1535     1.79761e+10 
           1545     1.57278e+10 
           1555     1.56143e+10 
           1565     1.74996e+10 
           1575     1.85189e+10 
           1585     1.84659e+10 
           1595     1.83891e+10 
           1605     1.75128e+10 
           1615     1.67867e+10 
           1625     1.70415e+10 
           1635     1.74256e+10 
           1645     1.74204e+10 
           1655     1.72986e+10 
           1665     1.70316e+10 
           1672      1.5849e+10 
           1677      1.8352e+10 
           1685      1.7451e+10 
           1695     1.67317e+10 
           1705     1.65503e+10 
           1715     1.57443e+10 
           1725     1.52458e+10 
           1735     1.57364e+10 
           1745      1.5554e+10 
           1755      1.5392e+10 
           1765     1.52301e+10 
           1775     1.46202e+10 
           1785     1.47938e+10 
           1795     1.45979e+10 
           1805     1.46459e+10 
           1815     1.40046e+10 
           1825     1.39941e+10 
           1835     1.38845e+10 
           1845     1.29187e+10 
           1855     1.31947e+10 
           1865     1.32572e+10 
           1875     1.30444e+10 
           1885     1.22289e+10 
           1895     1.17466e+10 
           1905     1.22558e+10 
           1915     1.18169e+10 
           1925     1.11617e+10 
           1935     1.18244e+10 
           1945     1.20108e+10 
           1955     1.08711e+10 
           1967     1.14399e+10 
           1976     1.18367e+10 
           1984     1.12342e+10 
           1995     1.09847e+10 
           2005       1.118e+10 
           2015     1.11779e+10 
           2025     1.12257e+10 
           2035     1.06135e+10 
           2045     1.05469e+10 
           2055      9.12424e+9 
           2065      8.93978e+9 
           2074      9.45091e+9 
           2078      9.20605e+9 
           2085      9.80035e+9 
           2095      9.64951e+9 
           2105      9.80885e+9 
           2115      9.89655e+9 
           2125      9.78693e+9 
           2135      9.69134e+9 
           2145      9.42924e+9 
           2155      9.51878e+9 
           2165      9.24619e+9 
           2175      9.24975e+9 
           2185      9.07848e+9 
           2195      9.13201e+9 
           2205      9.00287e+9 
           2215      8.79891e+9 
           2225      8.71162e+9 
           2235      8.56597e+9 
           2245      8.50104e+9 
           2255      8.30949e+9 
           2265      8.28475e+9 
           2275      8.19897e+9 
           2285      8.00975e+9 
           2295      7.14137e+9 
           2305      7.73664e+9 
           2315      7.62987e+9 
           2325      7.60062e+9 
           2335       7.4638e+9 
           2345      7.43385e+9 
           2355      7.31243e+9 
           2365      7.20762e+9 
           2375      7.06557e+9 
           2385      6.87663e+9 
           2395      6.83377e+9 
           2405      6.81549e+9 
           2415      6.68423e+9 
           2425      6.64844e+9 
           2435      6.52215e+9 
           2445      6.46449e+9 
           2455      6.38443e+9 
           2465      6.29678e+9 
           2475      6.17712e+9 
           2485      5.89757e+9 
           2495      3.97383e+9 
           2505      5.50617e+9 
           2513      5.62484e+9 
           2518      5.70252e+9 
           2525      5.81891e+9 
           2535      5.79044e+9 
           2545      5.62009e+9 
           2555      5.60948e+9 
           2565      5.53554e+9 
           2575      5.50274e+9 
           2585      5.44131e+9 
           2595      5.35526e+9 
           2605      5.32782e+9 
           2615      5.22589e+9 
           2625      5.18423e+9 
           2635      5.12602e+9 
           2645      5.05347e+9 
           2655      4.99521e+9 
           2665      4.87383e+9 
           2675      4.79639e+9 
           2685      4.80954e+9 
           2695      4.69471e+9 
           2705      4.64791e+9 
           2715      4.60039e+9 
           2725      4.55122e+9 
           2735      4.47705e+9 
           2745      4.46774e+9 
           2755      4.41387e+9 
           2765      4.34731e+9 
           2775      4.34158e+9 
           2785      4.25863e+9 
           2795      4.11537e+9 
           2805      4.15258e+9 
           2815       4.1363e+9 
           2825      4.08252e+9 
           2835      3.99452e+9 
           2845      3.99842e+9 
           2855      3.92831e+9 
           2865      3.88496e+9 
           2875      3.83583e+9 
           2885      3.79992e+9 
           2895       3.7556e+9 
           2910      3.65946e+9 
           2930      3.61638e+9 
           2950       3.5163e+9 
           2970      3.44728e+9 
           2990      3.35117e+9 
           3010      3.24158e+9 
           3030      3.17333e+9 
           3050      3.13772e+9 
           3070      3.09113e+9 
           3090      2.97462e+9 
           3110      2.96021e+9 
           3130       2.8767e+9 
           3150      2.83137e+9 
           3170      2.76591e+9 
           3190      2.71034e+9 
           3210      2.64955e+9 
           3230      2.58809e+9 
           3250      2.55402e+9 
           3270      2.48176e+9 
           3290      2.43988e+9 
           3310       2.3883e+9 
           3330      2.33011e+9 
           3350      2.28213e+9 
           3370      2.23621e+9 
           3390      2.20961e+9 
           3410      2.16452e+9 
           3430       2.1285e+9 
           3450       2.0742e+9 
           3470      2.03797e+9 
           3490      1.99619e+9 
           3510      1.96173e+9 
           3530      1.93352e+9 
           3550      1.89227e+9 
           3570      1.85653e+9 
           3590      1.81368e+9 
           3610      1.78295e+9 
           3630      1.74757e+9 
           3640       1.7321e+9 
           3650      1.67687e+9 
           3670      1.65327e+9 
           3690      1.61719e+9 
           3710      1.56499e+9 
           3730      1.53268e+9 
           3750      1.57973e+9 
           3770      1.55485e+9 
           3790      1.58089e+9 
           3810      1.60576e+9 
           3830       1.4777e+9 
           3850       1.5809e+9 
           3870      1.52358e+9 
           3890      1.40824e+9 
           3910        1.518e+9 
           3930      1.46671e+9 
           3950      1.43919e+9 
           3970      1.29649e+9 
           3990      1.40922e+9 
           4010      1.38412e+9 
           4030      1.34267e+9 
           4050       1.3398e+9 
           4070      1.28364e+9 
           4090      1.23308e+9 
           4110       1.1559e+9 
           4130      1.22868e+9 
           4150      1.21516e+9 
           4170      1.20845e+9 
           4190      1.18638e+9 
           4210      1.16861e+9 
           4230      1.15018e+9 
           4250      1.11908e+9 
           4270      1.09333e+9 
           4290      1.07303e+9 
           4310      1.04746e+9 
           4330      1.01186e+9 
           4350      9.47532e+8 
           4370      1.00396e+9 
           4390      9.91294e+8 
           4410      9.75447e+8 
           4430      9.69135e+8 
           4450      9.49866e+8 
           4470      9.25359e+8 
           4490      9.23786e+8 
           4510      9.07684e+8 
           4530        8.982e+8 
           4550      8.80931e+8 
           4570      8.69756e+8 
           4590      8.53252e+8 
           4610      8.37196e+8 
           4630      8.23002e+8 
           4650      7.85482e+8 
           4670       7.9701e+8 
           4690      7.84747e+8 
           4710      7.66056e+8 
           4730      7.72052e+8 
           4750      7.57984e+8 
           4770       7.5227e+8 
           4790      7.40599e+8 
           4810      7.27109e+8 
           4830      7.13882e+8 
           4850      6.93208e+8 
           4870      6.39904e+8 
           4890      6.83725e+8 
           4910      6.73713e+8 
           4930      6.57206e+8 
           4950      6.50691e+8 
           4970      6.47814e+8 
           4990      6.38168e+8 
           5010      6.17774e+8 
           5030      6.16861e+8 
           5050      6.07361e+8 
           5070      6.02227e+8 
           5090      5.92589e+8 
           5110      5.83977e+8 
           5130      5.75024e+8 
           5150      5.67157e+8 
           5170       5.5869e+8 
           5190      5.51931e+8 
           5210       5.4444e+8 
           5230      5.37075e+8 
           5250      5.28795e+8 
           5270      5.20896e+8 
           5290       5.1512e+8 
           5310      5.07813e+8 
           5330      5.01079e+8 
           5350      4.94233e+8 
           5370      4.87528e+8 
           5390      4.79987e+8 
           5410      4.72287e+8 
           5430      4.68086e+8 
           5450      4.61499e+8 
           5470       4.5526e+8 
           5490      4.49261e+8 
           5510      4.43326e+8 
           5530      4.37341e+8 
           5550      4.31956e+8 
           5570       4.2603e+8 
           5590      4.19756e+8 
           5610      4.15117e+8 
           5630       4.0976e+8 
           5650      4.04126e+8 
           5670      3.98034e+8 
           5690      3.89412e+8 
           5710      3.83407e+8 
           5730      3.79025e+8 
           5750      3.72986e+8 
           5770      3.69805e+8 
           5790      3.65008e+8 
           5810      3.60334e+8 
           5830      3.55627e+8 
           5850      3.52286e+8 
           5870      3.41842e+8 
           5890      3.43217e+8 
           5910      3.39895e+8 
           5930      3.36042e+8 
           5950      3.32488e+8 
           5970      3.29651e+8 
           5990      3.24944e+8 
           6010      3.21387e+8 
           6030      3.17104e+8 
           6050      3.13385e+8 
           6070      3.09758e+8 
           6090      3.06102e+8 
           6110      3.02245e+8 
           6130      2.98661e+8 
           6150      2.94491e+8 
           6170      2.90972e+8 
           6190      2.88013e+8 
           6210      2.84725e+8 
           6230      2.81143e+8 
           6250      2.77668e+8 
           6270      2.74577e+8 
           6290      2.71396e+8 
           6310      2.67748e+8 
           6330        2.651e+8 
           6350      2.61714e+8 
           6370      2.58959e+8 
           6390       2.5591e+8 
           6410      2.52766e+8 
           6430      2.50066e+8 
           6450      2.47105e+8 
           6470      2.43663e+8 
           6490      2.40911e+8 
           6510      2.38091e+8 
           6530      2.35186e+8 
           6550      2.30705e+8 
           6570      2.11018e+8 
           6590      2.26733e+8 
           6610      2.25208e+8 
           6630      2.22891e+8 
           6650       2.2007e+8 
           6670      2.16102e+8 
           6690      2.13659e+8 
           6710      2.12763e+8 
           6730      2.09945e+8 
           6750      2.08298e+8 
           6770      2.06157e+8 
           6790      2.03269e+8 
           6810      2.01573e+8 
           6830      1.99191e+8 
           6850       1.9721e+8 
           6870      1.94986e+8 
           6890      1.92356e+8 
           6910      1.90092e+8 
           6930      1.88871e+8 
           6950      1.86834e+8 
           6970      1.84833e+8 
           6990      1.82821e+8 
           7010      1.80752e+8 
           7030      1.78703e+8 
           7050       1.7688e+8 
           7070       1.7285e+8 
           7090      1.73301e+8 
           7110      1.70933e+8 
           7130      1.69294e+8 
           7150      1.67906e+8 
           7170      1.65974e+8 
           7190      1.64374e+8 
           7210      1.62703e+8 
           7230      1.59692e+8 
           7250      1.58905e+8 
           7270       1.5769e+8 
           7290      1.55054e+8 
           7310      1.54397e+8 
           7330      1.52833e+8 
           7350      1.51278e+8 
           7370      1.49757e+8 
           7390      1.48244e+8 
           7410      1.46724e+8 
           7430       1.4524e+8 
           7450      1.43728e+8 
           7470       1.4167e+8 
           7490      1.40639e+8 
           7510      1.39416e+8 
           7530      1.37966e+8 
           7550      1.36707e+8 
           7570      1.35335e+8 
           7590      1.33759e+8 
           7610      1.32374e+8 
           7630      1.31293e+8 
           7650       1.2997e+8 
           7670      1.28787e+8 
           7690      1.27354e+8 
           7710      1.26193e+8 
           7730      1.24772e+8 
           7750      1.23784e+8 
           7770      1.22579e+8 
           7790      1.21436e+8 
           7810      1.20221e+8 
           7830      1.19104e+8 
           7850      1.17972e+8 
           7870      1.16595e+8 
           7890      1.15424e+8 
           7910      1.14576e+8 
           7930      1.13447e+8 
           7950      1.12442e+8 
           7970      1.11274e+8 
           7990      1.10269e+8 
           8010      1.09179e+8 
           8030       1.0815e+8 
           8050      1.07195e+8 
           8070      1.06196e+8 
           8090      1.05113e+8 
           8110      1.03501e+8 
           8130      1.03272e+8 
           8150      1.02182e+8 
           8170      1.01377e+8 
           8190      9.99278e+7 
           8210      9.87821e+7 
           8230      9.78075e+7 
           8250      9.72619e+7 
           8270      9.55692e+7 
           8290      9.53718e+7 
           8310      9.46241e+7 
           8330      9.36816e+7 
           8350       9.2504e+7 
           8370      9.18204e+7 
           8390      9.11959e+7 
           8410      9.02779e+7 
           8430      8.95002e+7 
           8450      8.83648e+7 
           8470      8.77169e+7 
           8490      8.71839e+7 
           8510      8.56822e+7 
           8530      8.58452e+7 
           8550      8.35991e+7 
           8570      8.50406e+7 
