# Kurucz ODFNEW /NOVER (2003)
# teff = 28000 K (value for the effective temperature for the model. Temperatures are given in K)
# logg = 5 log(cm/s2) (value for Log(G) for the model.)
# meta = -4  (value for the Metallicity for the model.)
# lh = 1.25  (l/Hp where l is the  mixing length of the convective element and Hp is the pressure scale height)
# vtur = 2 km/s (Microturbulence velocity)
# alpha = 0.4  (Alpha)
#
# column 1: WAVELENGTH (ANGSTROM), Wavelength in Angstrom
# column 2: FLUX (ERG/CM2/S/A), Flux in erg/cm2/s/A
          147.2     1.35099e-10 
            151     5.50976e-10 
          155.2      2.40017e-9 
          158.8      7.94872e-9 
            162      2.20046e-8 
            166      7.42112e-8 
          170.3      2.56612e-7 
          173.4      6.03192e-7 
          176.8      1.48567e-6 
          180.2      3.53166e-6 
          181.7      5.11916e-6 
          186.1      1.46675e-5 
            191      4.46156e-5 
          193.9      8.38095e-5 
          198.4     0.000214509 
          201.8     0.000423741 
            205     0.000786806 
          210.5      0.00217568 
          216.2      0.00589131 
          219.8       0.0107431 
            223       0.0180111 
          226.8        0.032601 
            230        0.161915 
            234        0.348514 
            240        0.753197 
          246.5         1.66515 
          252.4         3.32657 
          256.8         5.19048 
            260         7.61428 
            264         11.5441 
          268.5         18.1309 
          273.5         29.3951 
          278.5         46.8737 
            284         76.7135 
            290         128.348 
            296         209.778 
            301         309.983 
            308         511.816 
            318         1078.73 
            328         2100.79 
            338         3919.18 
            348          7036.3 
            357         11548.5 
            366         18474.2 
            375         28809.6 
            385         45962.4 
            395         71402.9 
            405          108295 
            414          154573 
            422          208995 
            430          279012 
            441          407334 
            451          564017 
            460          745607 
            470      1.00232e+6 
            480      1.32812e+6 
            490       1.7371e+6 
            500       2.2429e+6 
            506      1.14523e+7 
            512      4.18357e+7 
            520       4.7204e+7 
            530      6.01573e+7 
            540      6.03529e+7 
            550      7.41416e+7 
            560      8.16191e+7 
            570      8.99501e+7 
            580      8.95304e+7 
            590       1.0595e+8 
            600      1.18241e+8 
            610      1.29026e+8 
            620      1.40323e+8 
            630      1.52391e+8 
            640      1.64929e+8 
            650      1.78458e+8 
            658      1.89625e+8 
            665       1.9971e+8 
            675      2.14367e+8 
            685      2.29366e+8 
            695       2.4639e+8 
            705       2.6278e+8 
            716      2.81892e+8 
            726      2.99818e+8 
            735      3.16795e+8 
            745       3.3581e+8 
            755      3.55306e+8 
            765      3.75239e+8 
            775        3.957e+8 
            785       4.1655e+8 
            795      4.37716e+8 
            805      4.59348e+8 
            815      4.81251e+8 
            825       5.0354e+8 
            835      5.22512e+8 
            845      5.48929e+8 
            855      5.71929e+8 
            865      5.95285e+8 
            875      6.18759e+8 
            885      6.42372e+8 
            895      6.66052e+8 
            905       6.8927e+8 
            915      8.47031e+8 
            925      3.84789e+9 
            935      9.47743e+9 
            945     2.74731e+10 
            955     4.01317e+10 
            965     5.51122e+10 
            975     2.49596e+10 
            985     6.64909e+10 
            995      6.3483e+10 
           1005     6.65787e+10 
           1015     5.83291e+10 
           1025     1.71808e+10 
           1035     5.18589e+10 
           1045     5.95992e+10 
           1055     5.88842e+10 
           1065     5.70595e+10 
           1075     5.56867e+10 
           1085     5.13752e+10 
           1095     5.30961e+10 
           1105      5.1294e+10 
           1115     5.01326e+10 
           1125     4.83821e+10 
           1135     4.76912e+10 
           1145     4.63906e+10 
           1155      4.5201e+10 
           1165     4.39704e+10 
           1175     4.08839e+10 
           1185     4.14953e+10 
           1195      3.9759e+10 
           1205     3.42839e+10 
           1215     1.14992e+10 
           1225     3.14112e+10 
           1235     3.58322e+10 
           1245     3.55189e+10 
           1255     3.49097e+10 
           1265     3.41528e+10 
           1275      3.3399e+10 
           1285     3.25937e+10 
           1295     3.13869e+10 
           1305     3.08856e+10 
           1315     3.03327e+10 
           1325      2.9604e+10 
           1335     2.85978e+10 
           1345     2.82533e+10 
           1355     2.76141e+10 
           1365     2.69967e+10 
           1375     2.64042e+10 
           1385      2.5824e+10 
           1395     2.50059e+10 
           1405     2.45081e+10 
           1415     2.41385e+10 
           1425     2.36098e+10 
           1435     2.30971e+10 
           1442      2.2752e+10 
           1447     2.25087e+10 
           1455     2.21195e+10 
           1465     2.16483e+10 
           1475     2.11947e+10 
           1485     2.07547e+10 
           1495      2.0328e+10 
           1505     1.99091e+10 
           1512     1.96246e+10 
           1517     1.94185e+10 
           1525     1.90922e+10 
           1535     1.86924e+10 
           1545     1.82429e+10 
           1555     1.78859e+10 
           1565     1.75904e+10 
           1575     1.72493e+10 
           1585     1.69168e+10 
           1595     1.65913e+10 
           1605     1.62653e+10 
           1615     1.59475e+10 
           1625      1.5642e+10 
           1635     1.52723e+10 
           1645      1.4657e+10 
           1655     1.47554e+10 
           1665     1.44755e+10 
           1672     1.42831e+10 
           1677     1.41498e+10 
           1685     1.39388e+10 
           1695     1.36857e+10 
           1705     1.34375e+10 
           1715     1.31928e+10 
           1725     1.29555e+10 
           1735     1.27252e+10 
           1745     1.24969e+10 
           1755     1.22705e+10 
           1765      1.2047e+10 
           1775     1.18329e+10 
           1785     1.16243e+10 
           1795     1.14226e+10 
           1805     1.12244e+10 
           1815     1.10306e+10 
           1825     1.08416e+10 
           1835     1.06574e+10 
           1845     1.04751e+10 
           1855     1.02891e+10 
           1865     1.01219e+10 
           1875      9.95857e+9 
           1885      9.78936e+9 
           1895      9.61938e+9 
           1905       9.4654e+9 
           1915      9.30219e+9 
           1925      9.15039e+9 
           1935      9.00293e+9 
           1945      8.85921e+9 
           1955       8.7141e+9 
           1967       8.5529e+9 
           1976       8.4328e+9 
           1984      8.32531e+9 
           1995      8.17895e+9 
           2005      8.05559e+9 
           2015      7.93083e+9 
           2025      7.80795e+9 
           2035      7.68719e+9 
           2045      7.56814e+9 
           2055      7.33989e+9 
           2065      7.21906e+9 
           2074      7.12703e+9 
           2078      7.08173e+9 
           2085      7.02551e+9 
           2095      6.95671e+9 
           2105      6.89646e+9 
           2115      6.80429e+9 
           2125      6.70327e+9 
           2135      6.60418e+9 
           2145      6.50712e+9 
           2155      6.41199e+9 
           2165      6.31874e+9 
           2175       6.2274e+9 
           2185      6.13581e+9 
           2195      6.04813e+9 
           2205      5.96046e+9 
           2215      5.87198e+9 
           2225      5.79101e+9 
           2235      5.70861e+9 
           2245      5.62774e+9 
           2255      5.54416e+9 
           2265      5.47056e+9 
           2275      5.39419e+9 
           2285      5.31922e+9 
           2295      5.23885e+9 
           2305      5.17003e+9 
           2315      5.10345e+9 
           2325      5.03407e+9 
           2335      4.96541e+9 
           2345      4.89753e+9 
           2355      4.83109e+9 
           2365      4.76608e+9 
           2375      4.70218e+9 
           2385      4.63502e+9 
           2395      4.57695e+9 
           2405      4.51598e+9 
           2415      4.45611e+9 
           2425      4.39727e+9 
           2435      4.33944e+9 
           2445      4.28277e+9 
           2455      4.22714e+9 
           2465      4.17233e+9 
           2475      4.11839e+9 
           2485      4.06517e+9 
           2495      3.98781e+9 
           2505       3.9615e+9 
           2513      3.91353e+9 
           2518       3.8961e+9 
           2525      3.86153e+9 
           2535      3.81283e+9 
           2545      3.76478e+9 
           2555      3.71788e+9 
           2565      3.67154e+9 
           2575      3.62569e+9 
           2585      3.58061e+9 
           2595      3.53623e+9 
           2605      3.51474e+9 
           2615      3.47127e+9 
           2625      3.42853e+9 
           2635      3.38476e+9 
           2645      3.34203e+9 
           2655      3.29735e+9 
           2665      3.25058e+9 
           2675      3.20458e+9 
           2685      3.18582e+9 
           2695      3.12291e+9 
           2705      3.10985e+9 
           2715      3.07277e+9 
           2725      3.00891e+9 
           2735      2.99848e+9 
           2745      2.96493e+9 
           2755      2.93014e+9 
           2765      2.86764e+9 
           2775      2.86193e+9 
           2785      2.82855e+9 
           2795      2.79527e+9 
           2805      2.76317e+9 
           2815      2.73131e+9 
           2825      2.66617e+9 
           2835      2.65034e+9 
           2845      2.63812e+9 
           2855      2.60798e+9 
           2865      2.57833e+9 
           2875      2.54908e+9 
           2885      2.52026e+9 
           2895      2.49186e+9 
           2910      2.45009e+9 
           2930      2.39583e+9 
           2950       2.3218e+9 
           2970      2.29171e+9 
           2990      2.24181e+9 
           3010      2.19324e+9 
           3030      2.14604e+9 
           3050      2.10009e+9 
           3070      2.05535e+9 
           3090      2.01182e+9 
           3110      1.96947e+9 
           3130      1.93027e+9 
           3150      1.89008e+9 
           3170       1.8506e+9 
           3190      1.79363e+9 
           3210       1.7742e+9 
           3230        1.738e+9 
           3250      1.70251e+9 
           3270      1.67023e+9 
           3290      1.63436e+9 
           3310      1.60428e+9 
           3330      1.57253e+9 
           3350      1.53847e+9 
           3370      1.51131e+9 
           3390      1.48183e+9 
           3410      1.45309e+9 
           3430      1.41878e+9 
           3450       1.3862e+9 
           3470      1.36404e+9 
           3490      1.33818e+9 
           3510      1.31451e+9 
           3530      1.29119e+9 
           3550      1.26792e+9 
           3570      1.25331e+9 
           3590      1.21936e+9 
           3610      1.20274e+9 
           3630      1.17528e+9 
           3640       1.1752e+9 
           3650      1.16176e+9 
           3670      1.14583e+9 
           3690      1.12575e+9 
           3710      1.08863e+9 
           3730      1.05078e+9 
           3750      1.03885e+9 
           3770      1.00928e+9 
           3790      1.05016e+9 
           3810      1.09574e+9 
           3830      9.49984e+8 
           3850      1.13086e+9 
           3870      1.15832e+9 
           3890      8.89361e+8 
           3910      1.13908e+9 
           3930      1.14034e+9 
           3950      1.10412e+9 
           3970       8.2577e+8 
           3990      1.05344e+9 
           4010      1.06264e+9 
           4030      9.86656e+8 
           4050      1.04216e+9 
           4070      1.01703e+9 
           4090      9.04771e+8 
           4110      7.81198e+8 
           4130      9.47936e+8 
           4150      9.44815e+8 
           4170      9.39803e+8 
           4190      9.27441e+8 
           4210      9.11615e+8 
           4230      8.96088e+8 
           4250      8.80853e+8 
           4270      8.64997e+8 
           4290      8.47841e+8 
           4310      8.25166e+8 
           4330      7.22378e+8 
           4350      6.55725e+8 
           4370      7.80726e+8 
           4390       7.5021e+8 
           4410      7.68313e+8 
           4430      7.53616e+8 
           4450      7.44232e+8 
           4470      6.87321e+8 
           4490      7.19445e+8 
           4510      7.09744e+8 
           4530      6.98406e+8 
           4550      6.87275e+8 
           4570      6.76385e+8 
           4590      6.65693e+8 
           4610      6.55232e+8 
           4630      6.44979e+8 
           4650      6.34895e+8 
           4670      6.25029e+8 
           4690      6.14606e+8 
           4710      5.96831e+8 
           4730      5.96543e+8 
           4750      5.87422e+8 
           4770       5.7845e+8 
           4790      5.68885e+8 
           4810      5.58513e+8 
           4830      5.44515e+8 
           4850      4.87822e+8 
           4870      4.32851e+8 
           4890       5.1652e+8 
           4910      5.16024e+8 
           4930      4.94315e+8 
           4950      5.04874e+8 
           4970      4.97661e+8 
           4990      4.90382e+8 
           5010      4.75998e+8 
           5030      4.76181e+8 
           5050      4.66109e+8 
           5070      4.62585e+8 
           5090      4.55962e+8 
           5110      4.49442e+8 
           5130      4.43053e+8 
           5150      4.36763e+8 
           5170        4.306e+8 
           5190      4.24518e+8 
           5210      4.18559e+8 
           5230      4.12706e+8 
           5250      4.06943e+8 
           5270      4.01283e+8 
           5290      3.95723e+8 
           5310      3.90263e+8 
           5330        3.849e+8 
           5350      3.79632e+8 
           5370      3.74445e+8 
           5390       3.6935e+8 
           5410      3.64333e+8 
           5430      3.59431e+8 
           5450      3.54591e+8 
           5470      3.49837e+8 
           5490      3.45155e+8 
           5510      3.40569e+8 
           5530      3.36041e+8 
           5550      3.31593e+8 
           5570      3.27224e+8 
           5590      3.22922e+8 
           5610      3.18684e+8 
           5630      3.14523e+8 
           5650      3.10423e+8 
           5670      3.06398e+8 
           5690      3.02432e+8 
           5710      2.98526e+8 
           5730      2.94702e+8 
           5750      2.90923e+8 
           5770      2.87213e+8 
           5790      2.83558e+8 
           5810      2.79957e+8 
           5830      2.76421e+8 
           5850      2.72938e+8 
           5870      2.59099e+8 
           5890      2.65302e+8 
           5910      2.62808e+8 
           5930      2.59539e+8 
           5950      2.56318e+8 
           5970      2.53155e+8 
           5990      2.50039e+8 
           6010      2.46959e+8 
           6030      2.43936e+8 
           6050      2.40967e+8 
           6070      2.38032e+8 
           6090       2.3514e+8 
           6110      2.32302e+8 
           6130      2.29505e+8 
           6150       2.2674e+8 
           6170      2.24025e+8 
           6190      2.21351e+8 
           6210      2.18716e+8 
           6230       2.1612e+8 
           6250      2.13563e+8 
           6270      2.11043e+8 
           6290       2.0856e+8 
           6310      2.06105e+8 
           6330      2.03695e+8 
           6350      2.01321e+8 
           6370      1.98982e+8 
           6390      1.96677e+8 
           6410      1.94397e+8 
           6430       1.9216e+8 
           6450      1.89947e+8 
           6470      1.87776e+8 
           6490      1.85556e+8 
           6510      1.82906e+8 
           6530      1.79667e+8 
           6550      1.68693e+8 
           6570       1.4858e+8 
           6590      1.71952e+8 
           6610      1.72508e+8 
           6630      1.71151e+8 
           6650      1.69621e+8 
           6670      1.65379e+8 
           6690      1.63592e+8 
           6710      1.64032e+8 
           6730      1.62219e+8 
           6750      1.60432e+8 
           6770      1.58672e+8 
           6790      1.56938e+8 
           6810      1.55221e+8 
           6830       1.5353e+8 
           6850      1.51864e+8 
           6870      1.50215e+8 
           6890       1.4859e+8 
           6910      1.46989e+8 
           6930      1.45413e+8 
           6950      1.43852e+8 
           6970      1.42314e+8 
           6990      1.40799e+8 
           7010      1.39299e+8 
           7030      1.37822e+8 
           7050      1.36366e+8 
           7070      1.32423e+8 
           7090      1.33513e+8 
           7110      1.32107e+8 
           7130       1.3073e+8 
           7150      1.29365e+8 
           7170      1.28007e+8 
           7190      1.26691e+8 
           7210      1.25381e+8 
           7230      1.24082e+8 
           7250      1.22804e+8 
           7270      1.21545e+8 
           7290       1.1917e+8 
           7310      1.19055e+8 
           7330      1.17859e+8 
           7350      1.16661e+8 
           7370      1.15481e+8 
           7390      1.14311e+8 
           7410      1.13153e+8 
           7430      1.12019e+8 
           7450       1.1091e+8 
           7470      1.09797e+8 
           7490      1.08701e+8 
           7510      1.07581e+8 
           7530      1.06546e+8 
           7550      1.05493e+8 
           7570       1.0445e+8 
           7590      1.03416e+8 
           7610      1.02398e+8 
           7630      1.01396e+8 
           7650      1.00403e+8 
           7670      9.94192e+7 
           7690      9.84505e+7 
           7710      9.74967e+7 
           7730      9.65515e+7 
           7750      9.56148e+7 
           7770      9.46926e+7 
           7790      9.37849e+7 
           7810      9.28296e+7 
           7830      9.19934e+7 
           7850      9.12135e+7 
           7870      9.03429e+7 
           7890      8.94377e+7 
           7910      8.86307e+7 
           7930      8.77948e+7 
           7950      8.69662e+7 
           7970      8.60143e+7 
           7990      8.52302e+7 
           8010      8.43471e+7 
           8030      8.35419e+7 
           8050      8.27552e+7 
           8070      8.19926e+7 
           8090       8.1156e+7 
           8110       8.0487e+7 
           8130      7.97837e+7 
           8150        7.899e+7 
           8170      7.83441e+7 
           8190      7.75407e+7 
           8210      7.67609e+7 
           8230      7.62437e+7 
           8250      7.55701e+7 
           8270      7.45605e+7 
           8290      7.41793e+7 
           8310      7.35499e+7 
           8330      7.28333e+7 
           8350      7.18419e+7 
           8370      7.14452e+7 
           8390      7.09123e+7 
           8410      7.02771e+7 
           8430      6.96048e+7 
           8450      6.85106e+7 
           8470       6.8387e+7 
           8490      6.76157e+7 
           8510      6.71422e+7 
           8530      6.63876e+7 
           8550      6.57115e+7 
           8570      6.55385e+7 
           8590      6.36459e+7 
