# Kurucz ODFNEW /NOVER (2003)
# teff = 9250 K (value for the effective temperature for the model. Temperatures are given in K)
# logg = 4 log(cm/s2) (value for Log(G) for the model.)
# meta = -1.5  (value for the Metallicity for the model.)
# lh = 1.25  (l/Hp where l is the  mixing length of the convective element and Hp is the pressure scale height)
# vtur = 2 km/s (Microturbulence velocity)
# alpha = 0  (Alpha)
#
# column 1: WAVELENGTH (ANGSTROM), Wavelength in Angstrom
# column 2: FLUX (ERG/CM2/S/A), Flux in erg/cm2/s/A
          268.5      1.5678e-23 
          273.5      1.1778e-22 
          278.5     5.13107e-22 
            284      2.3689e-21 
            290     1.16683e-20 
            296     5.37429e-20 
            301     1.83065e-19 
            308     9.50719e-19 
            318     8.79684e-18 
            328     7.07873e-17 
            338     5.01728e-16 
            348     3.16803e-15 
            357     1.51858e-14 
            366      6.7257e-14 
            375     2.76657e-13 
            385     1.22856e-12 
            395     5.04447e-12 
            405     1.92668e-11 
            414     6.07617e-11 
            422     1.61585e-10 
            430     4.13771e-10 
            441       1.4221e-9 
            451      4.13604e-9 
            460       1.0372e-8 
            470       2.7587e-8 
            480       7.0295e-8 
            490      1.72094e-7 
            500      4.05692e-7 
            506       6.9613e-7 
            512      1.15223e-6 
            520      2.15519e-6 
            530      4.59063e-6 
            540      9.46668e-6 
            550      1.90295e-5 
            560       3.7214e-5 
            570      7.09861e-5 
            580     0.000132034 
            590     0.000240864 
            600     0.000429492 
            610     0.000750503 
            620      0.00128651 
            630      0.00216508 
            640      0.00358132 
            650      0.00582606 
            658      0.00850104 
            665       0.0117374 
            675       0.0183782 
            685        0.028372 
            695       0.0432132 
            705       0.0649708 
            716        0.100315 
            726        0.147068 
            735        0.205518 
            745        0.295024 
            755         0.41911 
            765        0.589448 
            775        0.821105 
            785         1.13326 
            795         1.55019 
            805         2.10257 
            815         2.82882 
            825         3.77579 
            835         5.00148 
            845         6.57671 
            855         8.58718 
            865         11.1359 
            875         14.3449 
            885         18.3621 
            895         23.3612 
            905         29.5491 
            915         90.8542 
            925         534.301 
            935          952.01 
            945         1810.49 
            955         2831.59 
            965         3837.34 
            975         2733.69 
            985         6640.94 
            995         8225.81 
           1005         9617.55 
           1015         8655.94 
           1025         4894.57 
           1035         11212.3 
           1045         17046.3 
           1055         22524.7 
           1065         35157.8 
           1075         61088.4 
           1085         91687.4 
           1095          103493 
           1105      1.03754e+6 
           1115      9.40199e+6 
           1125      1.09778e+7 
           1135      1.20102e+7 
           1145      8.65139e+6 
           1155      4.98945e+6 
           1165      2.03014e+6 
           1175          407066 
           1185          244669 
           1195         61191.1 
           1205         42682.3 
           1215           13685 
           1225           46464 
           1235         91095.8 
           1245          135492 
           1255          381603 
           1265       1.6857e+6 
           1275      5.84691e+6 
           1285      1.54025e+7 
           1295      2.23586e+7 
           1305      2.48133e+7 
           1315      3.47988e+7 
           1325      4.25864e+7 
           1335      4.74699e+7 
           1345       5.5282e+7 
           1355      5.38658e+7 
           1365       5.4513e+7 
           1375      5.34918e+7 
           1385      4.84977e+7 
           1395      4.69415e+7 
           1405      6.01958e+7 
           1415      7.22009e+7 
           1425       7.6369e+7 
           1435       7.1933e+7 
           1442      7.97769e+7 
           1447      8.03907e+7 
           1455       8.2835e+7 
           1465       7.8659e+7 
           1475      7.89952e+7 
           1485      7.95544e+7 
           1495      8.17401e+7 
           1505      8.33552e+7 
           1512      8.13394e+7 
           1517      8.28668e+7 
           1525      8.12691e+7 
           1535      8.03543e+7 
           1545       8.1404e+7 
           1555      7.55788e+7 
           1565      6.66561e+7 
           1575      7.26844e+7 
           1585      7.49028e+7 
           1595      7.71843e+7 
           1605      7.35668e+7 
           1615      7.61858e+7 
           1625      7.36774e+7 
           1635      7.75324e+7 
           1645      8.18843e+7 
           1655      7.20525e+7 
           1665      8.24552e+7 
           1672      7.30905e+7 
           1677      7.83444e+7 
           1685      8.27624e+7 
           1695      7.82064e+7 
           1705      7.75665e+7 
           1715      8.00101e+7 
           1725       7.8399e+7 
           1735       8.0773e+7 
           1745      7.87822e+7 
           1755       8.1061e+7 
           1765      7.52497e+7 
           1775      7.95028e+7 
           1785      7.82646e+7 
           1795      8.10582e+7 
           1805      7.85194e+7 
           1815      7.76851e+7 
           1825      7.55614e+7 
           1835      7.57291e+7 
           1845      7.24369e+7 
           1855      7.40874e+7 
           1865      7.44626e+7 
           1875      7.52382e+7 
           1885      7.51163e+7 
           1895      7.43456e+7 
           1905      7.24345e+7 
           1915      7.28953e+7 
           1925      7.34778e+7 
           1935      7.15974e+7 
           1945      7.39871e+7 
           1955      7.33691e+7 
           1967      7.34727e+7 
           1976      7.17562e+7 
           1984      7.11806e+7 
           1995      7.07414e+7 
           2005      6.92775e+7 
           2015      6.75941e+7 
           2025       6.7247e+7 
           2035       6.8811e+7 
           2045      6.88288e+7 
           2055      6.66887e+7 
           2065       6.6433e+7 
           2074      6.79588e+7 
           2078      6.84085e+7 
           2085      6.80738e+7 
           2095      6.66822e+7 
           2105      6.63732e+7 
           2115      6.60494e+7 
           2125      6.58514e+7 
           2135       6.2297e+7 
           2145      6.51818e+7 
           2155       6.4528e+7 
           2165      6.25138e+7 
           2175      6.22302e+7 
           2185      6.22947e+7 
           2195      6.42305e+7 
           2205      6.22561e+7 
           2215      5.94155e+7 
           2225       5.9502e+7 
           2235      6.26067e+7 
           2245      5.99684e+7 
           2255      5.84858e+7 
           2265      5.79257e+7 
           2275      6.01348e+7 
           2285      6.06342e+7 
           2295      5.85355e+7 
           2305      5.86413e+7 
           2315      5.79193e+7 
           2325      5.80716e+7 
           2335      5.73646e+7 
           2345      5.40079e+7 
           2355      5.69629e+7 
           2365      5.41888e+7 
           2375      5.58146e+7 
           2385      5.19214e+7 
           2395      5.48121e+7 
           2405      5.36798e+7 
           2415      5.40681e+7 
           2425      5.51305e+7 
           2435      5.34308e+7 
           2445      5.48077e+7 
           2455      5.41102e+7 
           2465      5.31456e+7 
           2475      5.19612e+7 
           2485      5.34534e+7 
           2495      5.23134e+7 
           2505      5.44415e+7 
           2513      5.25325e+7 
           2518      5.24049e+7 
           2525      5.03344e+7 
           2535      5.01655e+7 
           2545       5.0174e+7 
           2555      5.21238e+7 
           2565      5.17875e+7 
           2575      5.32104e+7 
           2585      5.33402e+7 
           2595      5.30821e+7 
           2605      5.18687e+7 
           2615      5.15074e+7 
           2625      5.18566e+7 
           2635      5.21924e+7 
           2645      5.46406e+7 
           2655      5.42031e+7 
           2665      5.25463e+7 
           2675      5.32271e+7 
           2685      5.35787e+7 
           2695      5.24141e+7 
           2705      5.24135e+7 
           2715      5.12257e+7 
           2725      5.11954e+7 
           2735       5.2383e+7 
           2745      4.90927e+7 
           2755      4.92367e+7 
           2765      5.04394e+7 
           2775       5.1686e+7 
           2785      5.12524e+7 
           2795      4.67255e+7 
           2805       4.9035e+7 
           2815      5.19248e+7 
           2825      5.15295e+7 
           2835      5.06042e+7 
           2845      4.99046e+7 
           2855      4.90426e+7 
           2865      4.98024e+7 
           2875      4.94429e+7 
           2885       5.0015e+7 
           2895      5.00162e+7 
           2910      5.09299e+7 
           2930      4.97631e+7 
           2950      4.94802e+7 
           2970      4.94268e+7 
           2990      4.92482e+7 
           3010      4.94317e+7 
           3030      4.92326e+7 
           3050      4.88807e+7 
           3070      4.84177e+7 
           3090      4.84282e+7 
           3110      4.80567e+7 
           3130      4.76367e+7 
           3150      4.75273e+7 
           3170      4.73344e+7 
           3190      4.64428e+7 
           3210       4.6652e+7 
           3230      4.61483e+7 
           3250      4.61919e+7 
           3270      4.62064e+7 
           3290       4.6071e+7 
           3310      4.59113e+7 
           3330      4.54125e+7 
           3350      4.48853e+7 
           3370      4.47787e+7 
           3390      4.45076e+7 
           3410      4.45832e+7 
           3430      4.43241e+7 
           3450      4.41251e+7 
           3470      4.38369e+7 
           3490       4.3639e+7 
           3510      4.35039e+7 
           3530      4.33177e+7 
           3550       4.3103e+7 
           3570      4.27604e+7 
           3590      4.25483e+7 
           3610      4.23239e+7 
           3630      4.21104e+7 
           3640      4.19902e+7 
           3650      4.21818e+7 
           3670      4.20114e+7 
           3690      4.04644e+7 
           3710      4.17043e+7 
           3730      4.30075e+7 
           3750       5.4608e+7 
           3770      5.82155e+7 
           3790      7.18467e+7 
           3810      8.57419e+7 
           3830      6.78087e+7 
           3850      9.65708e+7 
           3870      1.11385e+8 
           3890      5.78659e+7 
           3910      1.11175e+8 
           3930      1.21354e+8 
           3950      1.10388e+8 
           3970      5.57054e+7 
           3990      1.03971e+8 
           4010      1.20126e+8 
           4030      1.20707e+8 
           4050      1.18822e+8 
           4070      1.12321e+8 
           4090      8.17796e+7 
           4110      6.13375e+7 
           4130      1.04947e+8 
           4150      1.11021e+8 
           4170       1.1102e+8 
           4190      1.10018e+8 
           4210      1.08686e+8 
           4230      1.06983e+8 
           4250      1.05616e+8 
           4270      1.03771e+8 
           4290      1.01383e+8 
           4310      9.49748e+7 
           4330      6.69754e+7 
           4350      5.65159e+7 
           4370      9.00904e+7 
           4390      9.45552e+7 
           4410      9.48037e+7 
           4430      9.41742e+7 
           4450      9.32516e+7 
           4470      9.21022e+7 
           4490      9.05903e+7 
           4510      8.99812e+7 
           4530      8.88323e+7 
           4550      8.75053e+7 
           4570      8.67339e+7 
           4590      8.55755e+7 
           4610      8.47265e+7 
           4630      8.35444e+7 
           4650       8.2667e+7 
           4670      8.16582e+7 
           4690       8.0547e+7 
           4710      7.91529e+7 
           4730      7.85472e+7 
           4750      7.75249e+7 
           4770      7.64175e+7 
           4790      7.51354e+7 
           4810      7.32564e+7 
           4830      6.88738e+7 
           4850       5.1593e+7 
           4870      4.16124e+7 
           4890      6.44196e+7 
           4910       6.8648e+7 
           4930      6.88935e+7 
           4950      6.86685e+7 
           4970      6.80895e+7 
           4990      6.73753e+7 
           5010      6.65923e+7 
           5030      6.59923e+7 
           5050      6.51973e+7 
           5070      6.45316e+7 
           5090       6.3803e+7 
           5110      6.30852e+7 
           5130      6.23695e+7 
           5150      6.16602e+7 
           5170      6.06358e+7 
           5190       6.0126e+7 
           5210      5.96236e+7 
           5230      5.88972e+7 
           5250      5.83386e+7 
           5270      5.76063e+7 
           5290      5.70625e+7 
           5310       5.6397e+7 
           5330      5.57915e+7 
           5350      5.52304e+7 
           5370      5.46133e+7 
           5390      5.40363e+7 
           5410      5.34355e+7 
           5430      5.28816e+7 
           5450      5.23267e+7 
           5470      5.17698e+7 
           5490      5.12283e+7 
           5510      5.06871e+7 
           5530      5.01375e+7 
           5550      4.96288e+7 
           5570      4.91031e+7 
           5590      4.85884e+7 
           5610      4.80858e+7 
           5630      4.75902e+7 
           5650      4.70958e+7 
           5670      4.66094e+7 
           5690      4.61322e+7 
           5710      4.56594e+7 
           5730      4.51944e+7 
           5750      4.47312e+7 
           5770       4.4278e+7 
           5790      4.38288e+7 
           5810      4.33858e+7 
           5830      4.29479e+7 
           5850       4.2516e+7 
           5870      4.20661e+7 
           5890      4.16071e+7 
           5910      4.12527e+7 
           5930      4.08442e+7 
           5950       4.0436e+7 
           5970      4.00376e+7 
           5990      3.96394e+7 
           6010      3.92509e+7 
           6030      3.88677e+7 
           6050      3.84896e+7 
           6070      3.81148e+7 
           6090      3.77439e+7 
           6110      3.73782e+7 
           6130      3.70144e+7 
           6150      3.66385e+7 
           6170      3.63044e+7 
           6190      3.59611e+7 
           6210      3.56175e+7 
           6230      3.52756e+7 
           6250      3.49277e+7 
           6270      3.46113e+7 
           6290       3.4284e+7 
           6310      3.39563e+7 
           6330      3.36386e+7 
           6350      3.32907e+7 
           6370      3.29947e+7 
           6390      3.27008e+7 
           6410      3.23834e+7 
           6430       3.2031e+7 
           6450      3.16814e+7 
           6470      3.13436e+7 
           6490      3.09307e+7 
           6510      3.03596e+7 
           6530       2.9157e+7 
           6550      2.48574e+7 
           6570      2.00422e+7 
           6590       2.7303e+7 
           6610      2.87522e+7 
           6630      2.89346e+7 
           6650      2.88315e+7 
           6670      2.86403e+7 
           6690      2.84205e+7 
           6710      2.82304e+7 
           6730      2.79797e+7 
           6750      2.77306e+7 
           6770      2.74864e+7 
           6790      2.72422e+7 
           6810      2.70012e+7 
           6830      2.67609e+7 
           6850      2.65262e+7 
           6870       2.6293e+7 
           6890       2.6062e+7 
           6910       2.5834e+7 
           6930      2.56082e+7 
           6950      2.53846e+7 
           6970      2.51639e+7 
           6990      2.49461e+7 
           7010      2.47281e+7 
           7030      2.45159e+7 
           7050      2.43058e+7 
           7070      2.40969e+7 
           7090      2.38907e+7 
           7110      2.36715e+7 
           7130      2.34826e+7 
           7150      2.32828e+7 
           7170      2.30864e+7 
           7190      2.28897e+7 
           7210      2.26969e+7 
           7230      2.25045e+7 
           7250      2.23153e+7 
           7270      2.21285e+7 
           7290      2.19421e+7 
           7310      2.17587e+7 
           7330       2.1577e+7 
           7350      2.13984e+7 
           7370      2.12207e+7 
           7390      2.10446e+7 
           7410      2.08694e+7 
           7430      2.06958e+7 
           7450      2.05264e+7 
           7470      2.03532e+7 
           7490      2.01889e+7 
           7510      2.00254e+7 
           7530      1.98634e+7 
           7550      1.97021e+7 
           7570      1.95422e+7 
           7590      1.93838e+7 
           7610      1.92268e+7 
           7630      1.90717e+7 
           7650      1.89174e+7 
           7670      1.87645e+7 
           7690      1.86147e+7 
           7710      1.84644e+7 
           7730      1.83186e+7 
           7750      1.81727e+7 
           7770      1.79202e+7 
           7790      1.78847e+7 
           7810      1.77432e+7 
           7830      1.76017e+7 
           7850       1.7462e+7 
           7870      1.73192e+7 
           7890      1.71789e+7 
           7910      1.70542e+7 
           7930      1.69209e+7 
           7950      1.67859e+7 
           7970       1.6659e+7 
           7990      1.65185e+7 
           8010      1.64009e+7 
           8030      1.62743e+7 
           8050      1.61482e+7 
           8070      1.60237e+7 
           8090      1.59002e+7 
           8110      1.57784e+7 
           8130      1.56575e+7 
           8150      1.55377e+7 
           8170      1.54194e+7 
           8190      1.52941e+7 
           8210      1.52253e+7 
           8230      1.51164e+7 
           8250      1.50094e+7 
           8270      1.49165e+7 
           8290      1.48134e+7 
           8310      1.47111e+7 
           8330      1.45938e+7 
           8350      1.44986e+7 
           8370      1.43815e+7 
           8390      1.42563e+7 
           8410      1.41231e+7 
           8430      1.40074e+7 
           8450      1.38842e+7 
           8470      1.35881e+7 
           8490      1.37657e+7 
           8510      1.31574e+7 
           8530      1.36866e+7 
           8550      1.24919e+7 
           8570      1.37397e+7 
           8590      1.27419e+7 
           8610      1.24241e+7 
           8630      1.38042e+7 
           8650      1.31554e+7 
           8670      1.09878e+7 
           8690      1.34701e+7 
           8710      1.39575e+7 
           8730      1.32901e+7 
           8750      1.04065e+7 
           8770      1.25524e+7 
           8790      1.38211e+7 
           8810       1.3989e+7 
           8830      1.35614e+7 
           8850      1.18446e+7 
           8870      9.98985e+6 
           8890       1.2723e+7 
           8910      1.35211e+7 
           8930      1.36746e+7 
           8950       1.3606e+7 
           8970      1.32893e+7 
           8990      1.24299e+7 
           9010      9.77277e+6 
           9030       1.0684e+7 
           9050       1.2468e+7 
           9070      1.28935e+7 
           9090      1.29348e+7 
           9110      1.29721e+7 
           9130      1.29072e+7 
           9150      1.27779e+7 
           9170      1.25686e+7 
           9190      1.21477e+7 
