# Kurucz ODFNEW /NOVER (2003)
# teff = 21000 K (value for the effective temperature for the model. Temperatures are given in K)
# logg = 3.5 log(cm/s2) (value for Log(G) for the model.)
# meta = -2  (value for the Metallicity for the model.)
# lh = 1.25  (l/Hp where l is the  mixing length of the convective element and Hp is the pressure scale height)
# vtur = 2 km/s (Microturbulence velocity)
# alpha = 0.4  (Alpha)
#
# column 1: WAVELENGTH (ANGSTROM), Wavelength in Angstrom
# column 2: FLUX (ERG/CM2/S/A), Flux in erg/cm2/s/A
          147.2      4.5838e-19 
            151      2.9562e-18 
          155.2     2.09283e-17 
          158.8     1.03368e-16 
            162     4.03157e-16 
            166     2.05345e-15 
          170.3     1.08595e-14 
          173.4      3.4268e-14 
          176.8     1.15328e-13 
          180.2      3.7065e-13 
          181.7     6.11727e-13 
          186.1     2.53635e-12 
            191     1.14245e-11 
          193.9      2.6841e-11 
          198.4     9.60234e-11 
          201.8      2.4195e-10 
            205     5.61011e-10 
          210.5      2.23826e-9 
          216.2      8.69318e-9 
          219.8       1.9727e-8 
            223      3.99312e-8 
          226.8      8.97986e-8 
            230      3.65826e-7 
            234      8.79627e-7 
            240      2.62958e-6 
          246.5      8.09479e-6 
          252.4      2.14775e-5 
          256.8      4.23241e-5 
            260       7.0007e-5 
            264     0.000126776 
          268.5     0.000241661 
          273.5     0.000482199 
          278.5     0.000939271 
            284      0.00190065 
            290      0.00397044 
            296      0.00803285 
            301        0.014143 
            308       0.0299222 
            318       0.0842541 
            328        0.219635 
            338        0.539881 
            348         1.25611 
            357         2.57286 
            366         5.08105 
            375         9.67374 
            385         19.0643 
            395         36.1844 
            405         66.3953 
            414         111.619 
            422         173.459 
            430         264.627 
            441         461.282 
            451         744.565 
            460         1123.14 
            470            1738 
            480         2635.14 
            490            3922 
            500         5733.52 
            506         44469.9 
            512          130761 
            520          167397 
            530          245525 
            540          272431 
            550          403717 
            560          499251 
            570          623824 
            580          634225 
            590          862084 
            600      1.11261e+6 
            610      1.34857e+6 
            620      1.59042e+6 
            630      1.89219e+6 
            640      2.18008e+6 
            650      2.56666e+6 
            658      2.92873e+6 
            665      3.22672e+6 
            675      3.65315e+6 
            685       4.1764e+6 
            695      4.88069e+6 
            705       5.5046e+6 
            716      6.31302e+6 
            726       7.0797e+6 
            735       7.9129e+6 
            745      8.90399e+6 
            755      9.94059e+6 
            765      1.10149e+7 
            775      1.22617e+7 
            785      1.35506e+7 
            795      1.48641e+7 
            805      1.63371e+7 
            815       1.7829e+7 
            825      1.95293e+7 
            835      2.09469e+7 
            845      2.29897e+7 
            855      2.48148e+7 
            865      2.69688e+7 
            875      2.91415e+7 
            885       3.1476e+7 
            895      3.38049e+7 
            905       3.5745e+7 
            915      6.67761e+7 
            925      6.65862e+8 
            935      2.45496e+9 
            945      7.16947e+9 
            955      9.55594e+9 
            965     1.21066e+10 
            975      4.66996e+9 
            985     1.31844e+10 
            995     1.27118e+10 
           1005     1.31192e+10 
           1015     1.21529e+10 
           1025      4.36674e+9 
           1035     1.07076e+10 
           1045     1.33525e+10 
           1055     1.30042e+10 
           1065     1.18932e+10 
           1075     1.25173e+10 
           1085     1.17359e+10 
           1095     1.23991e+10 
           1105     1.16451e+10 
           1115     1.16213e+10 
           1125     1.09966e+10 
           1135     1.14689e+10 
           1145     1.07991e+10 
           1155     1.11074e+10 
           1165     1.10258e+10 
           1175      9.69312e+9 
           1185     1.06583e+10 
           1195      9.76868e+9 
           1205      7.91637e+9 
           1215      2.97892e+9 
           1225      8.40359e+9 
           1235      9.58159e+9 
           1245      9.57679e+9 
           1255      9.33724e+9 
           1265      9.20527e+9 
           1275      9.27001e+9 
           1285      9.08271e+9 
           1295      8.13045e+9 
           1305       8.1552e+9 
           1315      8.63315e+9 
           1325      8.36471e+9 
           1335      8.02151e+9 
           1345      8.11592e+9 
           1355      8.10963e+9 
           1365       7.8497e+9 
           1375      7.74292e+9 
           1385      7.67884e+9 
           1395      7.21875e+9 
           1405      7.23983e+9 
           1415       7.2707e+9 
           1425       7.1692e+9 
           1435      7.10439e+9 
           1442      7.07236e+9 
           1447       7.0027e+9 
           1455      6.89743e+9 
           1465       6.7655e+9 
           1475      6.66472e+9 
           1485      6.54212e+9 
           1495      6.43332e+9 
           1505      6.24133e+9 
           1512      6.15929e+9 
           1517      6.15984e+9 
           1525      6.06801e+9 
           1535      5.83603e+9 
           1545      5.84359e+9 
           1555      5.67737e+9 
           1565      5.70487e+9 
           1575      5.66668e+9 
           1585      5.57726e+9 
           1595      5.51628e+9 
           1605      5.35386e+9 
           1615      5.27405e+9 
           1625      5.24671e+9 
           1635        5.205e+9 
           1645      5.08956e+9 
           1655      5.03952e+9 
           1665      4.99357e+9 
           1672      4.87773e+9 
           1677      4.92866e+9 
           1685      4.86445e+9 
           1695      4.76382e+9 
           1705      4.67117e+9 
           1715      4.56319e+9 
           1725      4.51575e+9 
           1735      4.47311e+9 
           1745      4.40096e+9 
           1755      4.37418e+9 
           1765      4.21435e+9 
           1775      4.20036e+9 
           1785      4.16147e+9 
           1795      4.13522e+9 
           1805      4.08872e+9 
           1815      3.99553e+9 
           1825      3.96216e+9 
           1835      3.90376e+9 
           1845      3.76007e+9 
           1855      3.67311e+9 
           1865      3.66697e+9 
           1875      3.67843e+9 
           1885      3.52596e+9 
           1895      3.41299e+9 
           1905      3.48459e+9 
           1915      3.37443e+9 
           1925      3.31781e+9 
           1935      3.33241e+9 
           1945      3.32751e+9 
           1955      3.19065e+9 
           1967      3.22934e+9 
           1976      3.23694e+9 
           1984       3.1439e+9 
           1995      3.05821e+9 
           2005       3.0812e+9 
           2015      3.06906e+9 
           2025      3.05205e+9 
           2035      2.97601e+9 
           2045      2.93923e+9 
           2055      2.85672e+9 
           2065      2.84882e+9 
           2074      2.87355e+9 
           2078      2.80448e+9 
           2085       2.8031e+9 
           2095      2.73632e+9 
           2105      2.73971e+9 
           2115      2.71648e+9 
           2125      2.70181e+9 
           2135      2.66284e+9 
           2145       2.6149e+9 
           2155      2.59896e+9 
           2165      2.56882e+9 
           2175      2.53411e+9 
           2185      2.50694e+9 
           2195      2.48102e+9 
           2205      2.44958e+9 
           2215      2.42068e+9 
           2225      2.38733e+9 
           2235      2.35952e+9 
           2245      2.33676e+9 
           2255      2.30474e+9 
           2265      2.28238e+9 
           2275      2.25501e+9 
           2285       2.2312e+9 
           2295      2.18619e+9 
           2305      2.17826e+9 
           2315      2.14921e+9 
           2325       2.1261e+9 
           2335      2.09376e+9 
           2345      2.06813e+9 
           2355      2.05427e+9 
           2365       2.0271e+9 
           2375      2.00519e+9 
           2385      1.97795e+9 
           2395      1.95785e+9 
           2405      1.93685e+9 
           2415      1.91174e+9 
           2425       1.8985e+9 
           2435       1.8743e+9 
           2445      1.85446e+9 
           2455       1.8362e+9 
           2465      1.81426e+9 
           2475      1.79489e+9 
           2485      1.77486e+9 
           2495      1.73259e+9 
           2505      1.73559e+9 
           2513      1.70982e+9 
           2518      1.70856e+9 
           2525      1.69627e+9 
           2535      1.67711e+9 
           2545       1.6511e+9 
           2555       1.6434e+9 
           2565       1.6227e+9 
           2575      1.61041e+9 
           2585      1.59301e+9 
           2595      1.57578e+9 
           2605      1.57014e+9 
           2615      1.55485e+9 
           2625      1.53816e+9 
           2635      1.51729e+9 
           2645      1.50551e+9 
           2655      1.48799e+9 
           2665      1.46974e+9 
           2675      1.45466e+9 
           2685      1.44834e+9 
           2695      1.42257e+9 
           2705      1.41825e+9 
           2715      1.40338e+9 
           2725      1.37808e+9 
           2735      1.37492e+9 
           2745      1.35527e+9 
           2755      1.34277e+9 
           2765      1.32179e+9 
           2775      1.32016e+9 
           2785      1.30637e+9 
           2795      1.27274e+9 
           2805      1.27153e+9 
           2815      1.26793e+9 
           2825      1.24353e+9 
           2835      1.23323e+9 
           2845      1.22998e+9 
           2855        1.218e+9 
           2865       1.2063e+9 
           2875      1.19432e+9 
           2885      1.18271e+9 
           2895      1.17109e+9 
           2910      1.15384e+9 
           2930      1.13077e+9 
           2950      1.10276e+9 
           2970      1.08865e+9 
           2990      1.06747e+9 
           3010      1.04747e+9 
           3030      1.02811e+9 
           3050      1.00888e+9 
           3070      9.90099e+8 
           3090      9.70972e+8 
           3110      9.53771e+8 
           3130      9.37353e+8 
           3150      9.20173e+8 
           3170      9.03087e+8 
           3190      8.80063e+8 
           3210      8.70776e+8 
           3230      8.55043e+8 
           3250      8.39737e+8 
           3270      8.25797e+8 
           3290      8.10149e+8 
           3310      7.97087e+8 
           3330      7.83192e+8 
           3350      7.68196e+8 
           3370      7.56285e+8 
           3390       7.4329e+8 
           3410      7.30579e+8 
           3430      7.15039e+8 
           3450      7.00538e+8 
           3470      6.90734e+8 
           3490      6.79376e+8 
           3510      6.71319e+8 
           3530      6.60741e+8 
           3550      6.50028e+8 
           3570      6.41908e+8 
           3590      6.28345e+8 
           3610        6.188e+8 
           3630      6.07941e+8 
           3640      6.06339e+8 
           3650      6.00646e+8 
           3670      5.93222e+8 
           3690      5.75465e+8 
           3710      5.65063e+8 
           3730      5.57747e+8 
           3750      6.18948e+8 
           3770      6.26261e+8 
           3790      6.55731e+8 
           3810      6.84472e+8 
           3830       5.9896e+8 
           3850      7.00924e+8 
           3870      6.98854e+8 
           3890      5.71165e+8 
           3910      6.87339e+8 
           3930      6.73702e+8 
           3950        6.654e+8 
           3970      5.30905e+8 
           3990       6.4072e+8 
           4010      6.32752e+8 
           4030      6.01458e+8 
           4050      6.18477e+8 
           4070      6.05795e+8 
           4090      5.67996e+8 
           4110      4.96579e+8 
           4130      5.69945e+8 
           4150      5.64268e+8 
           4170      5.58782e+8 
           4190      5.51572e+8 
           4210      5.42943e+8 
           4230      5.34263e+8 
           4250      5.25638e+8 
           4270       5.1618e+8 
           4290      5.09065e+8 
           4310      4.99363e+8 
           4330      4.60139e+8 
           4350      4.19205e+8 
           4370      4.75723e+8 
           4390       4.6006e+8 
           4410      4.63432e+8 
           4430      4.54516e+8 
           4450      4.49678e+8 
           4470      4.26903e+8 
           4490      4.35535e+8 
           4510      4.29662e+8 
           4530      4.23159e+8 
           4550      4.16718e+8 
           4570      4.10427e+8 
           4590       4.0448e+8 
           4610      3.98531e+8 
           4630      3.92671e+8 
           4650      3.86443e+8 
           4670      3.81188e+8 
           4690      3.75734e+8 
           4710      3.65706e+8 
           4730      3.64708e+8 
           4750      3.59256e+8 
           4770      3.54561e+8 
           4790      3.49471e+8 
           4810      3.44357e+8 
           4830      3.38136e+8 
           4850       3.1655e+8 
           4870      2.82648e+8 
           4890      3.23398e+8 
           4910      3.20487e+8 
           4930      3.09925e+8 
           4950      3.11977e+8 
           4970      3.07717e+8 
           4990      3.03455e+8 
           5010      2.95829e+8 
           5030      2.95164e+8 
           5050      2.89152e+8 
           5070      2.87198e+8 
           5090      2.83288e+8 
           5110      2.79459e+8 
           5130       2.7568e+8 
           5150      2.71967e+8 
           5170      2.68359e+8 
           5190       2.6477e+8 
           5210      2.61145e+8 
           5230      2.57802e+8 
           5250      2.54392e+8 
           5270      2.51041e+8 
           5290       2.4776e+8 
           5310      2.44521e+8 
           5330      2.41323e+8 
           5350      2.38153e+8 
           5370      2.35115e+8 
           5390      2.32077e+8 
           5410       2.2909e+8 
           5430      2.26115e+8 
           5450      2.23254e+8 
           5470      2.20415e+8 
           5490      2.17625e+8 
           5510      2.14869e+8 
           5530       2.1216e+8 
           5550      2.09496e+8 
           5570      2.06865e+8 
           5590       2.0429e+8 
           5610      2.01723e+8 
           5630      1.99246e+8 
           5650      1.96705e+8 
           5670      1.94301e+8 
           5690      1.91925e+8 
           5710        1.896e+8 
           5730      1.87292e+8 
           5750      1.84989e+8 
           5770       1.8277e+8 
           5790      1.80554e+8 
           5810      1.78376e+8 
           5830      1.76223e+8 
           5850      1.74117e+8 
           5870      1.67433e+8 
           5890      1.69838e+8 
           5910      1.67957e+8 
           5930      1.65969e+8 
           5950      1.63993e+8 
           5970      1.62083e+8 
           5990      1.60162e+8 
           6010      1.58305e+8 
           6030      1.56449e+8 
           6050      1.54634e+8 
           6070      1.52839e+8 
           6090      1.51065e+8 
           6110      1.49331e+8 
           6130      1.47616e+8 
           6150      1.45911e+8 
           6170      1.44254e+8 
           6190      1.42605e+8 
           6210      1.40985e+8 
           6230      1.39382e+8 
           6250      1.37807e+8 
           6270      1.36258e+8 
           6290      1.34727e+8 
           6310      1.33212e+8 
           6330      1.31732e+8 
           6350      1.30203e+8 
           6370      1.28792e+8 
           6390      1.27388e+8 
           6410       1.2598e+8 
           6430      1.24596e+8 
           6450      1.23227e+8 
           6470      1.21863e+8 
           6490      1.20541e+8 
           6510      1.19214e+8 
           6530      1.17584e+8 
           6550      1.13205e+8 
           6570      1.00822e+8 
           6590      1.13267e+8 
           6610       1.1285e+8 
           6630      1.11716e+8 
           6650      1.10602e+8 
           6670        1.085e+8 
           6690      1.07364e+8 
           6710      1.07118e+8 
           6730      1.05983e+8 
           6750      1.04868e+8 
           6770      1.03765e+8 
           6790      1.02664e+8 
           6810      1.01599e+8 
           6830      1.00536e+8 
           6850      9.94924e+7 
           6870       9.8459e+7 
           6890      9.74438e+7 
           6910      9.64387e+7 
           6930      9.54357e+7 
           6950      9.44661e+7 
           6970      9.34982e+7 
           6990      9.25321e+7 
           7010      9.15986e+7 
           7030      9.06665e+7 
           7050      8.97511e+7 
           7070      8.74804e+7 
           7090      8.79468e+7 
           7110      8.70652e+7 
           7130      8.61921e+7 
           7150      8.53274e+7 
           7170      8.44563e+7 
           7190      8.36373e+7 
           7210      8.28044e+7 
           7230      8.18856e+7 
           7250      8.11693e+7 
           7270       8.0374e+7 
           7290      7.89625e+7 
           7310      7.87918e+7 
           7330      7.80329e+7 
           7350      7.72671e+7 
           7370      7.65154e+7 
           7390      7.57776e+7 
           7410      7.50397e+7 
           7430      7.43156e+7 
           7450      7.36116e+7 
           7470      7.29007e+7 
           7490       7.2203e+7 
           7510      7.14849e+7 
           7530      7.08267e+7 
           7550      7.01545e+7 
           7570      6.94885e+7 
           7590      6.88285e+7 
           7610      6.81809e+7 
           7630      6.75328e+7 
           7650      6.69033e+7 
           7670      6.62731e+7 
           7690      6.56485e+7 
           7710      6.50358e+7 
           7730      6.44349e+7 
           7750      6.38268e+7 
           7770      6.32116e+7 
           7790      6.26578e+7 
           7810      6.20285e+7 
           7830      6.15092e+7 
           7850      6.10054e+7 
           7870      6.04458e+7 
           7890      5.98535e+7 
           7910      5.93531e+7 
           7930      5.87527e+7 
           7950      5.81392e+7 
           7970      5.75738e+7 
           7990      5.70717e+7 
           8010      5.65404e+7 
           8030      5.60605e+7 
           8050       5.5591e+7 
           8070      5.51174e+7 
           8090      5.45229e+7 
           8110      5.40951e+7 
           8130      5.36879e+7 
           8150      5.31054e+7 
           8170      5.27469e+7 
           8190      5.22127e+7 
           8210      5.16686e+7 
           8230      5.13794e+7 
           8250       5.0943e+7 
           8270      5.02314e+7 
           8290      4.99926e+7 
           8310       4.9575e+7 
           8330      4.91336e+7 
           8350      4.84673e+7 
           8370      4.81559e+7 
           8390      4.78008e+7 
           8410       4.7351e+7 
           8430      4.68647e+7 
           8450      4.62184e+7 
           8470      4.57977e+7 
           8490      4.57604e+7 
           8510      4.47653e+7 
           8530      4.52121e+7 
           8550      4.32415e+7 
           8570      4.52153e+7 
