# Kurucz ODFNEW /NOVER (2003)
# teff = 18000 K (value for the effective temperature for the model. Temperatures are given in K)
# logg = 4.5 log(cm/s2) (value for Log(G) for the model.)
# meta = 0.5  (value for the Metallicity for the model.)
# lh = 1.25  (l/Hp where l is the  mixing length of the convective element and Hp is the pressure scale height)
# vtur = 2 km/s (Microturbulence velocity)
# alpha = 0  (Alpha)
#
# column 1: WAVELENGTH (ANGSTROM), Wavelength in Angstrom
# column 2: FLUX (ERG/CM2/S/A), Flux in erg/cm2/s/A
          147.2     6.34262e-23 
            151     6.42477e-22 
          155.2     5.26422e-21 
          158.8     2.87864e-20 
            162     1.22499e-19 
            166     6.93359e-19 
          170.3     4.07748e-18 
          173.4     1.39102e-17 
          176.8     5.07589e-17 
          180.2     1.76484e-16 
          181.7     3.01156e-16 
          186.1     1.37722e-15 
            191     6.89536e-15 
          193.9     1.71515e-14 
          198.4     6.69771e-14 
          201.8     1.80653e-13 
            205     4.47046e-13 
          210.5     1.97622e-12 
          216.2      8.5207e-12 
          219.8     2.06276e-11 
            223     4.40683e-11 
          226.8     1.05765e-10 
            230     2.53071e-10 
            234     6.60474e-10 
            240      2.31865e-9 
          246.5      8.35086e-9 
          252.4      2.52581e-8 
          256.8      5.52444e-8 
            260      9.76264e-8 
            264      1.92602e-7 
          268.5      4.02851e-7 
          273.5      8.87554e-7 
          278.5      1.90778e-6 
            284      4.29981e-6 
            290      1.00113e-5 
            296      2.24689e-5 
            301      4.30448e-5 
            308     0.000102784 
            318     0.000337423 
            328      0.00101144 
            338      0.00287827 
            348      0.00764322 
            357       0.0179274 
            366       0.0396877 
            375       0.0832863 
            385        0.183118 
            395         0.38512 
            405        0.780676 
            414         1.43246 
            422         2.38962 
            430         3.91073 
            441         7.50569 
            451         13.1614 
            460         21.2827 
            470         35.5821 
            480         58.0382 
            490          92.833 
            500         145.323 
            506         1198.17 
            512          8783.9 
            520         11432.4 
            530         16309.7 
            540           20007 
            550         30514.5 
            560         39144.5 
            570         52815.2 
            580         62277.9 
            590         89341.5 
            600          114003 
            610          148110 
            620          177182 
            630          215635 
            640          243522 
            650          252868 
            658          349961 
            665          389802 
            675          453812 
            685          525627 
            695          644860 
            705          734548 
            716          862209 
            726          985717 
            735      1.09597e+6 
            745      1.28625e+6 
            755      1.47275e+6 
            765      1.68227e+6 
            775      1.91324e+6 
            785       2.1629e+6 
            795      2.37968e+6 
            805      2.64392e+6 
            815      2.91328e+6 
            825      3.28411e+6 
            835      3.46593e+6 
            845      3.88429e+6 
            855      4.28699e+6 
            865      4.74471e+6 
            875      5.25514e+6 
            885      5.87298e+6 
            895      6.40702e+6 
            905      6.63005e+6 
            915      1.35838e+7 
            925      6.13246e+7 
            935      1.36829e+8 
            945      3.85759e+8 
            955      8.16473e+8 
            965       1.1592e+9 
            975      3.02981e+8 
            985      1.51546e+9 
            995      1.49923e+9 
           1005      1.93045e+9 
           1015      1.83332e+9 
           1025      4.22116e+8 
           1035      1.08754e+9 
           1045      2.79829e+9 
           1055      2.94279e+9 
           1065      2.28892e+9 
           1075      3.01201e+9 
           1085      2.66003e+9 
           1095       3.2334e+9 
           1105      2.81961e+9 
           1115      2.83475e+9 
           1125      2.82366e+9 
           1135      3.75114e+9 
           1145      3.22268e+9 
           1155      3.63393e+9 
           1165      3.94348e+9 
           1175      3.02939e+9 
           1185        4.072e+9 
           1195      2.12094e+9 
           1205      1.29321e+9 
           1215      5.38034e+8 
           1225      1.85191e+9 
           1235      4.16787e+9 
           1245      4.63783e+9 
           1255      4.59292e+9 
           1265      3.94733e+9 
           1275      4.47962e+9 
           1285      4.97872e+9 
           1295      2.90798e+9 
           1305      2.34396e+9 
           1315       4.5609e+9 
           1325      4.37752e+9 
           1335      3.69558e+9 
           1345      4.66667e+9 
           1355      4.46426e+9 
           1365      3.81031e+9 
           1375      4.02609e+9 
           1385      4.12508e+9 
           1395      3.61857e+9 
           1405      3.79358e+9 
           1415      3.65134e+9 
           1425      3.86873e+9 
           1435      3.84153e+9 
           1442      4.13515e+9 
           1447      4.12047e+9 
           1455      4.01122e+9 
           1465      3.68703e+9 
           1475      3.66197e+9 
           1485      3.63451e+9 
           1495      3.70337e+9 
           1505      3.37024e+9 
           1512      2.98794e+9 
           1517      3.23478e+9 
           1525      3.26589e+9 
           1535      2.86629e+9 
           1545      3.00181e+9 
           1555      2.83199e+9 
           1565      2.87743e+9 
           1575      3.06183e+9 
           1585      3.16382e+9 
           1595      3.19565e+9 
           1605      3.13548e+9 
           1615      3.17867e+9 
           1625      2.98231e+9 
           1635      3.19044e+9 
           1645      3.19215e+9 
           1655      2.91134e+9 
           1665      3.22124e+9 
           1672      3.04218e+9 
           1677      3.14275e+9 
           1685      3.27552e+9 
           1695      3.05695e+9 
           1705      2.88279e+9 
           1715      2.64561e+9 
           1725      2.61794e+9 
           1735      2.79885e+9 
           1745      2.69734e+9 
           1755      2.84918e+9 
           1765      2.59483e+9 
           1775       2.5872e+9 
           1785      2.68008e+9 
           1795      2.84731e+9 
           1805      2.84834e+9 
           1815      2.50553e+9 
           1825       2.6244e+9 
           1835      2.46463e+9 
           1845      2.25317e+9 
           1855      2.14015e+9 
           1865      2.21539e+9 
           1875      2.51651e+9 
           1885      2.23118e+9 
           1895      2.08307e+9 
           1905      2.29026e+9 
           1915      2.11303e+9 
           1925      2.06246e+9 
           1935      2.18216e+9 
           1945      2.20081e+9 
           1955      2.01207e+9 
           1967      2.24698e+9 
           1976      2.34263e+9 
           1984      2.14892e+9 
           1995      2.08393e+9 
           2005      2.17986e+9 
           2015      2.02847e+9 
           2025       2.2321e+9 
           2035      2.01518e+9 
           2045      2.08128e+9 
           2055      1.97722e+9 
           2065      2.00785e+9 
           2074      2.11859e+9 
           2078       1.9295e+9 
           2085      2.04318e+9 
           2095      1.89325e+9 
           2105      1.94273e+9 
           2115      1.95227e+9 
           2125      1.97599e+9 
           2135      1.85752e+9 
           2145      1.84835e+9 
           2155      1.92906e+9 
           2165      1.87681e+9 
           2175      1.85282e+9 
           2185      1.77206e+9 
           2195       1.8318e+9 
           2205      1.78539e+9 
           2215      1.72054e+9 
           2225      1.63556e+9 
           2235      1.72081e+9 
           2245      1.66455e+9 
           2255      1.57892e+9 
           2265      1.63367e+9 
           2275      1.65916e+9 
           2285      1.67172e+9 
           2295      1.58802e+9 
           2305       1.5496e+9 
           2315      1.47529e+9 
           2325      1.44904e+9 
           2335      1.37606e+9 
           2345      1.36373e+9 
           2355      1.38906e+9 
           2365      1.32439e+9 
           2375      1.33751e+9 
           2385      1.27558e+9 
           2395       1.3571e+9 
           2405      1.27908e+9 
           2415       1.3041e+9 
           2425      1.32572e+9 
           2435      1.25792e+9 
           2445       1.3154e+9 
           2455      1.28583e+9 
           2465      1.27932e+9 
           2475      1.23241e+9 
           2485       1.2862e+9 
           2495      1.23276e+9 
           2505      1.27853e+9 
           2513      1.18802e+9 
           2518      1.24576e+9 
           2525      1.17983e+9 
           2535      1.18297e+9 
           2545      1.13414e+9 
           2555      1.17912e+9 
           2565      1.16222e+9 
           2575      1.20673e+9 
           2585      1.19803e+9 
           2595      1.19816e+9 
           2605      1.16044e+9 
           2615      1.15098e+9 
           2625      1.14977e+9 
           2635      1.15305e+9 
           2645      1.17483e+9 
           2655      1.16455e+9 
           2665      1.10464e+9 
           2675      1.13341e+9 
           2685      1.11599e+9 
           2695      1.08724e+9 
           2705      1.09064e+9 
           2715      1.06376e+9 
           2725      1.05237e+9 
           2735      1.07853e+9 
           2745      1.00359e+9 
           2755      9.99645e+8 
           2765      1.00829e+9 
           2775      1.02956e+9 
           2785       1.0248e+9 
           2795      9.57011e+8 
           2805      9.91713e+8 
           2815      1.00603e+9 
           2825      9.89002e+8 
           2835      9.36383e+8 
           2845      9.29393e+8 
           2855      9.35743e+8 
           2865      9.54052e+8 
           2875      9.34802e+8 
           2885      9.31954e+8 
           2895      9.23369e+8 
           2910      9.26998e+8 
           2930      9.02055e+8 
           2950      8.80688e+8 
           2970      8.72368e+8 
           2990      8.53995e+8 
           3010      8.47299e+8 
           3030       8.3968e+8 
           3050      8.19956e+8 
           3070      8.04271e+8 
           3090      7.91763e+8 
           3110      7.74173e+8 
           3130      7.63311e+8 
           3150      7.50839e+8 
           3170      7.34347e+8 
           3190        7.101e+8 
           3210      7.08189e+8 
           3230      6.97388e+8 
           3250      6.86655e+8 
           3270      6.76344e+8 
           3290      6.65048e+8 
           3310      6.56038e+8 
           3330      6.43221e+8 
           3350      6.30126e+8 
           3370      6.20314e+8 
           3390      6.10328e+8 
           3410      6.01537e+8 
           3430      5.89483e+8 
           3450      5.78554e+8 
           3470      5.69307e+8 
           3490      5.60512e+8 
           3510      5.52522e+8 
           3530      5.45069e+8 
           3550      5.36494e+8 
           3570      5.29613e+8 
           3590      5.16479e+8 
           3610      5.09587e+8 
           3630        5.021e+8 
           3640      5.01136e+8 
           3650      4.96415e+8 
           3670      4.90711e+8 
           3690      4.81394e+8 
           3710      4.64422e+8 
           3730       4.4272e+8 
           3750      4.71659e+8 
           3770      4.76077e+8 
           3790       5.2373e+8 
           3810      5.61223e+8 
           3830      4.72193e+8 
           3850      5.86348e+8 
           3870      6.10916e+8 
           3890      4.38096e+8 
           3910      6.10653e+8 
           3930      6.00259e+8 
           3950      5.91153e+8 
           3970      4.09526e+8 
           3990      5.61636e+8 
           4010      5.75376e+8 
           4030      5.34003e+8 
           4050      5.64962e+8 
           4070      5.41843e+8 
           4090       4.7762e+8 
           4110       4.0039e+8 
           4130      5.06181e+8 
           4150      5.09648e+8 
           4170      5.08129e+8 
           4190      5.04492e+8 
           4210      4.99157e+8 
           4230      4.89353e+8 
           4250      4.79169e+8 
           4270      4.62148e+8 
           4290       4.6309e+8 
           4310      4.48966e+8 
           4330      3.81875e+8 
           4350      3.41022e+8 
           4370      4.23663e+8 
           4390      4.12676e+8 
           4410      4.21106e+8 
           4430      4.12341e+8 
           4450      4.11401e+8 
           4470      3.82746e+8 
           4490      3.93172e+8 
           4510      3.94249e+8 
           4530      3.85653e+8 
           4550      3.80706e+8 
           4570      3.76461e+8 
           4590      3.70129e+8 
           4610      3.63734e+8 
           4630      3.55836e+8 
           4650      3.51492e+8 
           4670      3.47866e+8 
           4690      3.43964e+8 
           4710      3.29263e+8 
           4730       3.3024e+8 
           4750      3.25277e+8 
           4770       3.2532e+8 
           4790      3.18701e+8 
           4810      3.10781e+8 
           4830      3.03158e+8 
           4850      2.65701e+8 
           4870      2.30467e+8 
           4890      2.89305e+8 
           4910      2.89625e+8 
           4930      2.78259e+8 
           4950      2.83979e+8 
           4970      2.81378e+8 
           4990      2.76464e+8 
           5010      2.63665e+8 
           5030       2.6662e+8 
           5050       2.5816e+8 
           5070      2.60861e+8 
           5090      2.56838e+8 
           5110      2.51974e+8 
           5130      2.47523e+8 
           5150      2.43374e+8 
           5170      2.42777e+8 
           5190      2.39679e+8 
           5210      2.32665e+8 
           5230      2.33093e+8 
           5250      2.30541e+8 
           5270       2.2653e+8 
           5290      2.25372e+8 
           5310      2.21593e+8 
           5330      2.18435e+8 
           5350      2.14843e+8 
           5370      2.13664e+8 
           5390      2.10759e+8 
           5410      2.07427e+8 
           5430      2.04241e+8 
           5450       2.0206e+8 
           5470      1.98885e+8 
           5490      1.97539e+8 
           5510      1.94755e+8 
           5530      1.92437e+8 
           5550      1.90233e+8 
           5570      1.87655e+8 
           5590      1.85531e+8 
           5610      1.83061e+8 
           5630      1.81502e+8 
           5650      1.76466e+8 
           5670      1.74637e+8 
           5690      1.73575e+8 
           5710      1.72234e+8 
           5730      1.70253e+8 
           5750      1.68103e+8 
           5770      1.66249e+8 
           5790       1.6408e+8 
           5810      1.61992e+8 
           5830      1.60018e+8 
           5850      1.58166e+8 
           5870      1.51077e+8 
           5890      1.52778e+8 
           5910      1.52275e+8 
           5930      1.50756e+8 
           5950      1.47861e+8 
           5970      1.47126e+8 
           5990       1.4499e+8 
           6010      1.43933e+8 
           6030      1.42089e+8 
           6050      1.40502e+8 
           6070      1.38852e+8 
           6090      1.37048e+8 
           6110      1.35748e+8 
           6130      1.34212e+8 
           6150      1.31359e+8 
           6170      1.30904e+8 
           6190      1.29607e+8 
           6210       1.2809e+8 
           6230      1.26463e+8 
           6250      1.24373e+8 
           6270      1.23619e+8 
           6290      1.22177e+8 
           6310      1.20571e+8 
           6330      1.19519e+8 
           6350      1.16936e+8 
           6370      1.16184e+8 
           6390      1.15375e+8 
           6410      1.14023e+8 
           6430      1.13151e+8 
           6450      1.11617e+8 
           6470      1.10335e+8 
           6490      1.08994e+8 
           6510      1.07383e+8 
           6530      1.05392e+8 
           6550      9.74171e+7 
           6570      8.38625e+7 
           6590      1.00168e+8 
           6610      1.01709e+8 
           6630       1.0108e+8 
           6650      1.00217e+8 
           6670      9.80672e+7 
           6690      9.71451e+7 
           6710      9.70521e+7 
           6730      9.60436e+7 
           6750      9.51032e+7 
           6770      9.41558e+7 
           6790      9.25888e+7 
           6810      9.20132e+7 
           6830      9.09421e+7 
           6850      9.01951e+7 
           6870      8.92875e+7 
           6890      8.83414e+7 
           6910      8.74284e+7 
           6930      8.62655e+7 
           6950      8.56684e+7 
           6970      8.48207e+7 
           6990       8.3912e+7 
           7010      8.29968e+7 
           7030       8.2167e+7 
           7050      8.11102e+7 
           7070      7.92878e+7 
           7090      7.97704e+7 
           7110      7.87186e+7 
           7130      7.79812e+7 
           7150      7.72729e+7 
           7170       7.6564e+7 
           7190      7.58617e+7 
           7210       7.5108e+7 
           7230      7.34174e+7 
           7250       7.3486e+7 
           7270       7.2904e+7 
           7290      7.17248e+7 
           7310      7.14738e+7 
           7330      7.07688e+7 
           7350      7.01192e+7 
           7370       6.9427e+7 
           7390      6.87538e+7 
           7410      6.80867e+7 
           7430      6.72334e+7 
           7450      6.66924e+7 
           7470      6.58854e+7 
           7490       6.5354e+7 
           7510      6.47766e+7 
           7530      6.41772e+7 
           7550      6.35984e+7 
           7570      6.30241e+7 
           7590      6.23648e+7 
           7610      6.18566e+7 
           7630      6.12571e+7 
           7650      6.06726e+7 
           7670      6.01011e+7 
           7690      5.95283e+7 
           7710      5.89924e+7 
           7730      5.84082e+7 
           7750      5.78826e+7 
           7770      5.66602e+7 
           7790      5.68216e+7 
           7810      5.62981e+7 
           7830      5.57958e+7 
           7850      5.49861e+7 
           7870      5.45604e+7 
           7890      5.38956e+7 
           7910      5.37234e+7 
           7930      5.33053e+7 
           7950      5.25052e+7 
           7970      5.23007e+7 
           7990      5.14438e+7 
           8010       5.1388e+7 
           8030      5.08963e+7 
           8050      5.04077e+7 
           8070      4.99973e+7 
           8090       4.9507e+7 
           8110      4.90661e+7 
           8130      4.86283e+7 
           8150      4.82147e+7 
           8170      4.78299e+7 
           8190      4.73113e+7 
           8210      4.67301e+7 
           8230      4.62012e+7 
           8250      4.61441e+7 
           8270       4.5638e+7 
           8290      4.52914e+7 
           8310      4.49346e+7 
           8330      4.45687e+7 
           8350      4.40637e+7 
           8370      4.37323e+7 
           8390      4.34914e+7 
           8410      4.30925e+7 
           8430      4.26567e+7 
           8450       4.1816e+7 
           8470      4.18666e+7 
           8490      4.14282e+7 
           8510      4.09033e+7 
           8530      4.08469e+7 
           8550      3.96805e+7 
           8570      4.05337e+7 
