# Kurucz ODFNEW /NOVER (2003)
# teff = 37000 K (value for the effective temperature for the model. Temperatures are given in K)
# logg = 5 log(cm/s2) (value for Log(G) for the model.)
# meta = 0.5  (value for the Metallicity for the model.)
# lh = 1.25  (l/Hp where l is the  mixing length of the convective element and Hp is the pressure scale height)
# vtur = 2 km/s (Microturbulence velocity)
# alpha = 0.4  (Alpha)
#
# column 1: WAVELENGTH (ANGSTROM), Wavelength in Angstrom
# column 2: FLUX (ERG/CM2/S/A), Flux in erg/cm2/s/A
          147.2      0.00226495 
            151      0.00534751 
          155.2       0.0129338 
          158.8       0.0265993 
            162       0.0488181 
            166        0.102775 
          170.3        0.216617 
          173.4        0.367188 
          176.8        0.651841 
          180.2         1.10617 
          181.7         1.42819 
          186.1         2.73313 
            191         5.45045 
          193.9         8.05018 
          198.4         14.6337 
          201.8         22.2236 
            205          32.565 
          210.5         61.2039 
          216.2         111.844 
          219.8          165.15 
            223         228.088 
          226.8          373.19 
            230         66418.3 
            234          139873 
            240          198313 
          246.5          291979 
          252.4          475470 
          256.8          665527 
            260          969800 
            264      1.64825e+6 
          268.5      2.52911e+6 
          273.5      3.20301e+6 
          278.5      3.49693e+6 
            284      6.95064e+6 
            290      9.41196e+6 
            296      1.11988e+7 
            301      2.13124e+7 
            308       4.0201e+7 
            318      7.52274e+7 
            328      1.01077e+8 
            338       1.7492e+8 
            348      2.51822e+8 
            357      4.73007e+8 
            366      1.08941e+9 
            375      1.22083e+9 
            385      1.73831e+9 
            395      4.56421e+9 
            405      6.79181e+9 
            414      8.10756e+9 
            422      8.72246e+9 
            430      8.35325e+9 
            441      9.53519e+9 
            451     1.00955e+10 
            460      8.28217e+9 
            470      9.45593e+9 
            480     1.10828e+10 
            490      8.37042e+9 
            500     1.13864e+10 
            506      9.27286e+9 
            512      4.5519e+10 
            520     4.12577e+10 
            530     3.77118e+10 
            540      3.4394e+10 
            550     3.32182e+10 
            560     4.66695e+10 
            570     5.53012e+10 
            580     5.22762e+10 
            590     5.31837e+10 
            600     3.32485e+10 
            610     4.19313e+10 
            620     5.60488e+10 
            630     5.30762e+10 
            640     5.58288e+10 
            650     5.05201e+10 
            658      3.3396e+10 
            665     4.78782e+10 
            675      5.7759e+10 
            685     4.14693e+10 
            695     5.61438e+10 
            705     3.70374e+10 
            716     5.95147e+10 
            726     5.82131e+10 
            735     5.78534e+10 
            745     4.93792e+10 
            755     4.96309e+10 
            765      4.9825e+10 
            775     5.27763e+10 
            785     4.85718e+10 
            795     5.25934e+10 
            805     4.86857e+10 
            815     4.83264e+10 
            825     5.16658e+10 
            835     3.76289e+10 
            845     4.81147e+10 
            855     4.60934e+10 
            865     4.83106e+10 
            875     4.80009e+10 
            885     4.77722e+10 
            895     4.72849e+10 
            905     4.51551e+10 
            915     3.88741e+10 
            925     7.20811e+10 
            935     1.05953e+11 
            945     1.34303e+11 
            955      1.5286e+11 
            965     1.75827e+11 
            975     8.64045e+10 
            985     1.41714e+11 
            995      1.2114e+11 
           1005     1.22285e+11 
           1015     1.32185e+11 
           1025     1.06314e+11 
           1035     1.31251e+11 
           1045     1.49643e+11 
           1055     1.40937e+11 
           1065     1.16959e+11 
           1075     1.24302e+11 
           1085     1.11352e+11 
           1095     1.21673e+11 
           1105      1.1492e+11 
           1115     1.13338e+11 
           1125     8.84505e+10 
           1135     1.06951e+11 
           1145      1.0452e+11 
           1155     9.36045e+10 
           1165      9.1466e+10 
           1175     6.51474e+10 
           1185     8.49196e+10 
           1195     7.98452e+10 
           1205     7.71945e+10 
           1215     6.07447e+10 
           1225     7.39588e+10 
           1235     7.84445e+10 
           1245     7.57335e+10 
           1255     7.56198e+10 
           1265     7.72375e+10 
           1275     8.01835e+10 
           1285     8.02067e+10 
           1295     7.50819e+10 
           1305      7.4221e+10 
           1315     7.80092e+10 
           1325     7.54392e+10 
           1335     7.32268e+10 
           1345     7.12673e+10 
           1355       7.017e+10 
           1365      6.6869e+10 
           1375     6.41344e+10 
           1385     6.18958e+10 
           1395      4.8405e+10 
           1405     4.90162e+10 
           1415     6.03734e+10 
           1425     5.33845e+10 
           1435     5.75003e+10 
           1442     5.56734e+10 
           1447     5.56509e+10 
           1455     5.26952e+10 
           1465     5.14938e+10 
           1475     5.18975e+10 
           1485     5.19475e+10 
           1495     5.01238e+10 
           1505     4.85385e+10 
           1512     4.81956e+10 
           1517     4.82762e+10 
           1525     4.63488e+10 
           1535     4.02627e+10 
           1545     3.23113e+10 
           1555     3.29643e+10 
           1565     3.77218e+10 
           1575     3.93978e+10 
           1585     3.87298e+10 
           1595     3.95977e+10 
           1605     3.73684e+10 
           1615     3.54641e+10 
           1625     3.63529e+10 
           1635     3.62802e+10 
           1645     3.62553e+10 
           1655     3.62284e+10 
           1665     3.48786e+10 
           1672     3.25052e+10 
           1677     3.83129e+10 
           1685     3.65395e+10 
           1695     3.53071e+10 
           1705     3.46622e+10 
           1715     3.29629e+10 
           1725      3.1274e+10 
           1735     3.25527e+10 
           1745      3.2443e+10 
           1755      3.1804e+10 
           1765     3.10516e+10 
           1775     2.98466e+10 
           1785     3.04401e+10 
           1795     2.94752e+10 
           1805     2.91888e+10 
           1815     2.85661e+10 
           1825     2.78173e+10 
           1835     2.77734e+10 
           1845     2.68191e+10 
           1855     2.70705e+10 
           1865      2.7043e+10 
           1875     2.59977e+10 
           1885       2.506e+10 
           1895     2.49399e+10 
           1905     2.51739e+10 
           1915     2.44988e+10 
           1925     2.28755e+10 
           1935     2.42616e+10 
           1945     2.43155e+10 
           1955     2.21403e+10 
           1967     2.30122e+10 
           1976     2.32372e+10 
           1984     2.27133e+10 
           1995     2.21474e+10 
           2005     2.24546e+10 
           2015     2.22267e+10 
           2025     2.20022e+10 
           2035     2.12534e+10 
           2045     2.08542e+10 
           2055     1.60013e+10 
           2065     1.52848e+10 
           2074     1.56228e+10 
           2078     1.55862e+10 
           2085     1.63293e+10 
           2095     1.74879e+10 
           2105     1.87649e+10 
           2115     1.91488e+10 
           2125     1.85035e+10 
           2135     1.85091e+10 
           2145     1.82002e+10 
           2155     1.80535e+10 
           2165     1.69613e+10 
           2175     1.76251e+10 
           2185     1.68502e+10 
           2195     1.73906e+10 
           2205     1.70907e+10 
           2215      1.6099e+10 
           2225     1.65512e+10 
           2235     1.63106e+10 
           2245     1.59848e+10 
           2255     1.52314e+10 
           2265     1.55517e+10 
           2275     1.54393e+10 
           2285     1.46897e+10 
           2295     1.35477e+10 
           2305     1.40246e+10 
           2315      1.4057e+10 
           2325     1.41078e+10 
           2335     1.39533e+10 
           2345     1.36935e+10 
           2355     1.33179e+10 
           2365     1.30392e+10 
           2375     1.26604e+10 
           2385     1.19313e+10 
           2395     1.21937e+10 
           2405     1.22469e+10 
           2415     1.20624e+10 
           2425     1.20496e+10 
           2435     1.18199e+10 
           2445     1.16869e+10 
           2455     1.14862e+10 
           2465     1.13876e+10 
           2475     1.12534e+10 
           2485     1.07427e+10 
           2495       7.6562e+9 
           2505     1.01023e+10 
           2513      9.79053e+9 
           2518      9.94301e+9 
           2525     1.03955e+10 
           2535     1.03858e+10 
           2545     1.01467e+10 
           2555     1.00443e+10 
           2565      9.86254e+9 
           2575      9.80825e+9 
           2585      9.69417e+9 
           2595      9.41428e+9 
           2605      9.44762e+9 
           2615      9.19425e+9 
           2625      9.18612e+9 
           2635       9.0997e+9 
           2645      8.91364e+9 
           2655       8.8541e+9 
           2665      8.63819e+9 
           2675      8.33365e+9 
           2685       8.4316e+9 
           2695      8.27785e+9 
           2705      8.24817e+9 
           2715      8.10984e+9 
           2725      7.99056e+9 
           2735      7.72373e+9 
           2745      7.87154e+9 
           2755      7.73509e+9 
           2765      7.63046e+9 
           2775      7.59122e+9 
           2785      7.40517e+9 
           2795      7.13093e+9 
           2805      7.23148e+9 
           2815      7.19635e+9 
           2825      7.09782e+9 
           2835      6.97378e+9 
           2845       6.9644e+9 
           2855      6.84036e+9 
           2865      6.70319e+9 
           2875      6.62793e+9 
           2885      6.57346e+9 
           2895      6.45936e+9 
           2910      6.27949e+9 
           2930      6.23969e+9 
           2950      6.07183e+9 
           2970      5.91089e+9 
           2990      5.70355e+9 
           3010      5.50285e+9 
           3030       5.3414e+9 
           3050      5.31086e+9 
           3070      5.20672e+9 
           3090      5.06062e+9 
           3110      5.01755e+9 
           3130      4.86173e+9 
           3150      4.79715e+9 
           3170      4.66671e+9 
           3190      4.59171e+9 
           3210      4.41366e+9 
           3230      4.36856e+9 
           3250      4.30319e+9 
           3270      4.14079e+9 
           3290      4.09338e+9 
           3310      3.98973e+9 
           3330      3.88997e+9 
           3350      3.77283e+9 
           3370      3.71094e+9 
           3390      3.66728e+9 
           3410      3.58518e+9 
           3430      3.54414e+9 
           3450      3.41834e+9 
           3470      3.38093e+9 
           3490      3.32002e+9 
           3510      3.25263e+9 
           3530      3.19108e+9 
           3550      3.12055e+9 
           3570      3.06086e+9 
           3590      2.99294e+9 
           3610      2.92952e+9 
           3630      2.87074e+9 
           3640      2.81725e+9 
           3650      2.62055e+9 
           3670      2.57842e+9 
           3690      2.52558e+9 
           3710      2.43063e+9 
           3730      2.42375e+9 
           3750      2.40609e+9 
           3770      2.35483e+9 
           3790      2.41723e+9 
           3810      2.45724e+9 
           3830      2.25359e+9 
           3850      2.43544e+9 
           3870      2.34594e+9 
           3890      2.09092e+9 
           3910      2.37832e+9 
           3930      2.31271e+9 
           3950      2.22078e+9 
           3970      1.91356e+9 
           3990        2.195e+9 
           4010      2.15969e+9 
           4030      2.07143e+9 
           4050      2.09519e+9 
           4070      1.99291e+9 
           4090      1.86366e+9 
           4110       1.7273e+9 
           4130       1.9091e+9 
           4150      1.88624e+9 
           4170      1.88634e+9 
           4190      1.84237e+9 
           4210      1.79494e+9 
           4230      1.79053e+9 
           4250      1.73111e+9 
           4270       1.7002e+9 
           4290      1.65945e+9 
           4310      1.61014e+9 
           4330      1.51135e+9 
           4350      1.41707e+9 
           4370      1.54528e+9 
           4390      1.51342e+9 
           4410      1.49116e+9 
           4430      1.48562e+9 
           4450      1.45494e+9 
           4470      1.41086e+9 
           4490      1.41557e+9 
           4510      1.37813e+9 
           4530      1.36608e+9 
           4550      1.32664e+9 
           4570      1.33058e+9 
           4590      1.30185e+9 
           4610      1.27581e+9 
           4630      1.24246e+9 
           4650      1.17428e+9 
           4670      1.20841e+9 
           4690      1.17831e+9 
           4710      1.17097e+9 
           4730      1.18547e+9 
           4750      1.16438e+9 
           4770      1.15159e+9 
           4790      1.13273e+9 
           4810      1.10999e+9 
           4830       1.0864e+9 
           4850        1.023e+9 
           4870      9.33226e+8 
           4890      1.03236e+9 
           4910      1.02053e+9 
           4930       9.9652e+8 
           4950      9.88837e+8 
           4970        9.855e+8 
           4990      9.70611e+8 
           5010      9.34645e+8 
           5030      9.30891e+8 
           5050      9.19854e+8 
           5070      9.13402e+8 
           5090      8.98619e+8 
           5110      8.84673e+8 
           5130      8.71032e+8 
           5150      8.58541e+8 
           5170      8.44329e+8 
           5190      8.33638e+8 
           5210      8.22115e+8 
           5230      8.11088e+8 
           5250      7.95448e+8 
           5270      7.82571e+8 
           5290      7.76705e+8 
           5310      7.64626e+8 
           5330      7.54217e+8 
           5350      7.43982e+8 
           5370       7.3316e+8 
           5390      7.21751e+8 
           5410      6.98417e+8 
           5430      7.02813e+8 
           5450      6.92972e+8 
           5470      6.82915e+8 
           5490      6.73636e+8 
           5510      6.63369e+8 
           5530      6.55081e+8 
           5550      6.46723e+8 
           5570      6.37279e+8 
           5590      6.25771e+8 
           5610      6.20754e+8 
           5630       6.1237e+8 
           5650       6.0377e+8 
           5670      5.94749e+8 
           5690      5.76822e+8 
           5710      5.54901e+8 
           5730      5.48315e+8 
           5750      5.40154e+8 
           5770      5.34696e+8 
           5790      5.27525e+8 
           5810      5.18431e+8 
           5830      5.12431e+8 
           5850      5.08559e+8 
           5870      4.93247e+8 
           5890      4.96419e+8 
           5910      4.92266e+8 
           5930      4.87666e+8 
           5950      4.83297e+8 
           5970      4.80022e+8 
           5990      4.75278e+8 
           6010      4.71682e+8 
           6030      4.66735e+8 
           6050      4.62728e+8 
           6070      4.57629e+8 
           6090      4.52393e+8 
           6110      4.46288e+8 
           6130      4.41135e+8 
           6150      4.34445e+8 
           6170      4.29258e+8 
           6190      4.25309e+8 
           6210      4.20405e+8 
           6230      4.14439e+8 
           6250      4.08946e+8 
           6270      4.04856e+8 
           6290      3.99829e+8 
           6310      3.93646e+8 
           6330      3.90335e+8 
           6350      3.85003e+8 
           6370      3.81233e+8 
           6390      3.76581e+8 
           6410      3.71136e+8 
           6430      3.67746e+8 
           6450      3.62843e+8 
           6470      3.57723e+8 
           6490      3.53179e+8 
           6510      3.47767e+8 
           6530      3.42707e+8 
           6550      3.31353e+8 
           6570      2.99726e+8 
           6590      3.30908e+8 
           6610      3.29469e+8 
           6630      3.26602e+8 
           6650      3.22604e+8 
           6670      3.14432e+8 
           6690      3.10172e+8 
           6710      3.10175e+8 
           6730      3.06554e+8 
           6750      3.03972e+8 
           6770      3.01208e+8 
           6790      2.97492e+8 
           6810      2.94658e+8 
           6830      2.91167e+8 
           6850      2.87871e+8 
           6870      2.84314e+8 
           6890      2.78864e+8 
           6910      2.76889e+8 
           6930      2.75552e+8 
           6950       2.7244e+8 
           6970      2.69483e+8 
           6990       2.6627e+8 
           7010       2.6269e+8 
           7030      2.59643e+8 
           7050      2.56823e+8 
           7070      2.51422e+8 
           7090      2.52179e+8 
           7110       2.4913e+8 
           7130      2.46534e+8 
           7150      2.44162e+8 
           7170      2.40156e+8 
           7190      2.38042e+8 
           7210       2.3639e+8 
           7230      2.32663e+8 
           7250      2.30972e+8 
           7270      2.28912e+8 
           7290      2.25177e+8 
           7310      2.23706e+8 
           7330      2.21688e+8 
           7350      2.19333e+8 
           7370       2.1693e+8 
           7390      2.14833e+8 
           7410      2.12419e+8 
           7430      2.10383e+8 
           7450      2.07796e+8 
           7470      2.05355e+8 
           7490      2.02554e+8 
           7510      2.01557e+8 
           7530      1.99464e+8 
           7550      1.97596e+8 
           7570      1.95468e+8 
           7590      1.91353e+8 
           7610      1.90823e+8 
           7630      1.89384e+8 
           7650      1.87397e+8 
           7670       1.8573e+8 
           7690      1.82797e+8 
           7710      1.81564e+8 
           7730      1.78785e+8 
           7750      1.78277e+8 
           7770       1.7678e+8 
           7790       1.7493e+8 
           7810        1.733e+8 
           7830      1.71568e+8 
           7850       1.6935e+8 
           7870      1.67517e+8 
           7890      1.66094e+8 
           7910      1.64882e+8 
           7930      1.63291e+8 
           7950       1.6185e+8 
           7970      1.59906e+8 
           7990       1.5857e+8 
           8010      1.57115e+8 
           8030      1.55393e+8 
           8050      1.54168e+8 
           8070      1.52647e+8 
           8090      1.51145e+8 
           8110      1.48957e+8 
           8130      1.48316e+8 
           8150      1.46812e+8 
           8170      1.45321e+8 
           8190      1.43174e+8 
           8210      1.39448e+8 
           8230      1.37348e+8 
           8250      1.36755e+8 
           8270      1.35075e+8 
           8290      1.34451e+8 
           8310      1.33467e+8 
           8330      1.31686e+8 
           8350      1.30246e+8 
           8370      1.29474e+8 
           8390      1.28702e+8 
           8410      1.27387e+8 
           8430      1.26412e+8 
           8450       1.2496e+8 
           8470      1.24187e+8 
           8490      1.22996e+8 
           8510      1.21409e+8 
           8530      1.20851e+8 
           8550      1.19797e+8 
           8570      1.18874e+8 
