# Kurucz ODFNEW /NOVER (2003)
# teff = 8000 K (value for the effective temperature for the model. Temperatures are given in K)
# logg = 2.5 log(cm/s2) (value for Log(G) for the model.)
# meta = 0.2  (value for the Metallicity for the model.)
# lh = 1.25  (l/Hp where l is the  mixing length of the convective element and Hp is the pressure scale height)
# vtur = 2 km/s (Microturbulence velocity)
# alpha = 0.4  (Alpha)
#
# column 1: WAVELENGTH (ANGSTROM), Wavelength in Angstrom
# column 2: FLUX (ERG/CM2/S/A), Flux in erg/cm2/s/A
            357     1.43135e-23 
            366     1.46663e-22 
            375     9.97593e-22 
            385     7.41539e-21 
            395     4.95368e-20 
            405     3.00304e-19 
            414     1.40767e-18 
            422      3.6993e-19 
            430     1.22483e-18 
            441     5.89499e-18 
            451     2.28981e-17 
            460     7.35886e-17 
            470     2.54638e-16 
            480     8.33448e-16 
            490     2.59098e-15 
            500     7.66388e-15 
            506      1.9028e-14 
            512     3.95895e-14 
            520     8.72747e-14 
            530     2.27634e-13 
            540     5.60753e-13 
            550     1.35585e-12 
            560     3.14562e-12 
            570     7.06127e-12 
            580     1.51856e-11 
            590     3.24944e-11 
            600     6.68308e-11 
            610      1.3425e-10 
            620     2.62446e-10 
            630     5.01338e-10 
            640     9.36029e-10 
            650      1.71387e-9 
            658      2.73817e-9 
            665      4.06652e-9 
            675      7.09314e-9 
            685      1.21571e-8 
            695      2.04523e-8 
            705      3.34916e-8 
            716      5.77415e-8 
            726      9.24534e-8 
            735      1.39471e-7 
            745      2.16932e-7 
            755      3.33616e-7 
            765      5.06915e-7 
            775      7.60766e-7 
            785      1.13124e-6 
            795      1.63471e-6 
            805      2.37964e-6 
            815      3.44681e-6 
            825       4.9045e-6 
            835       6.9016e-6 
            845      9.63159e-6 
            855      1.33155e-5 
            865      1.82498e-5 
            875      2.45978e-5 
            885      3.34255e-5 
            895      4.47222e-5 
            905      5.88949e-5 
            915       0.0321034 
            925        0.097407 
            935        0.127081 
            945        0.169059 
            955        0.237436 
            965        0.312529 
            975        0.391216 
            985        0.500468 
            995        0.614891 
           1005        0.832216 
           1015         1.05779 
           1025         1.27617 
           1035         1.63542 
           1045         2.05123 
           1055         2.54864 
           1065         3.07621 
           1075         3.84219 
           1085          4.7247 
           1095         5.62129 
           1105         18.6118 
           1115         61.8627 
           1125         90.1382 
           1135         124.533 
           1145         155.913 
           1155          170.44 
           1165         230.833 
           1175          269.54 
           1185         277.029 
           1195         115.288 
           1205         144.395 
           1215         31.0448 
           1225         169.136 
           1235          409.08 
           1245         967.231 
           1255         2135.65 
           1265         1752.28 
           1275         3427.73 
           1285         4883.35 
           1295         5820.24 
           1305         3601.55 
           1315         7158.23 
           1325          8711.9 
           1335         9321.71 
           1345         11689.1 
           1355           11952 
           1365         12733.7 
           1375         13893.1 
           1385         15502.6 
           1395         17801.1 
           1405         19752.3 
           1415           20142 
           1425         22715.5 
           1435         22665.3 
           1442         26092.9 
           1447         28147.5 
           1455         31353.4 
           1465         31678.1 
           1475         34337.5 
           1485         38036.4 
           1495         42951.7 
           1505         46933.5 
           1512         47495.2 
           1517         51378.4 
           1525         57624.9 
           1535          109817 
           1545          383370 
           1555          361114 
           1565          348547 
           1575          662117 
           1585          907339 
           1595      1.23089e+6 
           1605      1.09442e+6 
           1615          983427 
           1625          804341 
           1635          929202 
           1645      1.43228e+6 
           1655          766807 
           1665      1.26354e+6 
           1672          455282 
           1677      2.04726e+6 
           1685      3.79592e+6 
           1695      4.52347e+6 
           1705      5.72087e+6 
           1715      8.87033e+6 
           1725      9.24268e+6 
           1735      1.19402e+7 
           1745      1.06012e+7 
           1755      1.40196e+7 
           1765       9.5484e+6 
           1775      1.33623e+7 
           1785      1.14567e+7 
           1795      1.67387e+7 
           1805      1.25761e+7 
           1815      1.45295e+7 
           1825      1.17737e+7 
           1835      1.07113e+7 
           1845      9.88553e+6 
           1855        1.202e+7 
           1865      1.37371e+7 
           1875      1.27347e+7 
           1885       1.3322e+7 
           1895       1.4811e+7 
           1905      1.27333e+7 
           1915      1.40451e+7 
           1925      1.38487e+7 
           1935      9.69165e+6 
           1945      1.52404e+7 
           1955      1.55442e+7 
           1967      1.73181e+7 
           1976      1.66165e+7 
           1984      1.57889e+7 
           1995      1.55443e+7 
           2005      1.45911e+7 
           2015      1.31161e+7 
           2025      1.26011e+7 
           2035      1.49783e+7 
           2045      1.66978e+7 
           2055      1.43028e+7 
           2065      1.41001e+7 
           2074      1.76722e+7 
           2078      1.89984e+7 
           2085      1.79013e+7 
           2095      1.65618e+7 
           2105      1.50648e+7 
           2115      1.53337e+7 
           2125      1.56244e+7 
           2135      1.16451e+7 
           2145      1.48218e+7 
           2155      1.52719e+7 
           2165      1.34345e+7 
           2175      1.36441e+7 
           2185      1.43417e+7 
           2195      1.58674e+7 
           2205      1.48676e+7 
           2215       1.2242e+7 
           2225      1.17601e+7 
           2235      1.51009e+7 
           2245      1.34658e+7 
           2255      1.14907e+7 
           2265      1.16898e+7 
           2275      1.34012e+7 
           2285      1.41082e+7 
           2295      1.25171e+7 
           2305      1.32823e+7 
           2315      1.23411e+7 
           2325      1.16497e+7 
           2335      8.49403e+6 
           2345      6.65265e+6 
           2355      1.07516e+7 
           2365      6.69255e+6 
           2375      8.93431e+6 
           2385      5.33354e+6 
           2395      7.07153e+6 
           2405      6.72561e+6 
           2415      8.07431e+6 
           2425      1.17959e+7 
           2435       1.1264e+7 
           2445      1.22912e+7 
           2455      1.21857e+7 
           2465       1.1795e+7 
           2475      1.09194e+7 
           2485      1.13881e+7 
           2495      1.07741e+7 
           2505      1.40401e+7 
           2513      1.04575e+7 
           2518      1.10268e+7 
           2525       8.8799e+6 
           2535      8.34216e+6 
           2545      8.73913e+6 
           2555      1.10566e+7 
           2565      9.72626e+6 
           2575      1.15321e+7 
           2585      1.10484e+7 
           2595      1.00705e+7 
           2605      8.96353e+6 
           2615      8.34364e+6 
           2625      1.09373e+7 
           2635      1.24844e+7 
           2645      1.71612e+7 
           2655      1.76216e+7 
           2665      1.38694e+7 
           2675      1.55928e+7 
           2685      1.50807e+7 
           2695      1.41474e+7 
           2705      1.51232e+7 
           2715      1.31833e+7 
           2725      1.33856e+7 
           2735      1.47011e+7 
           2745      8.98398e+6 
           2755      1.02382e+7 
           2765      1.12813e+7 
           2775      1.32006e+7 
           2785      9.33928e+6 
           2795      3.19553e+6 
           2805      4.22153e+6 
           2815      1.18939e+7 
           2825      1.57279e+7 
           2835      1.54658e+7 
           2845       1.4883e+7 
           2855      1.30406e+7 
           2865      1.62107e+7 
           2875      1.55762e+7 
           2885      1.60062e+7 
           2895      1.49936e+7 
           2910       1.8209e+7 
           2930      1.69598e+7 
           2950       1.7012e+7 
           2970      1.83353e+7 
           2990      1.84895e+7 
           3010      1.92475e+7 
           3030      1.89594e+7 
           3050      1.87447e+7 
           3070      1.87287e+7 
           3090      1.96092e+7 
           3110      1.87646e+7 
           3130      1.87136e+7 
           3150      1.95546e+7 
           3170      1.93117e+7 
           3190      1.78267e+7 
           3210      1.89295e+7 
           3230      1.77848e+7 
           3250      1.89547e+7 
           3270      1.94525e+7 
           3290      1.97158e+7 
           3310      2.02409e+7 
           3330      1.95453e+7 
           3350      1.91871e+7 
           3370      1.89229e+7 
           3390      1.93529e+7 
           3410      1.99281e+7 
           3430      2.02827e+7 
           3450      2.00498e+7 
           3470       1.9707e+7 
           3490      1.94911e+7 
           3510      2.02218e+7 
           3530      2.02969e+7 
           3550      2.09982e+7 
           3570       1.9841e+7 
           3590      1.98404e+7 
           3610        2.001e+7 
           3630      2.02218e+7 
           3640      1.97617e+7 
           3650      2.08115e+7 
           3670      2.04843e+7 
           3690      2.02081e+7 
           3710      2.41049e+7 
           3730      2.78467e+7 
           3750      3.91236e+7 
           3770       4.2993e+7 
           3790      5.56094e+7 
           3810      6.48216e+7 
           3830      4.97618e+7 
           3850      6.93299e+7 
           3870      7.73914e+7 
           3890      4.48975e+7 
           3910      7.35515e+7 
           3930      4.87861e+7 
           3950      6.92154e+7 
           3970      3.58112e+7 
           3990      7.29767e+7 
           4010      7.83981e+7 
           4030      7.68008e+7 
           4050      7.62256e+7 
           4070          7.4e+7 
           4090      6.35536e+7 
           4110      4.80945e+7 
           4130      7.09908e+7 
           4150      7.37906e+7 
           4170      7.15615e+7 
           4190      7.11417e+7 
           4210       7.0765e+7 
           4230      6.89057e+7 
           4250      6.88823e+7 
           4270      6.60422e+7 
           4290      6.66233e+7 
           4310       6.1636e+7 
           4330      5.14612e+7 
           4350      4.36009e+7 
           4370      6.32377e+7 
           4390      6.24126e+7 
           4410      6.09586e+7 
           4430      6.02809e+7 
           4450      6.10948e+7 
           4470       6.0932e+7 
           4490      6.00895e+7 
           4510      6.13321e+7 
           4530      5.84144e+7 
           4550      5.73706e+7 
           4570      5.93661e+7 
           4590      5.67166e+7 
           4610      5.85601e+7 
           4630      5.63067e+7 
           4650      5.68792e+7 
           4670      5.64846e+7 
           4690      5.44111e+7 
           4710      5.23418e+7 
           4730      5.44495e+7 
           4750      5.43592e+7 
           4770      5.30765e+7 
           4790      5.26145e+7 
           4810      5.15542e+7 
           4830      5.04257e+7 
           4850      4.06895e+7 
           4870      3.20611e+7 
           4890      4.76708e+7 
           4910      4.86755e+7 
           4930      4.76273e+7 
           4950      4.83148e+7 
           4970       4.8488e+7 
           4990      4.63209e+7 
           5010      4.41402e+7 
           5030      4.53072e+7 
           5050      4.46152e+7 
           5070      4.52663e+7 
           5090      4.47208e+7 
           5110      4.44724e+7 
           5130      4.32703e+7 
           5150      4.22815e+7 
           5170      4.14095e+7 
           5190      4.08336e+7 
           5210      4.09163e+7 
           5230      4.03946e+7 
           5250      4.09472e+7 
           5270      3.80054e+7 
           5290      3.99654e+7 
           5310      3.90396e+7 
           5330      3.75736e+7 
           5350      3.89674e+7 
           5370      3.85196e+7 
           5390      3.78219e+7 
           5410      3.69314e+7 
           5430      3.69103e+7 
           5450      3.72956e+7 
           5470       3.6769e+7 
           5490      3.63266e+7 
           5510      3.59703e+7 
           5530      3.56823e+7 
           5550      3.56824e+7 
           5570      3.50854e+7 
           5590      3.45985e+7 
           5610      3.45234e+7 
           5630      3.44628e+7 
           5650      3.38381e+7 
           5670      3.32365e+7 
           5690      3.32953e+7 
           5710      3.29539e+7 
           5730      3.31041e+7 
           5750      3.24207e+7 
           5770      3.23027e+7 
           5790      3.18821e+7 
           5810       3.1673e+7 
           5830      3.14206e+7 
           5850      3.10531e+7 
           5870      3.07993e+7 
           5890      3.00562e+7 
           5910       3.0209e+7 
           5930      2.99295e+7 
           5950      2.95243e+7 
           5970      2.93913e+7 
           5990      2.89004e+7 
           6010      2.85425e+7 
           6030       2.8455e+7 
           6050      2.81107e+7 
           6070      2.80986e+7 
           6090      2.77274e+7 
           6110      2.73515e+7 
           6130      2.68484e+7 
           6150      2.60765e+7 
           6170      2.62095e+7 
           6190       2.6536e+7 
           6210      2.62735e+7 
           6230      2.58556e+7 
           6250       2.4997e+7 
           6270      2.56533e+7 
           6290      2.54342e+7 
           6310      2.49052e+7 
           6330      2.48129e+7 
           6350      2.42691e+7 
           6370      2.41773e+7 
           6390      2.41951e+7 
           6410      2.37399e+7 
           6430      2.37264e+7 
           6450      2.30027e+7 
           6470      2.32413e+7 
           6490       2.2728e+7 
           6510      2.26757e+7 
           6530      2.22888e+7 
           6550      1.97635e+7 
           6570      1.55623e+7 
           6590      2.12463e+7 
           6610      2.17439e+7 
           6630      2.17757e+7 
           6650      2.16296e+7 
           6670       2.1407e+7 
           6690      2.12884e+7 
           6710      2.11056e+7 
           6730      2.08556e+7 
           6750      2.05404e+7 
           6770      2.06395e+7 
           6790      2.04086e+7 
           6810       2.0271e+7 
           6830      2.00152e+7 
           6850        1.988e+7 
           6870      1.97812e+7 
           6890      1.96165e+7 
           6910      1.94424e+7 
           6930      1.92519e+7 
           6950      1.91233e+7 
           6970      1.89331e+7 
           6990      1.88179e+7 
           7010      1.83481e+7 
           7030      1.84474e+7 
           7050       1.8333e+7 
           7070      1.81985e+7 
           7090      1.80675e+7 
           7110      1.75271e+7 
           7130      1.76423e+7 
           7150      1.74774e+7 
           7170      1.73551e+7 
           7190      1.72019e+7 
           7210      1.70921e+7 
           7230      1.69313e+7 
           7250      1.67198e+7 
           7270      1.67505e+7 
           7290         1.65e+7 
           7310      1.64112e+7 
           7330      1.62972e+7 
           7350      1.62198e+7 
           7370       1.6143e+7 
           7390      1.59392e+7 
           7410      1.56975e+7 
           7430      1.55039e+7 
           7450      1.54581e+7 
           7470      1.52715e+7 
           7490      1.52444e+7 
           7510        1.518e+7 
           7530      1.51075e+7 
           7550      1.50573e+7 
           7570      1.48595e+7 
           7590      1.48101e+7 
           7610      1.46881e+7 
           7630      1.45924e+7 
           7650      1.44087e+7 
           7670      1.42389e+7 
           7690      1.41452e+7 
           7710      1.40693e+7 
           7730      1.40181e+7 
           7750      1.38869e+7 
           7770      1.34323e+7 
           7790      1.37446e+7 
           7810      1.36014e+7 
           7830      1.34515e+7 
           7850      1.32773e+7 
           7870      1.32057e+7 
           7890      1.30492e+7 
           7910      1.29905e+7 
           7930      1.28382e+7 
           7950      1.26915e+7 
           7970      1.28283e+7 
           7990      1.24833e+7 
           8010      1.26113e+7 
           8030      1.24767e+7 
           8050      1.24188e+7 
           8070      1.23191e+7 
           8090      1.22359e+7 
           8110      1.21681e+7 
           8130      1.21078e+7 
           8150      1.20172e+7 
           8170      1.19308e+7 
           8190      1.16423e+7 
           8210      1.15415e+7 
           8230      1.14571e+7 
           8250      1.14537e+7 
           8270      1.15597e+7 
           8290      1.14536e+7 
           8310      1.13293e+7 
           8330       1.1149e+7 
           8350      1.11718e+7 
           8370      1.10534e+7 
           8390      1.09173e+7 
           8410      1.08127e+7 
           8430      1.08054e+7 
           8450      1.05343e+7 
           8470       1.0262e+7 
           8490      1.08634e+7 
           8510      9.69133e+6 
           8530      1.09559e+7 
           8550      8.70725e+6 
           8570      1.12627e+7 
           8590      1.03204e+7 
           8610      9.95182e+6 
           8630      1.14313e+7 
           8650      1.09742e+7 
           8670      8.35162e+6 
           8690      1.09772e+7 
           8710      1.16409e+7 
           8730      1.11838e+7 
           8750      8.65278e+6 
           8770      1.07563e+7 
           8790      1.15119e+7 
           8810      1.14777e+7 
           8830      1.10706e+7 
           8850      1.01019e+7 
           8870      8.39439e+6 
           8890      1.07205e+7 
           8910      1.10426e+7 
           8930      1.09823e+7 
           8950      1.10697e+7 
           8970      1.08794e+7 
           8990      1.04913e+7 
           9010      8.30725e+6 
           9030      9.23194e+6 
           9050      1.04428e+7 
           9070      1.02891e+7 
           9090      1.01509e+7 
           9110      1.03456e+7 
           9130      1.03781e+7 
           9150       1.0371e+7 
           9170      1.02317e+7 
           9190      9.99945e+6 
           9210      9.38181e+6 
           9230      7.23275e+6 
           9250       8.9508e+6 
           9270      9.39359e+6 
           9290      9.82506e+6 
           9310      9.80505e+6 
           9330      9.69555e+6 
           9350      9.69505e+6 
           9370      9.65586e+6 
           9390       9.4836e+6 
           9410      9.10765e+6 
