# Kurucz ODFNEW /NOVER (2003)
# teff = 9000 K (value for the effective temperature for the model. Temperatures are given in K)
# logg = 3 log(cm/s2) (value for Log(G) for the model.)
# meta = -2  (value for the Metallicity for the model.)
# lh = 1.25  (l/Hp where l is the  mixing length of the convective element and Hp is the pressure scale height)
# vtur = 2 km/s (Microturbulence velocity)
# alpha = 0  (Alpha)
#
# column 1: WAVELENGTH (ANGSTROM), Wavelength in Angstrom
# column 2: FLUX (ERG/CM2/S/A), Flux in erg/cm2/s/A
          273.5     4.79414e-23 
          278.5     2.38621e-22 
            284     1.12842e-21 
            290     5.63168e-21 
            296     2.62235e-20 
            301     9.01022e-20 
            308     4.73175e-19 
            318     4.44033e-18 
            328     3.62113e-17 
            338      2.5979e-16 
            348     1.65923e-15 
            357     8.02947e-15 
            366     3.58967e-14 
            375     1.48881e-13 
            385     6.67222e-13 
            395     2.76321e-12 
            405      1.0641e-11 
            414     3.38009e-11 
            422     9.04359e-11 
            430     2.32965e-10 
            441     8.07229e-10 
            451      2.36446e-9 
            460      5.96554e-9 
            470      1.59744e-8 
            480      4.09677e-8 
            490      1.00942e-7 
            500      2.39374e-7 
            506      4.74686e-7 
            512      8.31669e-7 
            520      1.55944e-6 
            530      3.34523e-6 
            540      6.89392e-6 
            550      1.39371e-5 
            560      2.73213e-5 
            570      5.22308e-5 
            580       9.6935e-5 
            590     0.000177975 
            600     0.000317991 
            610     0.000556711 
            620     0.000956034 
            630       0.0016119 
            640      0.00267058 
            650       0.0043516 
            658      0.00635769 
            665      0.00878815 
            675       0.0137818 
            685       0.0213091 
            695       0.0325047 
            705       0.0489443 
            716        0.075683 
            726        0.111101 
            735        0.155441 
            745        0.223421 
            755          0.3178 
            765        0.447524 
            775        0.624199 
            785        0.862615 
            795         1.18152 
            805         1.60458 
            815         2.16115 
            825         2.88791 
            835         3.82957 
            845         5.04151 
            855          6.5897 
            865         8.55442 
            875         11.0324 
            885         14.1389 
            895           18.01 
            905         22.8032 
            915         72.5043 
            925         390.619 
            935         664.062 
            945         1230.39 
            955         2028.95 
            965         2646.83 
            975         1763.32 
            985         6379.62 
            995           37067 
           1005         17808.8 
           1015         5447.49 
           1025         3242.71 
           1035         7530.19 
           1045         38324.1 
           1055          510350 
           1065      1.45959e+6 
           1075      2.63323e+6 
           1085      3.44944e+6 
           1095      3.43919e+6 
           1105      8.67602e+6 
           1115      2.00858e+7 
           1125      1.98806e+7 
           1135       1.9478e+7 
           1145      1.46551e+7 
           1155       8.8414e+6 
           1165      4.23244e+6 
           1175          940606 
           1185      2.17942e+6 
           1195         33005.5 
           1205         23214.4 
           1215         8831.63 
           1225         25609.4 
           1235           48397 
           1245         65839.1 
           1255          516530 
           1265      2.63721e+6 
           1275      7.37503e+6 
           1285      1.55227e+7 
           1295      2.10074e+7 
           1305      2.32405e+7 
           1315      3.10734e+7 
           1325      3.69192e+7 
           1335       4.0543e+7 
           1345      4.63169e+7 
           1355      4.60379e+7 
           1365      4.67023e+7 
           1375      4.76674e+7 
           1385      4.71426e+7 
           1395       4.6806e+7 
           1405      5.34838e+7 
           1415      5.80271e+7 
           1425      6.02452e+7 
           1435      5.75497e+7 
           1442      6.25453e+7 
           1447      6.30369e+7 
           1455      6.43653e+7 
           1465      6.24189e+7 
           1475      6.28481e+7 
           1485      6.33063e+7 
           1495      6.42995e+7 
           1505       6.5304e+7 
           1512       6.4536e+7 
           1517      6.53489e+7 
           1525       6.4077e+7 
           1535       6.3304e+7 
           1545      6.43258e+7 
           1555       6.1253e+7 
           1565      5.66473e+7 
           1575      5.90283e+7 
           1585      6.09776e+7 
           1595      6.26321e+7 
           1605      5.98973e+7 
           1615      6.06947e+7 
           1625      5.78799e+7 
           1635      5.96769e+7 
           1645      6.08247e+7 
           1655      5.55874e+7 
           1665      6.09622e+7 
           1672      5.59653e+7 
           1677       5.8058e+7 
           1685      6.04909e+7 
           1695      5.80313e+7 
           1705      5.74822e+7 
           1715      5.87889e+7 
           1725      5.77433e+7 
           1735      5.92122e+7 
           1745      5.79515e+7 
           1755      5.92879e+7 
           1765        5.618e+7 
           1775       5.8501e+7 
           1785      5.74584e+7 
           1795      5.88837e+7 
           1805      5.75913e+7 
           1815      5.70613e+7 
           1825      5.58269e+7 
           1835      5.59037e+7 
           1845      5.42579e+7 
           1855      5.50233e+7 
           1865      5.50024e+7 
           1875      5.54406e+7 
           1885       5.5348e+7 
           1895      5.48399e+7 
           1905       5.3812e+7 
           1915      5.37857e+7 
           1925      5.41514e+7 
           1935      5.31213e+7 
           1945      5.44018e+7 
           1955      5.40005e+7 
           1967      5.39415e+7 
           1976      5.29881e+7 
           1984      5.28277e+7 
           1995      5.24616e+7 
           2005      5.15516e+7 
           2015      5.02099e+7 
           2025      5.03022e+7 
           2035      5.10427e+7 
           2045      5.08762e+7 
           2055      4.94795e+7 
           2065      4.94131e+7 
           2074      5.04005e+7 
           2078      5.05312e+7 
           2085      5.03606e+7 
           2095      4.96784e+7 
           2105      4.96148e+7 
           2115      4.92486e+7 
           2125      4.90431e+7 
           2135      4.71897e+7 
           2145      4.87019e+7 
           2155      4.82437e+7 
           2165      4.69961e+7 
           2175      4.69018e+7 
           2185      4.68996e+7 
           2195      4.81395e+7 
           2205       4.6891e+7 
           2215      4.52177e+7 
           2225      4.50336e+7 
           2235      4.69439e+7 
           2245       4.5528e+7 
           2255      4.44361e+7 
           2265      4.40306e+7 
           2275       4.5502e+7 
           2285      4.56941e+7 
           2295      4.45464e+7 
           2305       4.4645e+7 
           2315      4.42102e+7 
           2325      4.43765e+7 
           2335      4.36828e+7 
           2345      4.14572e+7 
           2355       4.3395e+7 
           2365      4.15955e+7 
           2375      4.27253e+7 
           2385      4.01286e+7 
           2395      4.21303e+7 
           2405      4.15097e+7 
           2415      4.17151e+7 
           2425      4.24769e+7 
           2435      4.14857e+7 
           2445       4.2173e+7 
           2455      4.19257e+7 
           2465      4.11306e+7 
           2475      4.05695e+7 
           2485       4.1465e+7 
           2495      4.07217e+7 
           2505      4.19534e+7 
           2513      4.09016e+7 
           2518      4.09301e+7 
           2525      3.96251e+7 
           2535       3.9377e+7 
           2545      3.94613e+7 
           2555       4.0687e+7 
           2565      4.03451e+7 
           2575      4.11784e+7 
           2585       4.1312e+7 
           2595      4.09998e+7 
           2605      4.03437e+7 
           2615      4.00996e+7 
           2625       4.0208e+7 
           2635      4.04671e+7 
           2645      4.21073e+7 
           2655      4.18265e+7 
           2665      4.08024e+7 
           2675      4.12281e+7 
           2685      4.14672e+7 
           2695      4.08581e+7 
           2705      4.08578e+7 
           2715      4.01398e+7 
           2725       4.0142e+7 
           2735      4.07742e+7 
           2745      3.86793e+7 
           2755      3.87916e+7 
           2765      3.95394e+7 
           2775      4.04594e+7 
           2785      4.02792e+7 
           2795      3.75769e+7 
           2805      3.90197e+7 
           2815       4.0579e+7 
           2825      4.03272e+7 
           2835      3.97456e+7 
           2845      3.94224e+7 
           2855      3.88736e+7 
           2865      3.91865e+7 
           2875      3.91012e+7 
           2885      3.94394e+7 
           2895      3.95383e+7 
           2910      3.99263e+7 
           2930       3.9229e+7 
           2950       3.9053e+7 
           2970      3.90721e+7 
           2990      3.89245e+7 
           3010      3.90971e+7 
           3030      3.89959e+7 
           3050      3.87777e+7 
           3070      3.84572e+7 
           3090      3.84956e+7 
           3110      3.82751e+7 
           3130      3.79925e+7 
           3150      3.79133e+7 
           3170      3.78158e+7 
           3190      3.72913e+7 
           3210      3.74057e+7 
           3230      3.70955e+7 
           3250      3.71397e+7 
           3270      3.71448e+7 
           3290      3.70496e+7 
           3310      3.69368e+7 
           3330      3.66575e+7 
           3350      3.63218e+7 
           3370      3.62436e+7 
           3390      3.61122e+7 
           3410      3.61434e+7 
           3430      3.59761e+7 
           3450      3.58641e+7 
           3470      3.56802e+7 
           3490      3.55477e+7 
           3510      3.54465e+7 
           3530      3.53211e+7 
           3550      3.51754e+7 
           3570      3.49922e+7 
           3590       3.4846e+7 
           3610      3.47038e+7 
           3630       3.4554e+7 
           3640      3.44668e+7 
           3650      3.46741e+7 
           3670      3.43252e+7 
           3690       3.3326e+7 
           3710      3.81872e+7 
           3730      4.36303e+7 
           3750      6.22511e+7 
           3770      6.74794e+7 
           3790      8.33997e+7 
           3810      9.69197e+7 
           3830      7.65021e+7 
           3850      1.05832e+8 
           3870      1.17079e+8 
           3890      6.54965e+7 
           3910      1.14955e+8 
           3930      1.17737e+8 
           3950      1.12993e+8 
           3970      6.23863e+7 
           3990      1.07786e+8 
           4010      1.14093e+8 
           4030      1.13057e+8 
           4050       1.1164e+8 
           4070      1.08551e+8 
           4090      8.80336e+7 
           4110      6.67703e+7 
           4130        1.031e+8 
           4150      1.04377e+8 
           4170      1.03413e+8 
           4190      1.02336e+8 
           4210       1.0102e+8 
           4230      9.96055e+7 
           4250      9.83032e+7 
           4270      9.68245e+7 
           4290      9.52463e+7 
           4310      9.22512e+7 
           4330      7.17275e+7 
           4350      6.05574e+7 
           4370      8.82834e+7 
           4390      8.90779e+7 
           4410      8.84519e+7 
           4430      8.76282e+7 
           4450      8.65759e+7 
           4470      8.53712e+7 
           4490      8.40685e+7 
           4510      8.33209e+7 
           4530      8.22857e+7 
           4550      8.11326e+7 
           4570      8.03068e+7 
           4590      7.92795e+7 
           4610      7.84211e+7 
           4630      7.73901e+7 
           4650      7.65272e+7 
           4670      7.55984e+7 
           4690      7.46673e+7 
           4710      7.36372e+7 
           4730      7.29097e+7 
           4750      7.20432e+7 
           4770      7.11125e+7 
           4790      7.00995e+7 
           4810      6.89609e+7 
           4830      6.68569e+7 
           4850      5.40034e+7 
           4870      4.33613e+7 
           4890      6.35957e+7 
           4910      6.48851e+7 
           4930      6.44341e+7 
           4950      6.39375e+7 
           4970      6.33065e+7 
           4990      6.25747e+7 
           5010      6.17939e+7 
           5030      6.11605e+7 
           5050      6.04407e+7 
           5070      5.97874e+7 
           5090      5.91149e+7 
           5110      5.84497e+7 
           5130       5.7793e+7 
           5150      5.71475e+7 
           5170      5.63637e+7 
           5190      5.58169e+7 
           5210       5.5267e+7 
           5230      5.46234e+7 
           5250      5.40604e+7 
           5270      5.34325e+7 
           5290      5.28838e+7 
           5310      5.22818e+7 
           5330      5.17297e+7 
           5350       5.1187e+7 
           5370      5.06275e+7 
           5390      5.00878e+7 
           5410      4.95456e+7 
           5430      4.90191e+7 
           5450      4.85001e+7 
           5470      4.79862e+7 
           5490       4.7481e+7 
           5510      4.69781e+7 
           5530      4.64788e+7 
           5550      4.59976e+7 
           5570      4.55149e+7 
           5590      4.50403e+7 
           5610      4.45737e+7 
           5630      4.41126e+7 
           5650      4.36556e+7 
           5670      4.32064e+7 
           5690      4.27624e+7 
           5710      4.23247e+7 
           5730      4.18932e+7 
           5750      4.14656e+7 
           5770      4.10451e+7 
           5790      4.06294e+7 
           5810      4.02196e+7 
           5830      3.98145e+7 
           5850       3.9415e+7 
           5870      3.89927e+7 
           5890      3.86143e+7 
           5910      3.82466e+7 
           5930       3.7867e+7 
           5950      3.74904e+7 
           5970      3.71213e+7 
           5990      3.67541e+7 
           6010      3.63952e+7 
           6030      3.60391e+7 
           6050       3.5688e+7 
           6070      3.53418e+7 
           6090      3.49983e+7 
           6110      3.46606e+7 
           6130      3.43255e+7 
           6150      3.39871e+7 
           6170      3.36691e+7 
           6190      3.33477e+7 
           6210      3.30297e+7 
           6230      3.27151e+7 
           6250       3.2399e+7 
           6270      3.20987e+7 
           6290      3.17949e+7 
           6310      3.14953e+7 
           6330      3.11997e+7 
           6350      3.08933e+7 
           6370      3.06114e+7 
           6390      3.03333e+7 
           6410       3.0049e+7 
           6430      2.97712e+7 
           6450      2.94882e+7 
           6470      2.91793e+7 
           6490      2.88494e+7 
           6510      2.84715e+7 
           6530      2.77991e+7 
           6550      2.45887e+7 
           6570      1.96678e+7 
           6590      2.64468e+7 
           6610      2.70949e+7 
           6630      2.70311e+7 
           6650      2.68483e+7 
           6670      2.66706e+7 
           6690      2.64323e+7 
           6710      2.61988e+7 
           6730      2.59643e+7 
           6750      2.57338e+7 
           6770      2.55055e+7 
           6790      2.52795e+7 
           6810      2.50557e+7 
           6830      2.48348e+7 
           6850       2.4617e+7 
           6870      2.44004e+7 
           6890      2.41875e+7 
           6910      2.39759e+7 
           6930      2.37671e+7 
           6950      2.35611e+7 
           6970      2.33563e+7 
           6990       2.3155e+7 
           7010      2.29548e+7 
           7030      2.27573e+7 
           7050      2.25617e+7 
           7070      2.23687e+7 
           7090      2.21774e+7 
           7110       2.1985e+7 
           7130      2.18011e+7 
           7150      2.16159e+7 
           7170      2.14332e+7 
           7190      2.12522e+7 
           7210      2.10729e+7 
           7230      2.08959e+7 
           7250      2.07206e+7 
           7270      2.05476e+7 
           7290      2.03754e+7 
           7310      2.02056e+7 
           7330       2.0038e+7 
           7350      1.98719e+7 
           7370      1.97073e+7 
           7390      1.95442e+7 
           7410      1.93833e+7 
           7430      1.92238e+7 
           7450      1.90657e+7 
           7470      1.89084e+7 
           7490      1.87552e+7 
           7510      1.86027e+7 
           7530      1.84515e+7 
           7550      1.83023e+7 
           7570      1.81538e+7 
           7590      1.80072e+7 
           7610      1.78626e+7 
           7630      1.77186e+7 
           7650      1.75765e+7 
           7670      1.74357e+7 
           7690      1.72967e+7 
           7710      1.71576e+7 
           7730      1.70223e+7 
           7750      1.68869e+7 
           7770      1.67002e+7 
           7790      1.66208e+7 
           7810      1.64895e+7 
           7830      1.63598e+7 
           7850      1.62314e+7 
           7870      1.61015e+7 
           7890       1.5974e+7 
           7910      1.58536e+7 
           7930        1.573e+7 
           7950      1.56068e+7 
           7970      1.54865e+7 
           7990       1.5363e+7 
           8010      1.52482e+7 
           8030      1.51303e+7 
           8050      1.50139e+7 
           8070      1.48986e+7 
           8090      1.47847e+7 
           8110      1.46718e+7 
           8130      1.45598e+7 
           8150      1.44487e+7 
           8170      1.43391e+7 
           8190      1.42276e+7 
           8210      1.41751e+7 
           8230      1.40763e+7 
           8250      1.39799e+7 
           8270      1.38887e+7 
           8290      1.37921e+7 
           8310      1.36909e+7 
           8330      1.35769e+7 
           8350      1.34655e+7 
           8370      1.33103e+7 
           8390      1.31742e+7 
           8410      1.30072e+7 
           8430      1.29773e+7 
           8450       1.2917e+7 
           8470      1.23467e+7 
           8490      1.30548e+7 
           8510      1.19844e+7 
           8530      1.31714e+7 
           8550      1.13726e+7 
           8570      1.33857e+7 
           8590      1.21962e+7 
           8610      1.17986e+7 
           8630      1.36439e+7 
           8650      1.30552e+7 
           8670      1.04871e+7 
           8690      1.34746e+7 
           8710      1.39347e+7 
           8730      1.33731e+7 
           8750      1.01595e+7 
           8770      1.26411e+7 
           8790      1.37222e+7 
           8810      1.37657e+7 
           8830      1.34768e+7 
           8850      1.19913e+7 
           8870      9.88355e+6 
           8890      1.27917e+7 
           8910       1.3253e+7 
           8930      1.32546e+7 
           8950      1.31677e+7 
           8970      1.29841e+7 
           8990      1.24537e+7 
           9010      9.75885e+6 
           9030      1.08065e+7 
           9050      1.23797e+7 
           9070      1.25455e+7 
           9090      1.25003e+7 
           9110      1.24564e+7 
           9130      1.23739e+7 
           9150      1.22717e+7 
           9170      1.21416e+7 
           9190      1.19144e+7 
           9210      1.11463e+7 
