# Kurucz ODFNEW /NOVER (2003)
# teff = 19000 K (value for the effective temperature for the model. Temperatures are given in K)
# logg = 5 log(cm/s2) (value for Log(G) for the model.)
# meta = 0  (value for the Metallicity for the model.)
# lh = 1.25  (l/Hp where l is the  mixing length of the convective element and Hp is the pressure scale height)
# vtur = 2 km/s (Microturbulence velocity)
# alpha = 0  (Alpha)
#
# column 1: WAVELENGTH (ANGSTROM), Wavelength in Angstrom
# column 2: FLUX (ERG/CM2/S/A), Flux in erg/cm2/s/A
          147.2     1.41334e-20 
            151     9.12769e-20 
          155.2     6.46008e-19 
          158.8     3.17937e-18 
            162     1.23626e-17 
            166     6.27559e-17 
          170.3     3.30264e-16 
          173.4     1.03998e-15 
          176.8     3.49079e-15 
          180.2     1.11943e-14 
          181.7     1.84526e-14 
          186.1     7.64158e-14 
            191     3.44045e-13 
          193.9      8.0574e-13 
          198.4     2.87486e-12 
          201.8      7.2621e-12 
            205     1.69257e-11 
          210.5     6.78033e-11 
          216.2     2.65389e-10 
          219.8     6.06025e-10 
            223      1.23119e-9 
          226.8      2.78873e-9 
            230      7.06977e-9 
            234      1.76538e-8 
            240      5.71157e-8 
          246.5       1.8899e-7 
          252.4      5.31483e-7 
          256.8      1.10083e-6 
            260      1.87729e-6 
            264       3.5413e-6 
          268.5      7.05307e-6 
          273.5      1.47514e-5 
          278.5      3.01317e-5 
            284      6.41957e-5 
            290     0.000141352 
            296     0.000300684 
            301     0.000552073 
            308      0.00123999 
            318      0.00376454 
            328       0.0105293 
            338       0.0278705 
            348       0.0693893 
            357        0.151497 
            366        0.317597 
            375        0.636683 
            385         1.32956 
            395         2.66421 
            405         5.15581 
            414         9.08436 
            422         14.6667 
            430         23.2007 
            441         42.6666 
            451         72.0728 
            460         112.942 
            470          182.31 
            480          287.73 
            490         445.517 
            500          676.29 
            506         6003.58 
            512         21793.8 
            520         28084.7 
            530           39513 
            540         48155.7 
            550         70231.1 
            560         89177.7 
            570          116938 
            580          130433 
            590          180724 
            600          228413 
            610          288596 
            620          346544 
            630          422186 
            640          487348 
            650          563694 
            658          689994 
            665          767532 
            675          889267 
            685       1.0386e+6 
            695      1.24618e+6 
            705       1.4315e+6 
            716      1.67327e+6 
            726      1.90589e+6 
            735      2.14242e+6 
            745      2.47632e+6 
            755      2.82165e+6 
            765       3.1888e+6 
            775      3.61121e+6 
            785      4.06701e+6 
            795      4.49637e+6 
            805      5.00479e+6 
            815      5.51574e+6 
            825      6.16937e+6 
            835      6.65142e+6 
            845      7.36918e+6 
            855      8.08317e+6 
            865      8.91291e+6 
            875      9.79632e+6 
            885      1.07994e+7 
            895      1.17352e+7 
            905      1.23609e+7 
            915      1.92823e+7 
            925       6.3689e+7 
            935      1.28542e+8 
            945      4.70835e+8 
            955      1.59457e+9 
            965      2.37387e+9 
            975      5.11896e+8 
            985      4.78258e+9 
            995      5.22347e+9 
           1005      6.16217e+9 
           1015      3.98588e+9 
           1025      3.80306e+8 
           1035      2.42456e+9 
           1045       7.2812e+9 
           1055      7.80215e+9 
           1065      6.24735e+9 
           1075      7.72676e+9 
           1085      6.91584e+9 
           1095      7.73489e+9 
           1105      6.82665e+9 
           1115      6.56809e+9 
           1125      6.32236e+9 
           1135      7.53064e+9 
           1145      6.36434e+9 
           1155      6.91966e+9 
           1165      7.27991e+9 
           1175      5.69504e+9 
           1185      7.03411e+9 
           1195      4.21835e+9 
           1205       2.3649e+9 
           1215      4.60785e+8 
           1225      1.99634e+9 
           1235       5.6548e+9 
           1245      6.57637e+9 
           1255      6.55427e+9 
           1265      5.83307e+9 
           1275      6.53311e+9 
           1285      6.88379e+9 
           1295      4.82395e+9 
           1305      4.15613e+9 
           1315      6.35694e+9 
           1325      6.02574e+9 
           1335      5.34436e+9 
           1345      6.08652e+9 
           1355      5.84046e+9 
           1365      5.30107e+9 
           1375      5.40697e+9 
           1385      5.49905e+9 
           1395       5.0037e+9 
           1405      5.17701e+9 
           1415      4.99854e+9 
           1425      5.10896e+9 
           1435       5.0219e+9 
           1442      5.25789e+9 
           1447      5.20452e+9 
           1455      5.07378e+9 
           1465      4.77673e+9 
           1475      4.67322e+9 
           1485      4.52405e+9 
           1495      4.59925e+9 
           1505      4.28153e+9 
           1512      3.93794e+9 
           1517      4.15349e+9 
           1525      4.14923e+9 
           1535      3.78628e+9 
           1545      3.93407e+9 
           1555       3.6892e+9 
           1565      3.67358e+9 
           1575      3.85944e+9 
           1585      3.87523e+9 
           1595        3.922e+9 
           1605      3.77925e+9 
           1615      3.77231e+9 
           1625      3.60733e+9 
           1635      3.71963e+9 
           1645      3.68985e+9 
           1655      3.42602e+9 
           1665      3.68844e+9 
           1672      3.51869e+9 
           1677      3.58186e+9 
           1685        3.642e+9 
           1695      3.47052e+9 
           1705      3.29464e+9 
           1715      3.11569e+9 
           1725      3.06536e+9 
           1735      3.19057e+9 
           1745      3.07221e+9 
           1755      3.18016e+9 
           1765      2.91651e+9 
           1775      2.99052e+9 
           1785       2.9979e+9 
           1795      3.08502e+9 
           1805      3.05498e+9 
           1815      2.84952e+9 
           1825      2.90683e+9 
           1835      2.77611e+9 
           1845      2.58751e+9 
           1855      2.51293e+9 
           1865      2.54595e+9 
           1875      2.71851e+9 
           1885      2.49487e+9 
           1895      2.36758e+9 
           1905      2.51179e+9 
           1915      2.38362e+9 
           1925      2.33014e+9 
           1935      2.38611e+9 
           1945      2.42039e+9 
           1955      2.25721e+9 
           1967      2.40122e+9 
           1976      2.47173e+9 
           1984      2.31268e+9 
           1995      2.24361e+9 
           2005      2.28932e+9 
           2015      2.19502e+9 
           2025      2.32122e+9 
           2035      2.17629e+9 
           2045      2.18659e+9 
           2055      2.09675e+9 
           2065      2.13392e+9 
           2074      2.17903e+9 
           2078      2.08227e+9 
           2085      2.12784e+9 
           2095      2.01822e+9 
           2105       2.0524e+9 
           2115      2.03717e+9 
           2125      2.06401e+9 
           2135      1.98439e+9 
           2145      1.95536e+9 
           2155       1.9908e+9 
           2165      1.93805e+9 
           2175      1.91342e+9 
           2185      1.87141e+9 
           2195      1.89623e+9 
           2205      1.84482e+9 
           2215      1.79979e+9 
           2225      1.73319e+9 
           2235      1.78823e+9 
           2245      1.74498e+9 
           2255      1.68761e+9 
           2265      1.71188e+9 
           2275      1.71222e+9 
           2285      1.71473e+9 
           2295      1.65433e+9 
           2305      1.62483e+9 
           2315      1.58052e+9 
           2325       1.5657e+9 
           2335      1.50513e+9 
           2345      1.46875e+9 
           2355      1.48911e+9 
           2365      1.43782e+9 
           2375      1.44831e+9 
           2385      1.39374e+9 
           2395      1.44077e+9 
           2405      1.38446e+9 
           2415      1.39059e+9 
           2425      1.40105e+9 
           2435      1.34351e+9 
           2445      1.37048e+9 
           2455      1.35333e+9 
           2465      1.33177e+9 
           2475      1.30363e+9 
           2485      1.33336e+9 
           2495      1.29068e+9 
           2505       1.3154e+9 
           2513      1.25955e+9 
           2518      1.28985e+9 
           2525      1.23957e+9 
           2535      1.22922e+9 
           2545      1.20434e+9 
           2555      1.23089e+9 
           2565      1.21375e+9 
           2575      1.23383e+9 
           2585      1.22971e+9 
           2595      1.22081e+9 
           2605      1.19331e+9 
           2615      1.18431e+9 
           2625      1.17503e+9 
           2635      1.17068e+9 
           2645      1.19039e+9 
           2655      1.17727e+9 
           2665      1.14044e+9 
           2675      1.14957e+9 
           2685      1.13726e+9 
           2695      1.11442e+9 
           2705      1.11165e+9 
           2715      1.08896e+9 
           2725      1.07322e+9 
           2735      1.08649e+9 
           2745      1.03464e+9 
           2755      1.02938e+9 
           2765       1.0319e+9 
           2775      1.04341e+9 
           2785      1.03287e+9 
           2795      9.81316e+8 
           2805      1.00493e+9 
           2815      1.01221e+9 
           2825      9.93912e+8 
           2835      9.59867e+8 
           2845      9.55412e+8 
           2855      9.57003e+8 
           2865      9.64241e+8 
           2875      9.47336e+8 
           2885      9.42545e+8 
           2895      9.36224e+8 
           2910      9.29133e+8 
           2930       9.0539e+8 
           2950      8.84454e+8 
           2970      8.76041e+8 
           2990      8.57366e+8 
           3010      8.48131e+8 
           3030      8.36192e+8 
           3050      8.19146e+8 
           3070      8.03871e+8 
           3090      7.90737e+8 
           3110      7.74718e+8 
           3130      7.63195e+8 
           3150      7.49396e+8 
           3170      7.35846e+8 
           3190       7.1469e+8 
           3210      7.09615e+8 
           3230      6.98543e+8 
           3250      6.87047e+8 
           3270      6.76414e+8 
           3290      6.64874e+8 
           3310        6.548e+8 
           3330      6.43323e+8 
           3350      6.31334e+8 
           3370      6.21641e+8 
           3390      6.11541e+8 
           3410      6.01926e+8 
           3430      5.90828e+8 
           3450      5.80168e+8 
           3470      5.71435e+8 
           3490       5.6243e+8 
           3510      5.53867e+8 
           3530      5.45795e+8 
           3550      5.36972e+8 
           3570      5.30027e+8 
           3590       5.1873e+8 
           3610      5.11957e+8 
           3630      5.03272e+8 
           3640      5.01705e+8 
           3650      4.96556e+8 
           3670      4.90683e+8 
           3690      4.83055e+8 
           3710      4.68253e+8 
           3730      4.46593e+8 
           3750      4.54245e+8 
           3770      4.50578e+8 
           3790      4.88874e+8 
           3810      5.24708e+8 
           3830      4.46254e+8 
           3850      5.52011e+8 
           3870      5.84026e+8 
           3890      4.11108e+8 
           3910      5.81034e+8 
           3930      5.87843e+8 
           3950      5.66259e+8 
           3970      3.86341e+8 
           3990      5.36836e+8 
           4010      5.60264e+8 
           4030      5.20271e+8 
           4050      5.53386e+8 
           4070      5.33315e+8 
           4090      4.51564e+8 
           4110      3.79158e+8 
           4130      4.94012e+8 
           4150      5.02474e+8 
           4170      5.01825e+8 
           4190      4.97282e+8 
           4210      4.90719e+8 
           4230      4.82216e+8 
           4250      4.73621e+8 
           4270      4.59772e+8 
           4290      4.56028e+8 
           4310      4.39698e+8 
           4330       3.6353e+8 
           4350      3.25912e+8 
           4370      4.14943e+8 
           4390      4.05287e+8 
           4410      4.16147e+8 
           4430      4.08636e+8 
           4450      4.05313e+8 
           4470       3.7462e+8 
           4490      3.88762e+8 
           4510      3.88544e+8 
           4530      3.81596e+8 
           4550      3.76083e+8 
           4570      3.71157e+8 
           4590      3.65534e+8 
           4610      3.59887e+8 
           4630      3.53551e+8 
           4650      3.48652e+8 
           4670      3.44204e+8 
           4690      3.39613e+8 
           4710      3.27667e+8 
           4730      3.27815e+8 
           4750      3.22672e+8 
           4770      3.20105e+8 
           4790      3.14432e+8 
           4810      3.07264e+8 
           4830      2.97151e+8 
           4850      2.54297e+8 
           4870      2.22207e+8 
           4890       2.8149e+8 
           4910       2.8539e+8 
           4930      2.74895e+8 
           4950      2.80935e+8 
           4970      2.78007e+8 
           4990      2.73892e+8 
           5010      2.64145e+8 
           5030      2.65488e+8 
           5050      2.57938e+8 
           5070      2.59176e+8 
           5090        2.555e+8 
           5110      2.51513e+8 
           5130      2.48024e+8 
           5150      2.44254e+8 
           5170      2.41903e+8 
           5190      2.38714e+8 
           5210      2.33692e+8 
           5230      2.32377e+8 
           5250      2.29489e+8 
           5270       2.2615e+8 
           5290      2.23824e+8 
           5310      2.20644e+8 
           5330      2.17665e+8 
           5350      2.14409e+8 
           5370      2.12397e+8 
           5390      2.09631e+8 
           5410      2.06706e+8 
           5430       2.0364e+8 
           5450      2.01324e+8 
           5470      1.98583e+8 
           5490      1.96576e+8 
           5510      1.93923e+8 
           5530      1.91611e+8 
           5550      1.89279e+8 
           5570      1.86841e+8 
           5590      1.84578e+8 
           5610      1.82152e+8 
           5630       1.8023e+8 
           5650       1.7682e+8 
           5670      1.74848e+8 
           5690      1.73226e+8 
           5710      1.71413e+8 
           5730      1.69393e+8 
           5750      1.67305e+8 
           5770      1.65355e+8 
           5790      1.63293e+8 
           5810      1.61278e+8 
           5830      1.59375e+8 
           5850      1.57473e+8 
           5870      1.50366e+8 
           5890      1.52811e+8 
           5910      1.51876e+8 
           5930      1.50178e+8 
           5950      1.47914e+8 
           5970      1.46608e+8 
           5990      1.44644e+8 
           6010      1.43307e+8 
           6030      1.41602e+8 
           6050      1.39988e+8 
           6070      1.38341e+8 
           6090      1.36702e+8 
           6110      1.35223e+8 
           6130      1.33681e+8 
           6150      1.31687e+8 
           6170      1.30568e+8 
           6190      1.29155e+8 
           6210       1.2768e+8 
           6230      1.26172e+8 
           6250      1.24469e+8 
           6270      1.23379e+8 
           6290      1.21977e+8 
           6310      1.20505e+8 
           6330      1.19293e+8 
           6350      1.17179e+8 
           6370      1.16166e+8 
           6390       1.1531e+8 
           6410      1.13968e+8 
           6430      1.12905e+8 
           6450      1.11545e+8 
           6470        1.102e+8 
           6490      1.08815e+8 
           6510      1.07178e+8 
           6530      1.04729e+8 
           6550      9.57575e+7 
           6570      8.32725e+7 
           6590      9.93176e+7 
           6610      1.01278e+8 
           6630      1.00831e+8 
           6650      9.99784e+7 
           6670      9.79317e+7 
           6690      9.70525e+7 
           6710      9.70354e+7 
           6730      9.60353e+7 
           6750      9.50536e+7 
           6770      9.40737e+7 
           6790      9.29156e+7 
           6810      9.20782e+7 
           6830      9.10794e+7 
           6850      9.02031e+7 
           6870      8.92875e+7 
           6890      8.83652e+7 
           6910       8.7452e+7 
           6930      8.64538e+7 
           6950       8.5684e+7 
           6970      8.48207e+7 
           6990      8.39505e+7 
           7010      8.30735e+7 
           7030      8.22432e+7 
           7050      8.13149e+7 
           7070      7.94988e+7 
           7090      7.98229e+7 
           7110       7.8972e+7 
           7130      7.81961e+7 
           7150      7.74129e+7 
           7170      7.66739e+7 
           7190      7.59273e+7 
           7210      7.51805e+7 
           7230      7.39363e+7 
           7250      7.36652e+7 
           7270      7.29824e+7 
           7290      7.18382e+7 
           7310      7.15655e+7 
           7330       7.0867e+7 
           7350      7.01889e+7 
           7370      6.95103e+7 
           7390      6.88393e+7 
           7410      6.81766e+7 
           7430      6.74552e+7 
           7450      6.68498e+7 
           7470      6.61555e+7 
           7490      6.55555e+7 
           7510       6.4947e+7 
           7530       6.4348e+7 
           7550      6.37438e+7 
           7570       6.3151e+7 
           7590      6.25446e+7 
           7610       6.1975e+7 
           7630      6.13904e+7 
           7650      6.08129e+7 
           7670      6.02471e+7 
           7690       5.9685e+7 
           7710      5.91337e+7 
           7730      5.85797e+7 
           7750      5.80419e+7 
           7770      5.70571e+7 
           7790      5.69786e+7 
           7810      5.64506e+7 
           7830      5.59463e+7 
           7850      5.53015e+7 
           7870      5.48128e+7 
           7890      5.42212e+7 
           7910      5.39359e+7 
           7930      5.34695e+7 
           7950      5.28557e+7 
           7970      5.24982e+7 
           7990      5.18409e+7 
           8010      5.15712e+7 
           8030      5.10961e+7 
           8050       5.0635e+7 
           8070      5.01975e+7 
           8090       4.9732e+7 
           8110      4.92923e+7 
           8130       4.8854e+7 
           8150      4.84279e+7 
           8170      4.80178e+7 
           8190      4.75539e+7 
           8210      4.70229e+7 
           8230      4.65855e+7 
           8250       4.6335e+7 
           8270      4.58677e+7 
           8290      4.55299e+7 
           8310      4.51681e+7 
           8330      4.47804e+7 
           8350      4.43192e+7 
           8370      4.39899e+7 
           8390      4.36825e+7 
           8410      4.33035e+7 
           8430      4.29079e+7 
           8450      4.22418e+7 
           8470      4.21607e+7 
           8490      4.17287e+7 
           8510      4.13283e+7 
           8530       4.1039e+7 
           8550      4.03216e+7 
           8570      4.05265e+7 
           8590      3.93802e+7 
