# Kurucz ODFNEW /NOVER (2003)
# teff = 29000 K (value for the effective temperature for the model. Temperatures are given in K)
# logg = 4 log(cm/s2) (value for Log(G) for the model.)
# meta = -2.5  (value for the Metallicity for the model.)
# lh = 1.25  (l/Hp where l is the  mixing length of the convective element and Hp is the pressure scale height)
# vtur = 2 km/s (Microturbulence velocity)
# alpha = 0.4  (Alpha)
#
# column 1: WAVELENGTH (ANGSTROM), Wavelength in Angstrom
# column 2: FLUX (ERG/CM2/S/A), Flux in erg/cm2/s/A
          147.2      1.48831e-9 
            151       5.3442e-9 
          155.2      2.04028e-8 
          158.8      6.09536e-8 
            162      1.54774e-7 
            166      4.71048e-7 
          170.3       1.4755e-6 
          173.4      3.23836e-6 
          176.8      7.42895e-6 
          180.2      1.65347e-5 
          181.7      2.33284e-5 
          186.1        6.193e-5 
            191     0.000173871 
          193.9     0.000312799 
          198.4     0.000752309 
          201.8      0.00141965 
            205      0.00253119 
          210.5      0.00658027 
          216.2       0.0167746 
          219.8       0.0295273 
            223       0.0480804 
          226.8       0.0842617 
            230         8.06657 
            234         22.4609 
            240         43.7379 
          246.5         88.0408 
          252.4         161.441 
          256.8         207.016 
            260         326.445 
            264         453.782 
          268.5         677.193 
          273.5         1024.19 
          278.5         1518.63 
            284         2338.58 
            290         3611.18 
            296         5448.68 
            301         7256.74 
            308         10399.9 
            318         22102.2 
            328           38617 
            338         66393.6 
            348          109161 
            357          166729 
            366          251347 
            375          361526 
            385          542556 
            395          785500 
            405      1.11513e+6 
            414      1.51322e+6 
            422      1.93933e+6 
            430      2.46474e+6 
            441      3.39458e+6 
            451      4.48313e+6 
            460      5.63403e+6 
            470       7.2508e+6 
            480      9.16659e+6 
            490      1.14615e+7 
            500      1.42343e+7 
            506      9.94102e+7 
            512      3.12384e+8 
            520      3.23494e+8 
            530      3.60193e+8 
            540      3.46614e+8 
            550       4.0627e+8 
            560      4.31365e+8 
            570      4.62024e+8 
            580      4.45434e+8 
            590      5.09012e+8 
            600      5.36358e+8 
            610      5.72262e+8 
            620      6.01052e+8 
            630      6.39396e+8 
            640       6.5992e+8 
            650      7.05532e+8 
            658      7.31194e+8 
            665      7.56696e+8 
            675      7.83804e+8 
            685      8.05204e+8 
            695      8.76494e+8 
            705      8.91371e+8 
            716      9.54213e+8 
            726      9.91149e+8 
            735      1.03885e+9 
            745      1.08188e+9 
            755      1.12181e+9 
            765      1.16458e+9 
            775      1.21507e+9 
            785      1.26495e+9 
            795      1.30223e+9 
            805      1.34978e+9 
            815      1.38991e+9 
            825      1.44122e+9 
            835      1.43073e+9 
            845      1.52586e+9 
            855      1.56799e+9 
            865      1.61577e+9 
            875      1.66251e+9 
            885      1.70817e+9 
            895        1.752e+9 
            905       1.7846e+9 
            915      2.48998e+9 
            925     1.61078e+10 
            935     3.00504e+10 
            945     5.13485e+10 
            955     5.71068e+10 
            965     6.77787e+10 
            975     4.07195e+10 
            985     6.60055e+10 
            995     6.18734e+10 
           1005     6.37962e+10 
           1015     6.11009e+10 
           1025     3.77438e+10 
           1035     5.80731e+10 
           1045     6.01822e+10 
           1055     5.88842e+10 
           1065     5.57243e+10 
           1075     5.53411e+10 
           1085      5.1948e+10 
           1095     5.38816e+10 
           1105     5.18463e+10 
           1115     5.07508e+10 
           1125     4.82422e+10 
           1135     4.91534e+10 
           1145      4.7471e+10 
           1155     4.68135e+10 
           1165     4.60577e+10 
           1175     4.10258e+10 
           1185     4.37838e+10 
           1195      4.2289e+10 
           1205     3.98724e+10 
           1215     2.49561e+10 
           1225     3.92338e+10 
           1235     3.95149e+10 
           1245     3.84015e+10 
           1255     3.80694e+10 
           1265      3.7291e+10 
           1275     3.65669e+10 
           1285     3.58152e+10 
           1295     3.40264e+10 
           1305     3.37547e+10 
           1315     3.36398e+10 
           1325     3.27971e+10 
           1335     3.17537e+10 
           1345     3.15499e+10 
           1355     3.10059e+10 
           1365     3.02783e+10 
           1375     2.97119e+10 
           1385     2.91528e+10 
           1395     2.76426e+10 
           1405     2.72791e+10 
           1415     2.73484e+10 
           1425     2.67952e+10 
           1435      2.6359e+10 
           1442     2.60458e+10 
           1447     2.57797e+10 
           1455     2.53618e+10 
           1465      2.4871e+10 
           1475     2.43895e+10 
           1485     2.39408e+10 
           1495     2.34615e+10 
           1505     2.29229e+10 
           1512     2.26897e+10 
           1517     2.24732e+10 
           1525     2.21036e+10 
           1535     2.14696e+10 
           1545     2.08533e+10 
           1555     2.04737e+10 
           1565     2.03591e+10 
           1575     2.00816e+10 
           1585     1.97435e+10 
           1595     1.93931e+10 
           1605     1.88743e+10 
           1615       1.852e+10 
           1625     1.82029e+10 
           1635     1.78047e+10 
           1645     1.69944e+10 
           1655     1.73605e+10 
           1665     1.70398e+10 
           1672     1.68165e+10 
           1677      1.6778e+10 
           1685     1.65209e+10 
           1695     1.62177e+10 
           1705     1.59114e+10 
           1715     1.55573e+10 
           1725       1.528e+10 
           1735     1.51331e+10 
           1745     1.48587e+10 
           1755      1.4603e+10 
           1765     1.43304e+10 
           1775     1.41036e+10 
           1785      1.3881e+10 
           1795     1.36601e+10 
           1805     1.34479e+10 
           1815     1.32064e+10 
           1825     1.29874e+10 
           1835     1.27813e+10 
           1845     1.25059e+10 
           1855     1.22105e+10 
           1865     1.20561e+10 
           1875     1.19396e+10 
           1885     1.16797e+10 
           1895     1.14067e+10 
           1905     1.13496e+10 
           1915     1.10659e+10 
           1925     1.08811e+10 
           1935      1.0772e+10 
           1945     1.06545e+10 
           1955     1.03881e+10 
           1967     1.02861e+10 
           1976     1.01723e+10 
           1984     1.00005e+10 
           1995      9.76651e+9 
           2005      9.70962e+9 
           2015      9.57638e+9 
           2025      9.43885e+9 
           2035      9.27626e+9 
           2045      9.13442e+9 
           2055      8.44866e+9 
           2065      8.25298e+9 
           2074      8.26436e+9 
           2078      8.19785e+9 
           2085       8.3215e+9 
           2095      8.38989e+9 
           2105      8.34675e+9 
           2115      8.23971e+9 
           2125      8.12497e+9 
           2135      8.00358e+9 
           2145      7.88385e+9 
           2155      7.78813e+9 
           2165      7.64836e+9 
           2175      7.56887e+9 
           2185      7.42834e+9 
           2195      7.35432e+9 
           2205      7.24871e+9 
           2215      7.11246e+9 
           2225      7.04212e+9 
           2235      6.94124e+9 
           2245      6.84441e+9 
           2255      6.71694e+9 
           2265      6.65284e+9 
           2275      6.55983e+9 
           2285      6.46697e+9 
           2295       6.3096e+9 
           2305      6.26156e+9 
           2315      6.20182e+9 
           2325      6.11695e+9 
           2335      6.03205e+9 
           2345      5.95105e+9 
           2355      5.87012e+9 
           2365      5.79061e+9 
           2375      5.71183e+9 
           2385      5.61045e+9 
           2395      5.55792e+9 
           2405      5.48502e+9 
           2415       5.4114e+9 
           2425      5.34002e+9 
           2435      5.26829e+9 
           2445      5.19939e+9 
           2455      5.13117e+9 
           2465      5.06427e+9 
           2475      4.99772e+9 
           2485      4.93287e+9 
           2495       4.7475e+9 
           2505      4.80465e+9 
           2513      4.70717e+9 
           2518      4.72017e+9 
           2525      4.68292e+9 
           2535      4.62336e+9 
           2545       4.5579e+9 
           2555      4.50458e+9 
           2565      4.44897e+9 
           2575      4.39317e+9 
           2585      4.33811e+9 
           2595      4.28376e+9 
           2605       4.2506e+9 
           2615      4.19738e+9 
           2625      4.14452e+9 
           2635      4.08838e+9 
           2645      4.03717e+9 
           2655      3.98314e+9 
           2665      3.92949e+9 
           2675      3.87847e+9 
           2685      3.84854e+9 
           2695      3.78056e+9 
           2705      3.75544e+9 
           2715      3.71004e+9 
           2725      3.64263e+9 
           2735      3.60889e+9 
           2745      3.57794e+9 
           2755      3.53524e+9 
           2765      3.46896e+9 
           2775      3.45198e+9 
           2785      3.41096e+9 
           2795      3.36316e+9 
           2805      3.32951e+9 
           2815      3.29234e+9 
           2825       3.2265e+9 
           2835      3.20438e+9 
           2845      3.17873e+9 
           2855      3.14167e+9 
           2865      3.10545e+9 
           2875       3.0698e+9 
           2885      3.03476e+9 
           2895      2.99998e+9 
           2910      2.94871e+9 
           2930      2.88231e+9 
           2950      2.80102e+9 
           2970      2.75497e+9 
           2990      2.69388e+9 
           3010      2.63442e+9 
           3030      2.57686e+9 
           3050      2.52086e+9 
           3070      2.46645e+9 
           3090      2.41171e+9 
           3110      2.36162e+9 
           3130      2.31293e+9 
           3150      2.26398e+9 
           3170      2.21612e+9 
           3190      2.15359e+9 
           3210      2.12095e+9 
           3230      2.07952e+9 
           3250      2.03646e+9 
           3270      1.99662e+9 
           3290      1.95359e+9 
           3310      1.91647e+9 
           3330      1.87775e+9 
           3350      1.83717e+9 
           3370      1.80342e+9 
           3390      1.76775e+9 
           3410      1.73288e+9 
           3430      1.69233e+9 
           3450      1.65397e+9 
           3470      1.62614e+9 
           3490      1.59444e+9 
           3510      1.56785e+9 
           3530      1.53997e+9 
           3550      1.51077e+9 
           3570      1.48922e+9 
           3590       1.4528e+9 
           3610      1.42871e+9 
           3630      1.39877e+9 
           3640      1.39448e+9 
           3650      1.37565e+9 
           3670      1.35522e+9 
           3690      1.32588e+9 
           3710      1.28217e+9 
           3730       1.2338e+9 
           3750      1.27176e+9 
           3770      1.26164e+9 
           3790      1.30262e+9 
           3810      1.34325e+9 
           3830      1.19525e+9 
           3850      1.35305e+9 
           3870      1.34836e+9 
           3890      1.13312e+9 
           3910       1.3163e+9 
           3930       1.2924e+9 
           3950      1.27092e+9 
           3970      1.04967e+9 
           3990      1.22169e+9 
           4010       1.2048e+9 
           4030      1.14887e+9 
           4050      1.17301e+9 
           4070      1.14832e+9 
           4090      1.08223e+9 
           4110      9.64031e+8 
           4130      1.07973e+9 
           4150      1.06574e+9 
           4170       1.0538e+9 
           4190      1.03733e+9 
           4210      1.01919e+9 
           4230      1.00269e+9 
           4250       9.8543e+8 
           4270      9.68452e+8 
           4290      9.52319e+8 
           4310      9.33524e+8 
           4330      8.68759e+8 
           4350      7.99867e+8 
           4370       8.8672e+8 
           4390      8.58388e+8 
           4410       8.6139e+8 
           4430      8.45222e+8 
           4450      8.34122e+8 
           4470      7.94245e+8 
           4490      8.07255e+8 
           4510      7.94517e+8 
           4530      7.81826e+8 
           4550      7.68472e+8 
           4570      7.56998e+8 
           4590      7.44997e+8 
           4610      7.33442e+8 
           4630      7.21988e+8 
           4650      7.09466e+8 
           4670      6.99481e+8 
           4690       6.8582e+8 
           4710      6.71008e+8 
           4730      6.67838e+8 
           4750      6.57567e+8 
           4770      6.47627e+8 
           4790      6.37781e+8 
           4810      6.28059e+8 
           4830       6.1649e+8 
           4850      5.81546e+8 
           4870      5.26569e+8 
           4890      5.88046e+8 
           4910      5.81969e+8 
           4930      5.63151e+8 
           4950      5.65344e+8 
           4970      5.57158e+8 
           4990      5.49009e+8 
           5010      5.35569e+8 
           5030      5.33135e+8 
           5050      5.22967e+8 
           5070      5.17853e+8 
           5090      5.10403e+8 
           5110      5.03097e+8 
           5130      4.95918e+8 
           5150      4.88864e+8 
           5170      4.81932e+8 
           5190      4.75134e+8 
           5210      4.68453e+8 
           5230      4.61889e+8 
           5250      4.55438e+8 
           5270      4.49098e+8 
           5290      4.42882e+8 
           5310      4.36759e+8 
           5330      4.30743e+8 
           5350       4.2483e+8 
           5370      4.19019e+8 
           5390      4.13296e+8 
           5410      4.07376e+8 
           5430       4.0217e+8 
           5450       3.9675e+8 
           5470      3.91412e+8 
           5490      3.86165e+8 
           5510      3.81009e+8 
           5530      3.75942e+8 
           5550      3.70951e+8 
           5570      3.66045e+8 
           5590      3.61224e+8 
           5610      3.56487e+8 
           5630      3.51819e+8 
           5650       3.4722e+8 
           5670      3.42701e+8 
           5690      3.38225e+8 
           5710      3.33895e+8 
           5730      3.29595e+8 
           5750      3.25335e+8 
           5770      3.21205e+8 
           5790      3.17113e+8 
           5810      3.13081e+8 
           5830      3.09108e+8 
           5850      3.05203e+8 
           5870      2.93659e+8 
           5890      2.97315e+8 
           5910       2.9385e+8 
           5930      2.90189e+8 
           5950      2.86571e+8 
           5970      2.83026e+8 
           5990      2.79522e+8 
           6010       2.7608e+8 
           6030      2.72687e+8 
           6050      2.69353e+8 
           6070      2.66058e+8 
           6090       2.6282e+8 
           6110      2.59629e+8 
           6130      2.56494e+8 
           6150      2.53394e+8 
           6170      2.50349e+8 
           6190      2.47347e+8 
           6210      2.44399e+8 
           6230      2.41483e+8 
           6250      2.38619e+8 
           6270      2.35786e+8 
           6290      2.33003e+8 
           6310      2.30261e+8 
           6330      2.27558e+8 
           6350      2.24893e+8 
           6370      2.22267e+8 
           6390      2.19678e+8 
           6410      2.17127e+8 
           6430      2.14621e+8 
           6450      2.12142e+8 
           6470      2.09699e+8 
           6490       2.0729e+8 
           6510      2.04925e+8 
           6530      2.02108e+8 
           6550      1.95405e+8 
           6570      1.76177e+8 
           6590      1.94662e+8 
           6610      1.93529e+8 
           6630      1.91386e+8 
           6650      1.89342e+8 
           6670      1.85643e+8 
           6690      1.83592e+8 
           6710      1.83076e+8 
           6730      1.81041e+8 
           6750      1.79044e+8 
           6770      1.77075e+8 
           6790      1.75127e+8 
           6810      1.73206e+8 
           6830      1.71313e+8 
           6850      1.69447e+8 
           6870        1.676e+8 
           6890      1.65779e+8 
           6910      1.63984e+8 
           6930      1.62216e+8 
           6950       1.6048e+8 
           6970      1.58754e+8 
           6990      1.57053e+8 
           7010      1.55383e+8 
           7030      1.53723e+8 
           7050      1.52094e+8 
           7070       1.4828e+8 
           7090      1.48891e+8 
           7110      1.47325e+8 
           7130       1.4578e+8 
           7150      1.44251e+8 
           7170      1.42715e+8 
           7190      1.41259e+8 
           7210      1.39788e+8 
           7230      1.38316e+8 
           7250      1.36902e+8 
           7270      1.35494e+8 
           7290      1.33086e+8 
           7310      1.32711e+8 
           7330      1.31371e+8 
           7350      1.30029e+8 
           7370        1.287e+8 
           7390      1.27397e+8 
           7410      1.26107e+8 
           7430      1.24828e+8 
           7450      1.23589e+8 
           7470      1.22341e+8 
           7490      1.21117e+8 
           7510      1.19865e+8 
           7530      1.18704e+8 
           7550      1.17528e+8 
           7570      1.16355e+8 
           7590      1.15207e+8 
           7610      1.14069e+8 
           7630      1.12941e+8 
           7650       1.1183e+8 
           7670      1.10735e+8 
           7690       1.0965e+8 
           7710      1.08581e+8 
           7730      1.07522e+8 
           7750      1.06478e+8 
           7770       1.0545e+8 
           7790      1.04432e+8 
           7810      1.03366e+8 
           7830      1.02427e+8 
           7850      1.01533e+8 
           7870      1.00561e+8 
           7890      9.95561e+7 
           7910      9.86559e+7 
           7930      9.77156e+7 
           7950      9.67894e+7 
           7970      9.57408e+7 
           7990       9.4849e+7 
           8010      9.39121e+7 
           8030      9.30242e+7 
           8050      9.21963e+7 
           8070      9.13639e+7 
           8090      9.03659e+7 
           8110      8.96057e+7 
           8130      8.88576e+7 
           8150      8.79116e+7 
           8170      8.72446e+7 
           8190      8.63304e+7 
           8210      8.54017e+7 
           8230      8.48258e+7 
           8250      8.40885e+7 
           8270      8.29442e+7 
           8290      8.24896e+7 
           8310      8.17657e+7 
           8330      8.09935e+7 
           8350      7.99035e+7 
           8370      7.94146e+7 
           8390      7.87902e+7 
           8410       7.8075e+7 
           8430      7.72968e+7 
           8450      7.61505e+7 
           8470      7.58123e+7 
           8490      7.51001e+7 
           8510      7.42586e+7 
           8530      7.38383e+7 
           8550      7.22564e+7 
           8570      7.32788e+7 
