# Kurucz ODFNEW /NOVER (2003)
# teff = 24000 K (value for the effective temperature for the model. Temperatures are given in K)
# logg = 3 log(cm/s2) (value for Log(G) for the model.)
# meta = 0.2  (value for the Metallicity for the model.)
# lh = 1.25  (l/Hp where l is the  mixing length of the convective element and Hp is the pressure scale height)
# vtur = 2 km/s (Microturbulence velocity)
# alpha = 0  (Alpha)
#
# column 1: WAVELENGTH (ANGSTROM), Wavelength in Angstrom
# column 2: FLUX (ERG/CM2/S/A), Flux in erg/cm2/s/A
          147.2     2.45012e-15 
            151     1.10773e-14 
          155.2     5.42438e-14 
          158.8      1.9917e-13 
            162     6.06451e-13 
            166     2.30828e-12 
          170.3      9.0758e-12 
          173.4     2.35052e-11 
          176.8     6.42887e-11 
          180.2     1.69744e-10 
          181.7     2.57635e-10 
          186.1      8.4648e-10 
            191      2.99837e-9 
          193.9      6.15898e-9 
          198.4      1.80906e-8 
          201.8      3.96089e-8 
            205      8.09477e-8 
          210.5      2.63556e-7 
          216.2      8.42157e-7 
          219.8      1.70164e-6 
            223      3.12109e-6 
          226.8      6.31256e-6 
            230     0.000433915 
            234       0.0010173 
            240      0.00242565 
          246.5      0.00607457 
          252.4       0.0134918 
          256.8       0.0226262 
            260       0.0386538 
            264       0.0629126 
          268.5        0.108067 
          273.5        0.190379 
          278.5        0.325996 
            284        0.647889 
            290         1.17333 
            296         2.08182 
            301         3.24711 
            308         6.38419 
            318         15.9984 
            328         34.0094 
            338         74.3177 
            348         149.803 
            357         1017.07 
            366         2438.38 
            375         3632.68 
            385         6271.66 
            395         14910.1 
            405         22368.3 
            414         34548.3 
            422         49258.5 
            430         72208.2 
            441          108731 
            451          142197 
            460          185783 
            470          267906 
            480          367360 
            490          496762 
            500          642354 
            506      3.26517e+6 
            512      3.46099e+7 
            520      3.64302e+7 
            530      3.80324e+7 
            540      3.87943e+7 
            550      6.44338e+7 
            560      8.00814e+7 
            570      9.16186e+7 
            580      8.26755e+7 
            590      1.09177e+8 
            600      1.12004e+8 
            610      1.40841e+8 
            620      1.61639e+8 
            630      1.69058e+8 
            640      1.51685e+8 
            650      1.09595e+8 
            658      1.67315e+8 
            665      2.05971e+8 
            675      2.13069e+8 
            685      1.90201e+8 
            695      2.86986e+8 
            705      2.60021e+8 
            716       3.2236e+8 
            726      3.15506e+8 
            735      3.35129e+8 
            745      3.81559e+8 
            755      3.99673e+8 
            765      4.23191e+8 
            775      4.58624e+8 
            785      4.91287e+8 
            795      5.02216e+8 
            805      5.08054e+8 
            815      5.11469e+8 
            825      5.70608e+8 
            835      4.24702e+8 
            845      5.62647e+8 
            855      5.60643e+8 
            865      5.98961e+8 
            875      6.39081e+8 
            885      6.92396e+8 
            895      7.21407e+8 
            905      7.00355e+8 
            915      1.44617e+9 
            925     1.01863e+10 
            935     1.56514e+10 
            945     1.82361e+10 
            955     1.89739e+10 
            965     1.76741e+10 
            975      3.63206e+9 
            985     1.08488e+10 
            995     1.40033e+10 
           1005     1.79226e+10 
           1015     1.89227e+10 
           1025     1.62865e+10 
           1035     1.55886e+10 
           1045     2.24966e+10 
           1055     2.05511e+10 
           1065     1.66539e+10 
           1075     1.91666e+10 
           1085     1.73579e+10 
           1095     1.95405e+10 
           1105     1.78775e+10 
           1115     1.71449e+10 
           1125      1.2637e+10 
           1135     1.80965e+10 
           1145     1.70968e+10 
           1155     1.71313e+10 
           1165     1.65972e+10 
           1175      8.24473e+9 
           1185     1.53361e+10 
           1195     1.50206e+10 
           1205     1.02652e+10 
           1215     1.21056e+10 
           1225     1.48116e+10 
           1235     1.62372e+10 
           1245      1.5277e+10 
           1255     1.54449e+10 
           1265     1.58757e+10 
           1275     1.65368e+10 
           1285     1.64173e+10 
           1295     1.18817e+10 
           1305     1.32822e+10 
           1315     1.62515e+10 
           1325     1.52606e+10 
           1335     1.47077e+10 
           1345     1.50296e+10 
           1355     1.47624e+10 
           1365     1.37756e+10 
           1375     1.32184e+10 
           1385     1.23994e+10 
           1395      7.31709e+9 
           1405      8.64845e+9 
           1415     1.13236e+10 
           1425     1.10786e+10 
           1435     1.17351e+10 
           1442     1.19646e+10 
           1447     1.17749e+10 
           1455     1.12957e+10 
           1465     1.03872e+10 
           1475     1.08567e+10 
           1485     1.08056e+10 
           1495     1.05363e+10 
           1505      9.63951e+9 
           1512      8.61051e+9 
           1517      8.94984e+9 
           1525      9.12056e+9 
           1535      7.53467e+9 
           1545      7.00201e+9 
           1555      6.87984e+9 
           1565      7.78846e+9 
           1575      8.46349e+9 
           1585      8.56293e+9 
           1595       8.4168e+9 
           1605      8.44635e+9 
           1615      8.19879e+9 
           1625      8.16353e+9 
           1635      8.72479e+9 
           1645      8.82076e+9 
           1655      8.68175e+9 
           1665      8.78638e+9 
           1672      8.21004e+9 
           1677      9.46991e+9 
           1685      8.97232e+9 
           1695      8.40258e+9 
           1705      8.34098e+9 
           1715      7.74459e+9 
           1725      7.69797e+9 
           1735      8.02624e+9 
           1745       7.8677e+9 
           1755      7.90049e+9 
           1765       7.9544e+9 
           1775      7.32803e+9 
           1785      7.55025e+9 
           1795      7.70337e+9 
           1805      7.81228e+9 
           1815      6.90669e+9 
           1825      7.22393e+9 
           1835       7.0775e+9 
           1845      6.41841e+9 
           1855      6.61051e+9 
           1865      6.69643e+9 
           1875      6.93423e+9 
           1885      6.15208e+9 
           1895      5.72371e+9 
           1905       6.2912e+9 
           1915      5.89355e+9 
           1925      5.53775e+9 
           1935      5.99833e+9 
           1945       6.1312e+9 
           1955       5.4243e+9 
           1967      6.00913e+9 
           1976      6.26876e+9 
           1984      5.84878e+9 
           1995      5.73628e+9 
           2005        6.037e+9 
           2015      5.98447e+9 
           2025      6.14609e+9 
           2035      5.54302e+9 
           2045      5.68442e+9 
           2055      5.29265e+9 
           2065      5.24469e+9 
           2074      5.71259e+9 
           2078      5.07022e+9 
           2085      5.52872e+9 
           2095      5.19624e+9 
           2105      5.40265e+9 
           2115      5.47237e+9 
           2125      5.50316e+9 
           2135      5.44479e+9 
           2145      5.10142e+9 
           2155      5.36918e+9 
           2165       5.3598e+9 
           2175      5.30322e+9 
           2185      5.10604e+9 
           2195       5.2114e+9 
           2205      5.22111e+9 
           2215      5.13261e+9 
           2225      4.99632e+9 
           2235       4.8944e+9 
           2245      4.95539e+9 
           2255      4.81011e+9 
           2265      4.86099e+9 
           2275      4.79943e+9 
           2285      4.78803e+9 
           2295       4.1224e+9 
           2305      4.60398e+9 
           2315      4.48303e+9 
           2325      4.44231e+9 
           2335      4.32696e+9 
           2345      4.38755e+9 
           2355      4.34263e+9 
           2365      4.31366e+9 
           2375      4.21182e+9 
           2385      4.17419e+9 
           2395      4.11938e+9 
           2405      4.06839e+9 
           2415      4.02889e+9 
           2425      4.01334e+9 
           2435      3.90636e+9 
           2445      3.91878e+9 
           2455      3.91586e+9 
           2465      3.84156e+9 
           2475      3.76586e+9 
           2485       3.6172e+9 
           2495      2.62778e+9 
           2505      3.42345e+9 
           2513      3.41475e+9 
           2518      3.54529e+9 
           2525      3.54587e+9 
           2535      3.52774e+9 
           2545       3.3859e+9 
           2555       3.4302e+9 
           2565      3.38873e+9 
           2575      3.39064e+9 
           2585      3.33379e+9 
           2595      3.30742e+9 
           2605      3.28579e+9 
           2615      3.22154e+9 
           2625       3.2071e+9 
           2635      3.18411e+9 
           2645       3.1352e+9 
           2655      3.12226e+9 
           2665      2.99008e+9 
           2675       2.9983e+9 
           2685      3.00198e+9 
           2695      2.89354e+9 
           2705       2.8258e+9 
           2715      2.83808e+9 
           2725      2.84591e+9 
           2735      2.81345e+9 
           2745      2.76914e+9 
           2755      2.75577e+9 
           2765      2.72198e+9 
           2775      2.73415e+9 
           2785      2.68541e+9 
           2795      2.59167e+9 
           2805      2.61804e+9 
           2815      2.61749e+9 
           2825       2.5922e+9 
           2835      2.49829e+9 
           2845      2.52274e+9 
           2855      2.46974e+9 
           2865      2.47116e+9 
           2875      2.44557e+9 
           2885      2.42281e+9 
           2895      2.38016e+9 
           2910      2.32926e+9 
           2930      2.31008e+9 
           2950      2.24094e+9 
           2970      2.20612e+9 
           2990      2.15736e+9 
           3010      2.06841e+9 
           3030      2.06491e+9 
           3050      2.03894e+9 
           3070      2.01062e+9 
           3090      1.92356e+9 
           3110      1.92527e+9 
           3130      1.87451e+9 
           3150      1.84809e+9 
           3170      1.79958e+9 
           3190      1.76964e+9 
           3210      1.74086e+9 
           3230      1.69607e+9 
           3250      1.67694e+9 
           3270      1.63384e+9 
           3290      1.60408e+9 
           3310      1.57482e+9 
           3330      1.53927e+9 
           3350       1.5139e+9 
           3370      1.48295e+9 
           3390      1.46396e+9 
           3410      1.43793e+9 
           3430      1.40923e+9 
           3450      1.37879e+9 
           3470      1.35409e+9 
           3490       1.3273e+9 
           3510      1.30545e+9 
           3530      1.29001e+9 
           3550      1.26478e+9 
           3570      1.24362e+9 
           3590      1.20951e+9 
           3610      1.18739e+9 
           3630      1.17231e+9 
           3640      1.16849e+9 
           3650      1.13871e+9 
           3670      1.12499e+9 
           3690       1.0928e+9 
           3710      1.07027e+9 
           3730      1.05709e+9 
           3750      1.10992e+9 
           3770      1.09227e+9 
           3790      1.09808e+9 
           3810      1.11881e+9 
           3830      1.02939e+9 
           3850      1.09813e+9 
           3870      1.06248e+9 
           3890      9.87651e+8 
           3910      1.05372e+9 
           3930      1.01626e+9 
           3950      1.00723e+9 
           3970       9.1421e+8 
           3990      9.79869e+8 
           4010      9.65527e+8 
           4030      9.35833e+8 
           4050      9.32171e+8 
           4070      8.94877e+8 
           4090      8.66441e+8 
           4110      8.15209e+8 
           4130      8.56895e+8 
           4150      8.49465e+8 
           4170      8.43286e+8 
           4190      8.32379e+8 
           4210      8.23831e+8 
           4230       8.0711e+8 
           4250      7.86559e+8 
           4270      7.67616e+8 
           4290      7.56791e+8 
           4310      7.36703e+8 
           4330      7.12834e+8 
           4350      6.70737e+8 
           4370      7.03829e+8 
           4390      7.02845e+8 
           4410      6.91351e+8 
           4430      6.85661e+8 
           4450      6.73709e+8 
           4470      6.57361e+8 
           4490      6.55966e+8 
           4510       6.4716e+8 
           4530      6.38521e+8 
           4550      6.29244e+8 
           4570      6.19347e+8 
           4590      6.09044e+8 
           4610      5.95936e+8 
           4630      5.87723e+8 
           4650      5.65011e+8 
           4670      5.70149e+8 
           4690       5.6576e+8 
           4710      5.47923e+8 
           4730      5.48704e+8 
           4750      5.39552e+8 
           4770      5.38911e+8 
           4790       5.3002e+8 
           4810      5.20215e+8 
           4830      5.12056e+8 
           4850      5.00106e+8 
           4870      4.62872e+8 
           4890      4.92005e+8 
           4910      4.85083e+8 
           4930      4.72909e+8 
           4950      4.68788e+8 
           4970      4.66578e+8 
           4990       4.5926e+8 
           5010      4.42198e+8 
           5030      4.45523e+8 
           5050      4.37303e+8 
           5070      4.34197e+8 
           5090      4.27505e+8 
           5110      4.21078e+8 
           5130      4.12519e+8 
           5150      4.08184e+8 
           5170        4.043e+8 
           5190      3.99441e+8 
           5210      3.93855e+8 
           5230      3.88369e+8 
           5250      3.83174e+8 
           5270      3.77192e+8 
           5290      3.73201e+8 
           5310      3.67843e+8 
           5330      3.63602e+8 
           5350      3.58612e+8 
           5370       3.5413e+8 
           5390      3.48913e+8 
           5410      3.44819e+8 
           5430      3.40354e+8 
           5450       3.3573e+8 
           5470      3.31378e+8 
           5490      3.27006e+8 
           5510      3.23458e+8 
           5530       3.1856e+8 
           5550        3.154e+8 
           5570      3.10977e+8 
           5590      3.07249e+8 
           5610      3.03374e+8 
           5630      2.99737e+8 
           5650      2.95093e+8 
           5670      2.89969e+8 
           5690      2.84734e+8 
           5710      2.83159e+8 
           5730      2.79992e+8 
           5750      2.75518e+8 
           5770      2.73759e+8 
           5790      2.70162e+8 
           5810      2.67011e+8 
           5830      2.63054e+8 
           5850      2.60532e+8 
           5870       2.5256e+8 
           5890      2.52499e+8 
           5910       2.5048e+8 
           5930      2.46918e+8 
           5950      2.43963e+8 
           5970      2.42754e+8 
           5990      2.38479e+8 
           6010      2.36498e+8 
           6030      2.33088e+8 
           6050      2.30613e+8 
           6070      2.28421e+8 
           6090      2.25816e+8 
           6110      2.23098e+8 
           6130      2.20653e+8 
           6150      2.17098e+8 
           6170      2.14792e+8 
           6190      2.12777e+8 
           6210      2.10569e+8 
           6230      2.08229e+8 
           6250      2.05404e+8 
           6270      2.03233e+8 
           6290      2.01067e+8 
           6310      1.98573e+8 
           6330      1.96578e+8 
           6350      1.93968e+8 
           6370      1.92149e+8 
           6390      1.89859e+8 
           6410      1.87768e+8 
           6430      1.85782e+8 
           6450      1.83626e+8 
           6470      1.80981e+8 
           6490      1.78982e+8 
           6510      1.77413e+8 
           6530      1.75214e+8 
           6550      1.72205e+8 
           6570       1.5743e+8 
           6590      1.68447e+8 
           6610      1.67636e+8 
           6630      1.66061e+8 
           6650      1.64075e+8 
           6670      1.61424e+8 
           6690      1.59745e+8 
           6710      1.59003e+8 
           6730      1.56779e+8 
           6750      1.55653e+8 
           6770      1.54028e+8 
           6790      1.51267e+8 
           6810      1.50542e+8 
           6830      1.48886e+8 
           6850      1.47512e+8 
           6870      1.45912e+8 
           6890      1.44154e+8 
           6910      1.42429e+8 
           6930      1.41396e+8 
           6950      1.39936e+8 
           6970      1.38483e+8 
           6990       1.3699e+8 
           7010      1.35558e+8 
           7030      1.34079e+8 
           7050      1.32751e+8 
           7070      1.29619e+8 
           7090      1.30073e+8 
           7110      1.27688e+8 
           7130      1.26535e+8 
           7150      1.26101e+8 
           7170      1.24805e+8 
           7190      1.23572e+8 
           7210      1.22315e+8 
           7230      1.19405e+8 
           7250      1.19528e+8 
           7270      1.18615e+8 
           7290      1.16647e+8 
           7310      1.16221e+8 
           7330      1.15019e+8 
           7350      1.13941e+8 
           7370      1.12824e+8 
           7390      1.11704e+8 
           7410      1.10601e+8 
           7430      1.09488e+8 
           7450      1.08412e+8 
           7470      1.06799e+8 
           7490      1.06203e+8 
           7510      1.05204e+8 
           7530      1.04121e+8 
           7550      1.03226e+8 
           7570      1.02221e+8 
           7590      1.01186e+8 
           7610      1.00069e+8 
           7630      9.92413e+7 
           7650      9.82918e+7 
           7670      9.73764e+7 
           7690      9.64183e+7 
           7710      9.54624e+7 
           7730      9.45214e+7 
           7750       9.3708e+7 
           7770      9.26272e+7 
           7790      9.19597e+7 
           7810      9.10385e+7 
           7830      9.02299e+7 
           7850        8.941e+7 
           7870      8.84148e+7 
           7890      8.74406e+7 
           7910      8.67943e+7 
           7930      8.59197e+7 
           7950       8.5178e+7 
           7970      8.43715e+7 
           7990      8.36192e+7 
           8010      8.27911e+7 
           8030       8.2052e+7 
           8050      8.13716e+7 
           8070      8.06506e+7 
           8090      7.98321e+7 
           8110      7.86828e+7 
           8130      7.84899e+7 
           8150      7.76741e+7 
           8170       7.7108e+7 
           8190      7.60523e+7 
           8210      7.52239e+7 
           8230      7.44082e+7 
           8250       7.4142e+7 
           8270      7.27868e+7 
           8290      7.27047e+7 
           8310      7.21205e+7 
           8330      7.14869e+7 
           8350      7.05937e+7 
           8370      6.99825e+7 
           8390      6.94994e+7 
           8410      6.87911e+7 
           8430      6.82212e+7 
           8450      6.72971e+7 
           8470      6.66489e+7 
           8490      6.66959e+7 
           8510      6.51082e+7 
           8530      6.57974e+7 
           8550      6.33255e+7 
           8570      6.52923e+7 
           8590      6.28239e+7 
