# Kurucz ODFNEW /NOVER (2003)
# teff = 7000 K (value for the effective temperature for the model. Temperatures are given in K)
# logg = 3 log(cm/s2) (value for Log(G) for the model.)
# meta = -2.5  (value for the Metallicity for the model.)
# lh = 1.25  (l/Hp where l is the  mixing length of the convective element and Hp is the pressure scale height)
# vtur = 2 km/s (Microturbulence velocity)
# alpha = 0  (Alpha)
#
# column 1: WAVELENGTH (ANGSTROM), Wavelength in Angstrom
# column 2: FLUX (ERG/CM2/S/A), Flux in erg/cm2/s/A
            348     4.39213e-23 
            357     3.60593e-22 
            366      2.4962e-21 
            375     1.56101e-20 
            385     1.07807e-19 
            395     6.72885e-19 
            405      3.8246e-18 
            414     1.83953e-19 
            422     6.11854e-19 
            430     1.94051e-18 
            441     8.82117e-18 
            451     3.26108e-17 
            460     1.00442e-16 
            470     3.32184e-16 
            480     1.04081e-15 
            490     3.10327e-15 
            500     8.81924e-15 
            506      2.1447e-14 
            512     4.35918e-14 
            520     9.32893e-14 
            530     2.34862e-13 
            540     5.60443e-13 
            550      1.3084e-12 
            560     2.93743e-12 
            570      6.3928e-12 
            580     1.33558e-11 
            590     2.77585e-11 
            600     5.55488e-11 
            610     1.08402e-10 
            620     2.06554e-10 
            630     3.84722e-10 
            640     7.01659e-10 
            650      1.25368e-9 
            658      1.96646e-9 
            665       2.8869e-9 
            675      4.91954e-9 
            685      8.23831e-9 
            695      1.35678e-8 
            705      2.19909e-8 
            716      3.67561e-8 
            726      5.77428e-8 
            735      8.57051e-8 
            745      1.31252e-7 
            755      1.98442e-7 
            765      2.96362e-7 
            775      4.37398e-7 
            785       6.3825e-7 
            795      9.21162e-7 
            805      1.31589e-6 
            815      1.86072e-6 
            825      2.60612e-6 
            835      3.61689e-6 
            845      4.97471e-6 
            855      6.78347e-6 
            865      9.17272e-6 
            875      1.23038e-5 
            885      1.63785e-5 
            895      2.16408e-5 
            905      2.83854e-5 
            915         0.11194 
            925        0.839075 
            935         1.41819 
            945         2.41189 
            955         3.50254 
            965         4.22798 
            975          3.2339 
            985         7.80387 
            995         9.45339 
           1005         11.1733 
           1015         9.75845 
           1025         8.95437 
           1035         15.9217 
           1045         26.6237 
           1055         33.4402 
           1065         41.5782 
           1075         51.0445 
           1085         62.2525 
           1095         72.1646 
           1105         102.755 
           1115         136.756 
           1125         150.269 
           1135         176.374 
           1145         187.439 
           1155         172.168 
           1165         161.559 
           1175         137.209 
           1185         308.686 
           1195         134.288 
           1205         80.4869 
           1215         36.0518 
           1225         94.8636 
           1235         225.229 
           1245         139.081 
           1255         207.803 
           1265         331.405 
           1275         489.073 
           1285         822.281 
           1295         1401.85 
           1305         1540.92 
           1315         1915.95 
           1325         2284.89 
           1335         2732.74 
           1345         3289.93 
           1355         3822.44 
           1365         4535.78 
           1375         5258.12 
           1385         6023.82 
           1395          6951.4 
           1405         7915.42 
           1415         9302.59 
           1425         10395.5 
           1435           11660 
           1442         13462.6 
           1447         13567.8 
           1455         15175.6 
           1465         16238.6 
           1475         18275.2 
           1485         20406.2 
           1495         23119.3 
           1505         25866.8 
           1512         27735.5 
           1517         27366.3 
           1525         29244.2 
           1535           31405 
           1545         32882.6 
           1555         34520.7 
           1565         34516.3 
           1575         38158.5 
           1585         40962.7 
           1595         44254.9 
           1605         46855.3 
           1615         53209.9 
           1625           64016 
           1635          103019 
           1645          282447 
           1655          469085 
           1665       1.2725e+6 
           1672      1.42305e+6 
           1677      2.00278e+6 
           1685      2.61116e+6 
           1695      3.09904e+6 
           1705       3.5835e+6 
           1715      4.19878e+6 
           1725      4.43245e+6 
           1735      4.94542e+6 
           1745      5.00372e+6 
           1755      5.45373e+6 
           1765      5.01891e+6 
           1775      5.58274e+6 
           1785      5.75223e+6 
           1795       6.2361e+6 
           1805      6.08255e+6 
           1815      6.22693e+6 
           1825       6.0486e+6 
           1835      6.39592e+6 
           1845      6.04312e+6 
           1855      6.40063e+6 
           1865      6.68245e+6 
           1875      6.78668e+6 
           1885      6.92341e+6 
           1895       7.1235e+6 
           1905      6.95403e+6 
           1915      7.34202e+6 
           1925      7.62288e+6 
           1935      7.35293e+6 
           1945      7.90718e+6 
           1955      7.94813e+6 
           1967      8.26361e+6 
           1976       8.0597e+6 
           1984      8.11236e+6 
           1995       8.1922e+6 
           2005      8.03103e+6 
           2015      8.14321e+6 
           2025      7.85131e+6 
           2035      8.50911e+6 
           2045      8.75274e+6 
           2055      8.59336e+6 
           2065      8.60345e+6 
           2074      9.13387e+6 
           2078      9.12927e+6 
           2085      9.11227e+6 
           2095      8.97828e+6 
           2105      8.96035e+6 
           2115      9.14868e+6 
           2125      9.26301e+6 
           2135      8.66484e+6 
           2145      9.27858e+6 
           2155      9.24134e+6 
           2165      9.00346e+6 
           2175      9.07376e+6 
           2185      9.32547e+6 
           2195      9.79194e+6 
           2205      9.58013e+6 
           2215      9.15596e+6 
           2225      9.43074e+6 
           2235      1.01211e+7 
           2245      9.66486e+6 
           2255      9.36374e+6 
           2265      9.17402e+6 
           2275      9.77922e+6 
           2285      9.92399e+6 
           2295      9.56303e+6 
           2305      9.81421e+6 
           2315      9.86597e+6 
           2325      9.88722e+6 
           2335      9.88148e+6 
           2345      9.15478e+6 
           2355      1.01742e+7 
           2365      9.47949e+6 
           2375      9.98022e+6 
           2385       8.9675e+6 
           2395       9.8011e+6 
           2405      9.70478e+6 
           2415      9.79252e+6 
           2425      1.03397e+7 
           2435      1.01158e+7 
           2445      1.03773e+7 
           2455      1.03011e+7 
           2465       1.0196e+7 
           2475      9.95079e+6 
           2485      1.01564e+7 
           2495      1.00376e+7 
           2505      1.07435e+7 
           2513       1.0152e+7 
           2518      1.00987e+7 
           2525       9.6971e+6 
           2535      9.66237e+6 
           2545      9.74421e+6 
           2555      1.04033e+7 
           2565      1.04518e+7 
           2575      1.08912e+7 
           2585      1.09796e+7 
           2595       1.0983e+7 
           2605      1.07156e+7 
           2615      1.06101e+7 
           2625      1.09329e+7 
           2635      1.10655e+7 
           2645       1.1885e+7 
           2655      1.18796e+7 
           2665      1.13975e+7 
           2675      1.16605e+7 
           2685      1.18952e+7 
           2695      1.15467e+7 
           2705       1.1636e+7 
           2715      1.12499e+7 
           2725      1.13344e+7 
           2735      1.16531e+7 
           2745      1.07394e+7 
           2755      1.09986e+7 
           2765      1.14651e+7 
           2775      1.18435e+7 
           2785      1.17693e+7 
           2795      9.94385e+6 
           2805      1.07708e+7 
           2815      1.22923e+7 
           2825      1.22036e+7 
           2835      1.19995e+7 
           2845      1.18944e+7 
           2855      1.15218e+7 
           2865      1.18629e+7 
           2875      1.18197e+7 
           2885      1.21041e+7 
           2895      1.21586e+7 
           2910      1.25194e+7 
           2930      1.23197e+7 
           2950      1.22298e+7 
           2970      1.23368e+7 
           2990       1.2421e+7 
           3010      1.24897e+7 
           3030      1.25638e+7 
           3050      1.25996e+7 
           3070      1.25971e+7 
           3090      1.27021e+7 
           3110      1.26553e+7 
           3130      1.26852e+7 
           3150      1.28185e+7 
           3170      1.28312e+7 
           3190      1.25797e+7 
           3210      1.27328e+7 
           3230      1.25926e+7 
           3250      1.27758e+7 
           3270      1.29297e+7 
           3290      1.30222e+7 
           3310      1.30599e+7 
           3330      1.29375e+7 
           3350      1.28123e+7 
           3370       1.2875e+7 
           3390      1.28383e+7 
           3410      1.29962e+7 
           3430      1.30094e+7 
           3450      1.29527e+7 
           3470      1.29383e+7 
           3490      1.29853e+7 
           3510      1.30695e+7 
           3530      1.30899e+7 
           3550       1.3139e+7 
           3570      1.29727e+7 
           3590      1.29796e+7 
           3610      1.29952e+7 
           3630      1.30451e+7 
           3640      1.30529e+7 
           3650      1.31429e+7 
           3670      1.30683e+7 
           3690      1.27447e+7 
           3710      1.46955e+7 
           3730      1.62195e+7 
           3750      2.05402e+7 
           3770      2.14597e+7 
           3790      2.44602e+7 
           3810      2.73358e+7 
           3830       2.2824e+7 
           3850      2.91192e+7 
           3870      3.09998e+7 
           3890       2.1502e+7 
           3910       3.0906e+7 
           3930       3.0941e+7 
           3950      3.09641e+7 
           3970      2.08851e+7 
           3990      3.02399e+7 
           4010      3.17079e+7 
           4030      3.16607e+7 
           4050      3.14016e+7 
           4070       3.0507e+7 
           4090      2.69281e+7 
           4110      2.21054e+7 
           4130      2.99141e+7 
           4150       3.0344e+7 
           4170      3.02897e+7 
           4190      3.00506e+7 
           4210      2.97934e+7 
           4230      2.94892e+7 
           4250      2.93437e+7 
           4270      2.90674e+7 
           4290      2.88584e+7 
           4310      2.80355e+7 
           4330      2.40297e+7 
           4350      2.11972e+7 
           4370       2.7555e+7 
           4390        2.776e+7 
           4410      2.76831e+7 
           4430       2.7691e+7 
           4450      2.74883e+7 
           4470      2.73032e+7 
           4490       2.7124e+7 
           4510      2.69321e+7 
           4530      2.66985e+7 
           4550      2.64425e+7 
           4570      2.63649e+7 
           4590      2.61678e+7 
           4610      2.60316e+7 
           4630      2.58143e+7 
           4650      2.56554e+7 
           4670      2.54793e+7 
           4690      2.52847e+7 
           4710       2.5045e+7 
           4730      2.49347e+7 
           4750      2.47552e+7 
           4770       2.4548e+7 
           4790      2.43221e+7 
           4810      2.40568e+7 
           4830      2.35205e+7 
           4850      2.06603e+7 
           4870      1.75825e+7 
           4890      2.27688e+7 
           4910      2.31712e+7 
           4930      2.30301e+7 
           4950       2.2992e+7 
           4970      2.28942e+7 
           4990      2.27187e+7 
           5010      2.25061e+7 
           5030      2.24109e+7 
           5050      2.22411e+7 
           5070      2.20982e+7 
           5090      2.19394e+7 
           5110      2.17868e+7 
           5130      2.16258e+7 
           5150      2.14639e+7 
           5170      2.11234e+7 
           5190      2.10574e+7 
           5210      2.09918e+7 
           5230      2.08205e+7 
           5250      2.07401e+7 
           5270      2.05179e+7 
           5290      2.04451e+7 
           5310      2.02941e+7 
           5330      2.01222e+7 
           5350       2.0022e+7 
           5370       1.9864e+7 
           5390      1.97337e+7 
           5410      1.95804e+7 
           5430       1.9453e+7 
           5450      1.93181e+7 
           5470      1.91973e+7 
           5490      1.90714e+7 
           5510      1.89406e+7 
           5530      1.88027e+7 
           5550      1.86821e+7 
           5570      1.85445e+7 
           5590      1.84132e+7 
           5610      1.82894e+7 
           5630      1.81715e+7 
           5650      1.80455e+7 
           5670      1.79196e+7 
           5690      1.77996e+7 
           5710      1.76775e+7 
           5730      1.75589e+7 
           5750      1.74381e+7 
           5770      1.73197e+7 
           5790      1.72013e+7 
           5810      1.70842e+7 
           5830      1.69683e+7 
           5850      1.68514e+7 
           5870      1.67379e+7 
           5890      1.65592e+7 
           5910      1.65121e+7 
           5930      1.64009e+7 
           5950      1.62908e+7 
           5970      1.61808e+7 
           5990      1.60719e+7 
           6010       1.5963e+7 
           6030      1.58552e+7 
           6050      1.57505e+7 
           6070      1.56449e+7 
           6090      1.55402e+7 
           6110      1.54357e+7 
           6130      1.53271e+7 
           6150      1.52246e+7 
           6170      1.51221e+7 
           6190      1.50274e+7 
           6210      1.49279e+7 
           6230      1.48273e+7 
           6250      1.47239e+7 
           6270       1.4633e+7 
           6290      1.45363e+7 
           6310      1.44386e+7 
           6330      1.43438e+7 
           6350      1.42489e+7 
           6370      1.41549e+7 
           6390      1.40627e+7 
           6410      1.39669e+7 
           6430      1.38774e+7 
           6450      1.37797e+7 
           6470      1.36847e+7 
           6490      1.35612e+7 
           6510      1.34371e+7 
           6530        1.321e+7 
           6550      1.22452e+7 
           6570      1.02611e+7 
           6590      1.27667e+7 
           6610      1.29698e+7 
           6630      1.29516e+7 
           6650      1.28977e+7 
           6670      1.28332e+7 
           6690      1.27515e+7 
           6710      1.26689e+7 
           6730      1.25879e+7 
           6750       1.2506e+7 
           6770      1.24264e+7 
           6790      1.23468e+7 
           6810      1.22679e+7 
           6830      1.21889e+7 
           6850      1.21106e+7 
           6870      1.20338e+7 
           6890      1.19569e+7 
           6910      1.18807e+7 
           6930      1.18051e+7 
           6950      1.17303e+7 
           6970      1.16561e+7 
           6990      1.15825e+7 
           7010      1.15089e+7 
           7030      1.14358e+7 
           7050      1.13642e+7 
           7070      1.12925e+7 
           7090      1.12214e+7 
           7110      1.11486e+7 
           7130      1.10803e+7 
           7150       1.1011e+7 
           7170      1.09423e+7 
           7190      1.08735e+7 
           7210      1.08053e+7 
           7230      1.07384e+7 
           7250      1.06721e+7 
           7270      1.06056e+7 
           7290      1.05383e+7 
           7310      1.04729e+7 
           7330      1.04081e+7 
           7350      1.03439e+7 
           7370      1.02802e+7 
           7390      1.02157e+7 
           7410      1.01517e+7 
           7430      1.00896e+7 
           7450       1.0028e+7 
           7470      9.96562e+6 
           7490      9.90374e+6 
           7510      9.84371e+6 
           7530      9.78418e+6 
           7550      9.72448e+6 
           7570      9.66462e+6 
           7590      9.60525e+6 
           7610      9.54702e+6 
           7630      9.48863e+6 
           7650      9.43071e+6 
           7670      9.37262e+6 
           7690      9.31629e+6 
           7710      9.25915e+6 
           7730      9.20373e+6 
           7750      9.14751e+6 
           7770      9.08425e+6 
           7790      9.03829e+6 
           7810      8.98403e+6 
           7830      8.92897e+6 
           7850      8.87559e+6 
           7870      8.82202e+6 
           7890      8.76948e+6 
           7910      8.71736e+6 
           7930      8.66386e+6 
           7950      8.61198e+6 
           7970       8.5617e+6 
           7990      8.51063e+6 
           8010      8.45937e+6 
           8030      8.40969e+6 
           8050      8.35923e+6 
           8070      8.30975e+6 
           8090      8.26066e+6 
           8110      8.21195e+6 
           8130      8.16304e+6 
           8150      8.11509e+6 
           8170      8.06694e+6 
           8190      8.01636e+6 
           8210      7.97791e+6 
           8230      7.93195e+6 
           8250      7.88745e+6 
           8270      7.84549e+6 
           8290       7.8011e+6 
           8310      7.75432e+6 
           8330       7.7003e+6 
           8350      7.66021e+6 
           8370       7.5973e+6 
           8390      7.54828e+6 
           8410      7.49111e+6 
           8430      7.47151e+6 
           8450      7.42986e+6 
           8470      7.26773e+6 
           8490      7.42325e+6 
           8510      7.07784e+6 
           8530      7.39159e+6 
           8550      6.84274e+6 
           8570      7.37918e+6 
           8590      7.07324e+6 
           8610      6.89711e+6 
           8630       7.3442e+6 
           8650      7.20757e+6 
           8670      6.40053e+6 
           8690      7.22618e+6 
           8710      7.27943e+6 
           8730      7.15516e+6 
           8750       6.2486e+6 
           8770      6.97102e+6 
           8790      7.14948e+6 
           8810      7.13502e+6 
           8830      7.06118e+6 
           8850      6.74551e+6 
           8870      6.05099e+6 
           8890      6.86942e+6 
           8910      6.94207e+6 
           8930       6.9266e+6 
           8950      6.89191e+6 
           8970      6.83312e+6 
           8990      6.70346e+6 
           9010      5.89782e+6 
           9030       6.2977e+6 
           9050      6.63235e+6 
           9070      6.64618e+6 
           9090      6.61241e+6 
           9110      6.60293e+6 
           9130      6.57584e+6 
           9150      6.53047e+6 
           9170      6.48365e+6 
           9190      6.41442e+6 
           9210      6.22937e+6 
           9230      5.39935e+6 
           9250      6.10692e+6 
           9270      6.26341e+6 
           9290      6.27183e+6 
           9310       6.2523e+6 
           9330      6.22942e+6 
           9350      6.19547e+6 
           9370      6.16219e+6 
           9390      6.12828e+6 
           9410      6.08056e+6 
