# Kurucz ODFNEW /NOVER (2003)
# teff = 37000 K (value for the effective temperature for the model. Temperatures are given in K)
# logg = 5 log(cm/s2) (value for Log(G) for the model.)
# meta = 0  (value for the Metallicity for the model.)
# lh = 1.25  (l/Hp where l is the  mixing length of the convective element and Hp is the pressure scale height)
# vtur = 2 km/s (Microturbulence velocity)
# alpha = 0.4  (Alpha)
#
# column 1: WAVELENGTH (ANGSTROM), Wavelength in Angstrom
# column 2: FLUX (ERG/CM2/S/A), Flux in erg/cm2/s/A
          147.2      0.00362423 
            151      0.00836088 
          155.2       0.0198789 
          158.8        0.040324 
            162       0.0733793 
            166         0.15163 
          170.3        0.316144 
          173.4        0.528416 
          176.8        0.914349 
          180.2         1.53687 
          181.7          1.9394 
          186.1         3.66578 
            191         7.20785 
          193.9         10.5793 
          198.4         18.8716 
          201.8         28.5772 
            205         41.7473 
          210.5         78.0908 
          216.2         143.164 
          219.8         209.887 
            223         289.526 
          226.8         427.878 
            230          180873 
            234          459842 
            240          648916 
          246.5          951275 
          252.4      1.53032e+6 
          256.8      1.98852e+6 
            260      2.86966e+6 
            264      4.54734e+6 
          268.5      6.78708e+6 
          273.5      8.50486e+6 
          278.5      9.26788e+6 
            284      1.72774e+7 
            290      2.29993e+7 
            296      2.69562e+7 
            301      4.31238e+7 
            308      8.58904e+7 
            318      1.53394e+8 
            328      2.03394e+8 
            338      3.30154e+8 
            348      4.58749e+8 
            357      8.64194e+8 
            366      1.83485e+9 
            375      2.06395e+9 
            385      2.63387e+9 
            395      4.69846e+9 
            405      5.85266e+9 
            414      6.48434e+9 
            422       6.5704e+9 
            430       6.4099e+9 
            441      7.14384e+9 
            451      7.66031e+9 
            460      7.03572e+9 
            470      7.56426e+9 
            480      8.39956e+9 
            490      7.56283e+9 
            500      9.19099e+9 
            506       9.9191e+9 
            512     4.59832e+10 
            520     4.19334e+10 
            530      3.7622e+10 
            540     3.46472e+10 
            550     3.52743e+10 
            560      4.5616e+10 
            570     4.88728e+10 
            580     4.57686e+10 
            590      4.7095e+10 
            600      3.5489e+10 
            610     4.13522e+10 
            620     5.00989e+10 
            630     4.79829e+10 
            640     4.91579e+10 
            650     4.64496e+10 
            658     3.67712e+10 
            665     4.46819e+10 
            675     4.98577e+10 
            685     4.02658e+10 
            695     4.87789e+10 
            705     3.76225e+10 
            716     5.03312e+10 
            726     4.92565e+10 
            735     4.93533e+10 
            745     4.49849e+10 
            755     4.46398e+10 
            765     4.48116e+10 
            775     4.58279e+10 
            785     4.44042e+10 
            795     4.55795e+10 
            805     4.34484e+10 
            815     4.33018e+10 
            825     4.47741e+10 
            835     3.64478e+10 
            845     4.26618e+10 
            855     4.15671e+10 
            865     4.25556e+10 
            875     4.21839e+10 
            885     4.18569e+10 
            895     4.15777e+10 
            905     4.01041e+10 
            915     3.56757e+10 
            925      6.8409e+10 
            935     1.00053e+11 
            945      1.3356e+11 
            955     1.51427e+11 
            965     1.78116e+11 
            975     9.67637e+10 
            985      1.5386e+11 
            995     1.34698e+11 
           1005     1.37234e+11 
           1015     1.42347e+11 
           1025     1.06888e+11 
           1035     1.38977e+11 
           1045     1.52927e+11 
           1055     1.46556e+11 
           1065     1.27667e+11 
           1075     1.31973e+11 
           1085     1.19142e+11 
           1095     1.28707e+11 
           1105      1.2193e+11 
           1115     1.19789e+11 
           1125     1.00414e+11 
           1135     1.14183e+11 
           1145     1.09666e+11 
           1155     1.01709e+11 
           1165     9.91908e+10 
           1175     7.55137e+10 
           1185     9.15461e+10 
           1195     8.74113e+10 
           1205     8.40673e+10 
           1215     6.32559e+10 
           1225     8.00568e+10 
           1235     8.42095e+10 
           1245     8.17976e+10 
           1255      8.1279e+10 
           1265     8.18212e+10 
           1275     8.28278e+10 
           1285      8.2187e+10 
           1295     7.74047e+10 
           1305     7.64973e+10 
           1315     7.86192e+10 
           1325     7.58963e+10 
           1335     7.39095e+10 
           1345     7.23065e+10 
           1355     7.08471e+10 
           1365     6.79305e+10 
           1375     6.59437e+10 
           1385     6.40424e+10 
           1395     5.36552e+10 
           1405     5.35315e+10 
           1415     6.09755e+10 
           1425     5.50357e+10 
           1435     5.78241e+10 
           1442     5.68256e+10 
           1447      5.6457e+10 
           1455     5.39445e+10 
           1465     5.30859e+10 
           1475     5.25226e+10 
           1485     5.25164e+10 
           1495     5.08031e+10 
           1505     4.97477e+10 
           1512      4.9354e+10 
           1517     4.90129e+10 
           1525     4.74973e+10 
           1535     4.25203e+10 
           1545     3.63342e+10 
           1555      3.6624e+10 
           1565     3.95753e+10 
           1575     4.07585e+10 
           1585     4.02234e+10 
           1595     4.03499e+10 
           1605     3.80236e+10 
           1615     3.63885e+10 
           1625     3.68052e+10 
           1635     3.64437e+10 
           1645     3.57556e+10 
           1655     3.65365e+10 
           1665     3.53991e+10 
           1672     3.33393e+10 
           1677     3.72868e+10 
           1685     3.59503e+10 
           1695     3.49085e+10 
           1705     3.41529e+10 
           1715      3.2968e+10 
           1725     3.15968e+10 
           1735     3.25127e+10 
           1745     3.21646e+10 
           1755     3.14077e+10 
           1765     3.08194e+10 
           1775     2.99733e+10 
           1785     3.01173e+10 
           1795     2.92764e+10 
           1805     2.90257e+10 
           1815     2.84243e+10 
           1825     2.78004e+10 
           1835     2.76951e+10 
           1845     2.67792e+10 
           1855      2.6626e+10 
           1865     2.64127e+10 
           1875     2.56205e+10 
           1885     2.48893e+10 
           1895     2.46976e+10 
           1905     2.47546e+10 
           1915     2.41145e+10 
           1925     2.28155e+10 
           1935     2.36055e+10 
           1945     2.35297e+10 
           1955     2.20388e+10 
           1967     2.24319e+10 
           1976     2.24383e+10 
           1984     2.19639e+10 
           1995     2.13873e+10 
           2005     2.15203e+10 
           2015     2.12534e+10 
           2025     2.09393e+10 
           2035     2.04265e+10 
           2045     2.00543e+10 
           2055     1.56596e+10 
           2065     1.49659e+10 
           2074     1.51656e+10 
           2078     1.51867e+10 
           2085     1.58145e+10 
           2095     1.69437e+10 
           2105     1.80142e+10 
           2115     1.82022e+10 
           2125     1.76742e+10 
           2135     1.76066e+10 
           2145     1.73306e+10 
           2155     1.72123e+10 
           2165     1.63359e+10 
           2175     1.67889e+10 
           2185     1.60872e+10 
           2195     1.64234e+10 
           2205     1.61725e+10 
           2215     1.53365e+10 
           2225     1.56639e+10 
           2235     1.54546e+10 
           2245     1.51678e+10 
           2255      1.4469e+10 
           2265     1.47498e+10 
           2275      1.4584e+10 
           2285     1.41356e+10 
           2295     1.33203e+10 
           2305     1.33808e+10 
           2315     1.35017e+10 
           2325      1.3438e+10 
           2335      1.3272e+10 
           2345     1.30604e+10 
           2355     1.28092e+10 
           2365     1.25967e+10 
           2375     1.23238e+10 
           2385     1.16525e+10 
           2395     1.18555e+10 
           2405     1.18516e+10 
           2415     1.16509e+10 
           2425     1.15742e+10 
           2435     1.13599e+10 
           2445     1.12287e+10 
           2455     1.10368e+10 
           2465     1.09307e+10 
           2475     1.07829e+10 
           2485     1.05059e+10 
           2495      8.35398e+9 
           2505     1.00477e+10 
           2513      9.48808e+9 
           2518      9.75525e+9 
           2525     1.00126e+10 
           2535       9.9379e+9 
           2545      9.74421e+9 
           2555      9.62191e+9 
           2565      9.48863e+9 
           2575      9.39689e+9 
           2585      9.27923e+9 
           2595      9.06743e+9 
           2605      9.04236e+9 
           2615      8.86205e+9 
           2625      8.79903e+9 
           2635      8.69548e+9 
           2645      8.55285e+9 
           2655      8.46342e+9 
           2665      8.30136e+9 
           2675      8.08989e+9 
           2685      8.09559e+9 
           2695      7.96352e+9 
           2705      7.90887e+9 
           2715      7.78632e+9 
           2725      7.66079e+9 
           2735      7.39939e+9 
           2745      7.52456e+9 
           2755      7.41296e+9 
           2765      7.29784e+9 
           2775      7.24925e+9 
           2785      7.11811e+9 
           2795      6.90524e+9 
           2805      6.93222e+9 
           2815       6.8802e+9 
           2825      6.77777e+9 
           2835      6.67848e+9 
           2845      6.64743e+9 
           2855      6.54595e+9 
           2865      6.44342e+9 
           2875      6.36905e+9 
           2885      6.30098e+9 
           2895      6.20629e+9 
           2910      6.06239e+9 
           2930      5.96762e+9 
           2950        5.803e+9 
           2970       5.6683e+9 
           2990      5.49918e+9 
           3010      5.34401e+9 
           3030      5.19327e+9 
           3050      5.12052e+9 
           3070      5.02444e+9 
           3090      4.88504e+9 
           3110      4.80722e+9 
           3130      4.67715e+9 
           3150      4.59213e+9 
           3170      4.48226e+9 
           3190      4.38588e+9 
           3210      4.23853e+9 
           3230      4.19487e+9 
           3250      4.11879e+9 
           3270      3.98577e+9 
           3290      3.92632e+9 
           3310      3.83672e+9 
           3330      3.74592e+9 
           3350      3.64963e+9 
           3370      3.58422e+9 
           3390      3.52763e+9 
           3410      3.45041e+9 
           3430      3.38979e+9 
           3450        3.293e+9 
           3470      3.24357e+9 
           3490      3.18114e+9 
           3510      3.11747e+9 
           3530      3.05836e+9 
           3550      2.99201e+9 
           3570      2.93774e+9 
           3590      2.86915e+9 
           3610      2.81406e+9 
           3630      2.75395e+9 
           3640      2.71034e+9 
           3650      2.54516e+9 
           3670       2.5027e+9 
           3690      2.45456e+9 
           3710      2.37835e+9 
           3730      2.35928e+9 
           3750      2.33445e+9 
           3770      2.28356e+9 
           3790      2.32724e+9 
           3810       2.3676e+9 
           3830      2.16922e+9 
           3850      2.34984e+9 
           3870      2.30278e+9 
           3890      2.02051e+9 
           3910      2.28974e+9 
           3930      2.24132e+9 
           3950      2.16944e+9 
           3970      1.85725e+9 
           3990      2.11949e+9 
           4010      2.09119e+9 
           4030      2.00351e+9 
           4050      2.03345e+9 
           4070      1.95298e+9 
           4090      1.82704e+9 
           4110      1.68332e+9 
           4130      1.85961e+9 
           4150      1.83818e+9 
           4170      1.82748e+9 
           4190       1.7845e+9 
           4210      1.74331e+9 
           4230      1.73571e+9 
           4250      1.68985e+9 
           4270      1.65716e+9 
           4290      1.62488e+9 
           4310       1.5826e+9 
           4330      1.47753e+9 
           4350      1.38225e+9 
           4370      1.51205e+9 
           4390      1.47569e+9 
           4410      1.46383e+9 
           4430      1.45089e+9 
           4450      1.42428e+9 
           4470      1.36925e+9 
           4490       1.3793e+9 
           4510      1.35185e+9 
           4530      1.33491e+9 
           4550      1.29614e+9 
           4570      1.29568e+9 
           4590      1.27002e+9 
           4610       1.2464e+9 
           4630      1.21718e+9 
           4650      1.16389e+9 
           4670      1.18281e+9 
           4690      1.14466e+9 
           4710      1.13985e+9 
           4730      1.14484e+9 
           4750      1.12535e+9 
           4770      1.11018e+9 
           4790      1.09258e+9 
           4810      1.07259e+9 
           4830      1.04992e+9 
           4850      9.88217e+8 
           4870      9.06667e+8 
           4890      9.99545e+8 
           4910      9.88434e+8 
           4930      9.61908e+8 
           4950      9.58363e+8 
           4970      9.50467e+8 
           4990      9.36116e+8 
           5010      9.09085e+8 
           5030      9.03627e+8 
           5050      8.90235e+8 
           5070      8.81335e+8 
           5090      8.67748e+8 
           5110      8.54895e+8 
           5130      8.42072e+8 
           5150      8.29792e+8 
           5170      8.16746e+8 
           5190      8.05708e+8 
           5210      7.94343e+8 
           5230      7.83211e+8 
           5250      7.70366e+8 
           5270      7.58562e+8 
           5290      7.49942e+8 
           5310         7.39e+8 
           5330      7.28663e+8 
           5350      7.18461e+8 
           5370      7.08299e+8 
           5390      6.97904e+8 
           5410      6.77217e+8 
           5430      6.78844e+8 
           5450      6.69482e+8 
           5470        6.601e+8 
           5490      6.51075e+8 
           5510       6.4153e+8 
           5530      6.33301e+8 
           5550      6.24806e+8 
           5570       6.1609e+8 
           5590       6.0589e+8 
           5610       5.9971e+8 
           5630       5.9163e+8 
           5650      5.83578e+8 
           5670      5.75379e+8 
           5690      5.60938e+8 
           5710      5.41336e+8 
           5730      5.34626e+8 
           5750      5.27199e+8 
           5770      5.21152e+8 
           5790      5.14377e+8 
           5810      5.06791e+8 
           5830       5.0056e+8 
           5850      4.95679e+8 
           5870      4.80488e+8 
           5890      4.83855e+8 
           5910      4.79561e+8 
           5930      4.74831e+8 
           5950      4.70229e+8 
           5970      4.66186e+8 
           5990      4.61671e+8 
           6010      4.57529e+8 
           6030      4.52769e+8 
           6050       4.4871e+8 
           6070      4.43631e+8 
           6090      4.38264e+8 
           6110      4.32604e+8 
           6130        4.274e+8 
           6150      4.21676e+8 
           6170      4.16463e+8 
           6190      4.11849e+8 
           6210      4.06905e+8 
           6230      4.01705e+8 
           6250      3.96698e+8 
           6270       3.9213e+8 
           6290      3.87326e+8 
           6310      3.82037e+8 
           6330      3.78075e+8 
           6350      3.73296e+8 
           6370      3.69089e+8 
           6390      3.64642e+8 
           6410      3.59702e+8 
           6430      3.56046e+8 
           6450      3.51641e+8 
           6470      3.47149e+8 
           6490      3.43089e+8 
           6510       3.3822e+8 
           6530      3.32768e+8 
           6550       3.2158e+8 
           6570      2.92543e+8 
           6590      3.21019e+8 
           6610      3.19579e+8 
           6630      3.16454e+8 
           6650      3.12688e+8 
           6670       3.0565e+8 
           6690      3.01704e+8 
           6710      3.01264e+8 
           6730      2.98046e+8 
           6750      2.95033e+8 
           6770      2.92027e+8 
           6790      2.88585e+8 
           6810       2.8556e+8 
           6830      2.82275e+8 
           6850      2.79128e+8 
           6870      2.75885e+8 
           6890       2.7123e+8 
           6910      2.69236e+8 
           6930      2.67018e+8 
           6950      2.64056e+8 
           6970      2.61162e+8 
           6990      2.58228e+8 
           7010      2.55116e+8 
           7030      2.52172e+8 
           7050       2.4947e+8 
           7070      2.44179e+8 
           7090      2.44512e+8 
           7110      2.41768e+8 
           7130      2.39198e+8 
           7150      2.36719e+8 
           7170      2.33268e+8 
           7190      2.31068e+8 
           7210      2.29209e+8 
           7230      2.26191e+8 
           7250      2.24178e+8 
           7270      2.21991e+8 
           7290      2.18464e+8 
           7310      2.17206e+8 
           7330      2.15048e+8 
           7350      2.12784e+8 
           7370      2.10535e+8 
           7390      2.08397e+8 
           7410      2.06176e+8 
           7430      2.04091e+8 
           7450      2.01843e+8 
           7470       1.9965e+8 
           7490      1.97302e+8 
           7510      1.95745e+8 
           7530      1.93757e+8 
           7550      1.91833e+8 
           7570      1.89848e+8 
           7590      1.86474e+8 
           7610      1.85697e+8 
           7630      1.84065e+8 
           7650      1.82177e+8 
           7670      1.80466e+8 
           7690       1.7814e+8 
           7710      1.76703e+8 
           7730      1.74416e+8 
           7750      1.73341e+8 
           7770       1.7167e+8 
           7790      1.69982e+8 
           7810      1.68267e+8 
           7830      1.66634e+8 
           7850        1.649e+8 
           7870      1.63126e+8 
           7890      1.61598e+8 
           7910      1.60252e+8 
           7930      1.58672e+8 
           7950      1.57189e+8 
           7970      1.55523e+8 
           7990      1.54108e+8 
           8010      1.52653e+8 
           8030      1.51104e+8 
           8050      1.49762e+8 
           8070      1.48314e+8 
           8090      1.46851e+8 
           8110      1.45074e+8 
           8130       1.4411e+8 
           8150      1.42672e+8 
           8170       1.4132e+8 
           8190       1.3949e+8 
           8210      1.36274e+8 
           8230      1.34411e+8 
           8250      1.33699e+8 
           8270      1.32255e+8 
           8290      1.31425e+8 
           8310      1.30335e+8 
           8330      1.28863e+8 
           8350      1.27485e+8 
           8370      1.26597e+8 
           8390      1.25641e+8 
           8410      1.24452e+8 
           8430      1.23375e+8 
           8450      1.21953e+8 
           8470      1.21199e+8 
           8490      1.20048e+8 
           8510      1.18741e+8 
           8530      1.17921e+8 
           8550      1.16896e+8 
           8570      1.16068e+8 
           8590      1.14283e+8 
